      786.45110      0.33367086E-001
      789.97205      0.34573243E-001
      793.49299      0.33401658E-001
      797.01394      0.30165921E-001
      800.53488      0.25562403E-001
      804.05583      0.20442404E-001
      807.57678      0.15582475E-001
      811.09772      0.11539078E-001
      814.61867      0.86133043E-002
      818.13961      0.68961917E-002
      821.66056      0.63472137E-002
      825.18151      0.68784979E-002
      828.70245      0.84508276E-002
      832.22340      0.11205046E-001
      835.74434      0.15636622E-001
      839.26529      0.22773930E-001
      842.78624      0.34263615E-001
      846.30718      0.52233849E-001
      849.82813      0.78834206E-001
      853.34907      0.11546052     
      856.87002      0.16185191     
      860.39097      0.21543520     
      863.91191      0.27138202     
      867.43286      0.32371529     
      870.95380      0.36739509     
      874.47475      0.40072267     
      877.99570      0.42690790     
      881.51664      0.45362678     
      885.03759      0.49008839     
      888.55853      0.54238500     
      892.07948      0.60911382     
      895.60043      0.67964227     
      899.12137      0.73645933     
      902.64232      0.76109261     
      906.16326      0.74110871     
      909.68421      0.67496841     
      913.20516      0.57253198     
      916.72610      0.45123148     
      920.24705      0.32999951     
      923.76799      0.22378433     
      927.28894      0.14066248     
      930.80989      0.81934380E-001
      934.33083      0.44222442E-001
      937.85178      0.22114659E-001
      941.37272      0.10246219E-001
      944.89367      0.43982985E-002
      948.41462      0.17491980E-002
      951.93556      0.64450353E-003
      955.45651      0.22001876E-003
      958.97745      0.69626248E-004
      962.49840      0.20570499E-004
      966.01935      0.62017799E-005
      969.54029      0.36471167E-005
      973.06124      0.74035352E-005
      976.58218      0.20724712E-004
      980.10313      0.56047259E-004
      983.62408      0.14139023E-003
      987.14502      0.33193941E-003
      990.66597      0.72531009E-003
      994.18691      0.14754884E-002
      997.70786      0.27951748E-002
     1001.22881      0.49321896E-002
     1004.74975      0.81077996E-002
     1008.27070      0.12417914E-001
     1011.79164      0.17721466E-001
     1015.31259      0.23564098E-001
     1018.83354      0.29192358E-001
     1022.35448      0.33689559E-001
     1025.87543      0.36211464E-001
     1029.39637      0.36242480E-001
     1032.91732      0.33766877E-001
     1036.43827      0.29277442E-001
     1039.95921      0.23615922E-001
     1043.48016      0.17715885E-001
     1047.00110      0.12355596E-001
     1050.52205      0.80088137E-002
     1054.04300      0.48233322E-002
     1057.56394      0.26983504E-002
     1061.08489      0.14021939E-002
     1064.60583      0.67732508E-003
     1068.12678      0.30528212E-003
     1071.64773      0.13039618E-003
     1075.16867      0.55873831E-004
     1078.68962      0.28100613E-004
     1082.21056      0.20187867E-004
     1085.73151      0.19675720E-004
     1089.25246      0.21068518E-004
     1092.77340      0.22008149E-004
     1096.29435      0.21590879E-004
     1099.81529      0.19699839E-004
     1103.33624      0.16712799E-004
     1106.85719      0.13357428E-004
     1110.37813      0.10850967E-004
     1113.89908      0.12006458E-004
     1117.42002      0.25280657E-004
     1120.94097      0.76935432E-004
     1124.46192      0.24343981E-003
     1127.98286      0.72877684E-003
     1131.50381      0.20284039E-002
     1135.02475      0.52335636E-002
     1138.54570      0.12511660E-001
     1142.06665      0.27712475E-001
     1145.58759      0.56869391E-001
     1149.10854      0.10812676     
     1152.62948      0.19048234     
     1156.15043      0.31093483     
     1159.67138      0.47034972     
     1163.19232      0.65945041     
     1166.71327      0.85718460     
     1170.23421       1.0334721     
     1173.75516       1.1566129     
     1177.27611       1.2030632     
     1180.79705       1.1654331     
     1184.31800       1.0548731     
     1187.83894      0.89664175     
     1191.35989      0.72107005     
     1194.88084      0.55423062     
     1198.40178      0.41217608     
     1201.92273      0.30019900     
     1205.44367      0.21591353     
     1208.96462      0.15361588     
     1212.48557      0.10772986     
     1216.00651      0.74453533E-001
     1219.52746      0.51940347E-001
     1223.04840      0.39841644E-001
     1226.56935      0.38828987E-001
     1230.09030      0.50213591E-001
     1233.61124      0.75414299E-001
     1237.13219      0.11501522     
     1240.65313      0.16747727     
     1244.17408      0.22801258     
     1247.69503      0.28838384     
     1251.21597      0.33818928     
     1254.73692      0.36751872     
     1258.25786      0.37004725     
     1261.77881      0.34520059     
     1265.29976      0.29834324     
     1268.82070      0.23888525     
     1272.34165      0.17721087     
     1275.86259      0.12179210     
     1279.38354      0.77548890E-001
     1282.90449      0.45746694E-001
     1286.42543      0.25001814E-001
     1289.94638      0.12659338E-001
     1293.46732      0.59385188E-002
     1296.98827      0.25809105E-002
     1300.50922      0.10391911E-002
     1304.03016      0.38765518E-003
     1307.55111      0.13397489E-003
     1311.07205      0.42897196E-004
     1314.59300      0.12725125E-004
     1318.11395      0.34972196E-005
     1321.63489      0.89045384E-006
     1325.15584      0.21005248E-006
     1328.67678      0.45907107E-007
     1332.19773      0.93012044E-008
     1335.71868      0.17850534E-008
     1339.23962      0.55425097E-009
     1342.76057      0.14587912E-008
     1346.28151      0.73387494E-008
     1349.80246      0.35318529E-007
     1353.32341      0.15762219E-006
     1356.84435      0.65173558E-006
     1360.36530      0.24966262E-005
     1363.88624      0.88606031E-005
     1367.40719      0.29134040E-004
     1370.92814      0.88749482E-004
     1374.44908      0.25047166E-003
     1377.97003      0.65490612E-003
     1381.49097      0.15864528E-002
     1385.01192      0.35604341E-002
     1388.53287      0.74029773E-002
     1392.05381      0.14260592E-001
     1395.57476      0.25450504E-001
     1399.09570      0.42080696E-001
     1402.61665      0.64461024E-001
     1406.13760      0.91482772E-001
     1409.65854      0.12028444     
     1413.17949      0.14652375     
     1416.70043      0.16536205     
     1420.22138      0.17289991     
     1423.74233      0.16748989     
     1427.26327      0.15032303     
     1430.78422      0.12500373     
     1434.30516      0.96320324E-001
     1437.82611      0.68784270E-001
     1441.34706      0.45541120E-001
     1444.86800      0.27977938E-001
     1448.38895      0.15976119E-001
     1451.90989      0.85099202E-002
     1455.43084      0.42593690E-002
     1458.95179      0.20317838E-002
     1462.47273      0.94699357E-003
     1465.99368      0.44720688E-003
     1469.51462      0.22192093E-003
     1473.03557      0.11742343E-003
     1476.55652      0.65469570E-004
     1480.07746      0.39069815E-004
     1483.59841      0.30794561E-004
     1487.11935      0.47141829E-004
     1490.64030      0.11606708E-003
     1494.16125      0.30981630E-003
     1497.68219      0.78868570E-003
     1501.20314      0.18693840E-002
     1504.72408      0.41092327E-002
     1508.24503      0.83715311E-002
     1511.76598      0.15804478E-001
     1515.28692      0.27648755E-001
     1518.80787      0.44821887E-001
     1522.32881      0.67333503E-001
     1525.84976      0.93739259E-001
     1529.37071      0.12095256     
     1532.89165      0.14468752     
     1536.41260      0.16055520     
     1539.93354      0.16547464     
     1543.45449      0.15880587     
     1546.97544      0.14265956     
     1550.49638      0.12120034     
     1554.01733      0.99238273E-001
     1557.53827      0.80717187E-001
     1561.05922      0.67698041E-001
     1564.58017      0.60149135E-001
     1568.10111      0.56481149E-001
     1571.62206      0.54490806E-001
     1575.14300      0.52290731E-001
     1578.66395      0.48892483E-001
     1582.18490      0.44305402E-001
     1585.70584      0.39226837E-001
     1589.22679      0.34545982E-001
     1592.74773      0.30911287E-001
     1596.26868      0.28524669E-001
     1599.78963      0.27184501E-001
     1603.31057      0.26483891E-001
     1606.83152      0.26033025E-001
     1610.35246      0.25612066E-001
     1613.87341      0.25230184E-001
     1617.39436      0.25116123E-001
     1620.91530      0.25672653E-001
     1624.43625      0.27405030E-001
     1627.95719      0.30817592E-001
     1631.47814      0.36288389E-001
     1634.99909      0.43970069E-001
     1638.52003      0.53784068E-001
     1642.04098      0.65534139E-001
     1645.56192      0.79069742E-001
     1649.08287      0.94346463E-001
     1652.60382      0.11124740     
     1656.12476      0.12917915     
     1659.64571      0.14666310     
     1663.16665      0.16125246     
     1666.68760      0.16999602     
     1670.20855      0.17036660     
     1673.72949      0.16125751     
     1677.25044      0.14354710     
     1680.77138      0.11992810     
     1684.29233      0.94076543E-001
     1687.81328      0.69554416E-001
     1691.33422      0.48916737E-001
     1694.85517      0.33318755E-001
     1698.37611      0.22640488E-001
     1701.89706      0.15935022E-001
     1705.41801      0.11948500E-001
     1708.93895      0.95263993E-002
     1712.45990      0.78319840E-002
     1715.98084      0.63920989E-002
     1719.50179      0.50294397E-002
     1723.02274      0.37471185E-002
     1726.54368      0.26174993E-002
     1730.06463      0.17053768E-002
     1733.58557      0.10334734E-002
     1737.10652      0.58166236E-003
     1740.62747      0.30378392E-003
     1744.14841      0.14715131E-003
     1747.66936      0.66097470E-004
     1751.19030      0.27559781E-004
     1754.71125      0.10792724E-004
     1758.23220      0.44050144E-005
     1761.75314      0.31970441E-005
     1765.27409      0.61059176E-005
     1768.79503      0.15739262E-004
     1772.31598      0.39596259E-004
     1775.83693      0.92809289E-004
     1779.35787      0.20165612E-003
     1782.87882      0.40596222E-003
     1786.39976      0.75716451E-003
     1789.92071      0.13083467E-002
     1793.44166      0.20945134E-002
     1796.96260      0.31064982E-002
     1800.48355      0.42686127E-002
     1804.00449      0.54341304E-002
     1807.52544      0.64091589E-002
     1811.04639      0.70032509E-002
     1814.56733      0.70896697E-002
     1818.08828      0.66493622E-002
     1821.60922      0.57777886E-002
     1825.13017      0.46512639E-002
     1828.65112      0.34690293E-002
     1832.17206      0.23970254E-002
     1835.69301      0.15344932E-002
     1839.21395      0.91009135E-003
     1842.73490      0.50007214E-003
     1846.25585      0.25457046E-003
     1849.77679      0.12006351E-003
     1853.29774      0.52461622E-004
     1856.81868      0.21237338E-004
     1860.33963      0.79650058E-005
     1863.86058      0.27675775E-005
     1867.38152      0.89092503E-006
     1870.90247      0.26571140E-006
     1874.42341      0.73418736E-007
     1877.94436      0.18794524E-007
     1881.46531      0.44574384E-008
     1884.98625      0.97955390E-009
     1888.50720      0.20033954E-009
     1892.02814      0.43455408E-010
     1895.54909      0.39480905E-010
     1899.07004      0.17248387E-009
     1902.59098      0.82736424E-009
     1906.11193      0.36982306E-008
     1909.63287      0.15317840E-007
     1913.15382      0.58780214E-007
     1916.67477      0.20897414E-006
     1920.19571      0.68830608E-006
     1923.71666      0.21003822E-005
     1927.23760      0.59380347E-005
     1930.75855      0.15553022E-004
     1934.27950      0.37741098E-004
     1937.80044      0.84848065E-004
     1941.32139      0.17672461E-003
     1944.84233      0.34101994E-003
     1948.36328      0.60966349E-003
     1951.88423      0.10097835E-002
     1955.40517      0.15495087E-002
     1958.92612      0.22028628E-002
     1962.44706      0.29014063E-002
     1965.96801      0.35404407E-002
     1969.48896      0.40025223E-002
     1973.00990      0.41921601E-002
     1976.53085      0.40678941E-002
     1980.05179      0.36570347E-002
     1983.57274      0.30459039E-002
     1987.09369      0.23503416E-002
     1990.61463      0.16802482E-002
     1994.13558      0.11128678E-002
     1997.65652      0.68287524E-003
     2001.17747      0.38821012E-003
     2004.69842      0.20446557E-003
     2008.21936      0.99770760E-004
     2011.74031      0.45106492E-004
     2015.26125      0.18905985E-004
     2018.78220      0.74010816E-005
     2022.30315      0.29383142E-005
     2025.82409      0.20772759E-005
     2029.34504      0.46682842E-005
     2032.86598      0.15011793E-004
     2036.38693      0.47009767E-004
     2039.90788      0.13697895E-003
     2043.42882      0.36991856E-003
     2046.94977      0.92554910E-003
     2050.47071      0.21454658E-002
     2053.99166      0.46075654E-002
     2057.51261      0.91674615E-002
     2061.03355      0.16898741E-001
     2064.55450      0.28859398E-001
     2068.07544      0.45661258E-001
     2071.59639      0.66932359E-001
     2075.11734      0.90897527E-001
     2078.63828      0.11436567     
     2082.15923      0.13331129     
     2085.68017      0.14396797     
     2089.20112      0.14404311     
     2092.72207      0.13352014     
     2096.24301      0.11466444     
     2099.76396      0.91230144E-001
     2103.28490      0.67247424E-001
     2106.80585      0.45924096E-001
     2110.32680      0.29055828E-001
     2113.84774      0.17031526E-001
     2117.36869      0.92491437E-002
     2120.88963      0.46534727E-002
     2124.41058      0.21691045E-002
     2127.93153      0.93672360E-003
     2131.45247      0.37477457E-003
     2134.97342      0.13891733E-003
     2138.49436      0.47705717E-004
     2142.01531      0.15177914E-004
     2145.53626      0.44738500E-005
     2149.05720      0.12217390E-005
     2152.57815      0.30910291E-006
     2156.09909      0.72452844E-007
     2159.62004      0.15733866E-007
     2163.14099      0.31655059E-008
     2166.66193      0.59003596E-009
     2170.18288      0.10189233E-009
     2173.70382      0.16301673E-010
     2177.22477      0.24162983E-011
     2180.74572      0.33181543E-012
     2184.26666      0.42215339E-013
     2187.78761      0.49759001E-014
     2191.30855      0.54337630E-015
     2194.82950      0.54974008E-016
     2198.35045      0.51527821E-017
     2201.87139      0.44745960E-018
     2205.39234      0.35999258E-019
     2208.91328      0.26832488E-020
     2212.43423      0.18529171E-021
     2215.95518      0.11854377E-022
     2219.47612      0.70263394E-024
     2222.99707      0.38583995E-025
     2226.51801      0.19629667E-026
     2230.03896      0.92522283E-028
     2233.55991      0.40402424E-029
     2237.08085      0.16345423E-030
     2240.60180      0.61265021E-032
     2244.12274      0.21274368E-033
     2247.64369      0.68442904E-035
     2251.16464      0.20399892E-036
     2254.68558      0.56331972E-038
     2258.20653      0.14411518E-039
     2261.72747      0.34157978E-041
     2265.24842      0.75007082E-043
     2268.76937      0.15259491E-044
     2272.29031      0.28761100E-046
     2275.81126      0.50222533E-048
     2279.33220      0.81249256E-050
     2282.85315      0.12177772E-051
     2286.37410      0.16910014E-053
     2289.89504      0.21754433E-055
     2293.41599      0.25928610E-057
     2296.93693      0.28631123E-059
     2300.45788      0.29290392E-061
     2303.97883      0.27761291E-063
     2307.49977      0.24377087E-065
     2311.02072      0.19831320E-067
     2314.54166      0.14946830E-069
     2318.06261      0.10436966E-071
     2321.58356      0.67519169E-074
     2325.10450      0.40467612E-076
     2328.62545      0.22470656E-078
     2332.14639      0.11559834E-080
     2335.66734      0.55095368E-083
     2339.18829      0.24327992E-085
     2342.70923      0.99523377E-088
     2346.23018      0.37719994E-090
     2349.75112      0.13244812E-092
     2353.27207      0.43087139E-095
     2356.79302      0.12986053E-097
     2360.31396      0.36260549E-100
     2363.83491      0.93803542E-103
     2367.35585      0.22481836E-105
     2370.87680      0.49919701E-108
     2374.39775      0.10269277E-110
     2377.91869      0.19572008E-113
     2381.43964      0.34558796E-116
     2384.96058      0.56533970E-119
     2388.48153       0.0000000     
     2392.00248       0.0000000     
     2395.52342       0.0000000     
     2399.04437       0.0000000     
     2402.56531       0.0000000     
     2406.08626       0.0000000     
     2409.60721       0.0000000     
     2413.12815       0.0000000     
     2416.64910       0.0000000     
     2420.17004       0.0000000     
     2423.69099       0.0000000     
     2427.21194       0.0000000     
     2430.73288       0.0000000     
     2434.25383       0.0000000     
     2437.77477       0.0000000     
     2441.29572       0.0000000     
     2444.81667       0.0000000     
     2448.33761       0.0000000     
     2451.85856       0.0000000     
     2455.37950       0.0000000     
     2458.90045       0.0000000     
     2462.42140       0.0000000     
     2465.94234       0.0000000     
     2469.46329       0.0000000     
     2472.98423       0.0000000     
     2476.50518       0.0000000     
     2480.02613       0.0000000     
     2483.54707       0.0000000     
     2487.06802       0.0000000     
     2490.58896       0.0000000     
     2494.10991       0.0000000     
     2497.63086       0.0000000     
     2501.15180       0.0000000     
     2504.67275       0.0000000     
     2508.19369       0.0000000     
     2511.71464       0.0000000     
     2515.23559       0.0000000     
     2518.75653       0.0000000     
     2522.27748       0.0000000     
     2525.79842       0.0000000     
     2529.31937       0.0000000     
     2532.84032       0.0000000     
     2536.36126       0.0000000     
     2539.88221       0.0000000     
     2543.40315       0.0000000     
     2546.92410       0.0000000     
     2550.44505       0.0000000     
     2553.96599       0.0000000     
     2557.48694       0.0000000     
     2561.00788       0.0000000     
     2564.52883       0.0000000     
     2568.04978       0.0000000     
     2571.57072       0.0000000     
     2575.09167       0.0000000     
     2578.61261       0.0000000     
     2582.13356       0.0000000     
     2585.65451       0.0000000     
     2589.17545       0.0000000     
     2592.69640      0.38981920E-120
     2596.21734      0.25083958E-117
     2599.73829      0.14953972E-114
     2603.25924      0.82593288E-112
     2606.78018      0.42263028E-109
     2610.30113      0.20035682E-106
     2613.82207      0.87998511E-104
     2617.34302      0.35807515E-101
     2620.86397      0.13498973E-098
     2624.38491      0.47147092E-096
     2627.90586      0.15255863E-093
     2631.42680      0.45734752E-091
     2634.94775      0.12702334E-088
     2638.46870      0.32684995E-086
     2641.98964      0.77918569E-084
     2645.51059      0.17209220E-081
     2649.03153      0.35213491E-079
     2652.55248      0.66755129E-077
     2656.07343      0.11724326E-074
     2659.59437      0.19077382E-072
     2663.11532      0.28759236E-070
     2666.63626      0.40166462E-068
     2670.15721      0.51972964E-066
     2673.67816      0.62304450E-064
     2677.19910      0.69197167E-062
     2680.72005      0.71200859E-060
     2684.24099      0.67874997E-058
     2687.76194      0.59946259E-056
     2691.28289      0.49050339E-054
     2694.80383      0.37183444E-052
     2698.32478      0.26114690E-050
     2701.84572      0.16992130E-048
     2705.36667      0.10243265E-046
     2708.88762      0.57207992E-045
     2712.40856      0.29600746E-043
     2715.92951      0.14189800E-041
     2719.45045      0.63019878E-040
     2722.97140      0.25930239E-038
     2726.49235      0.98846920E-037
     2730.01329      0.34909806E-035
     2733.53424      0.11422454E-033
     2737.05518      0.34625738E-032
     2740.57613      0.97244792E-031
     2744.09708      0.25302377E-029
     2747.61802      0.60993559E-028
     2751.13897      0.13621793E-026
     2754.65991      0.28184626E-025
     2758.18086      0.54027881E-024
     2761.70181      0.95951387E-023
     2765.22275      0.15787460E-021
     2768.74370      0.24065834E-020
     2772.26464      0.33987346E-019
     2775.78559      0.44469399E-018
     2779.30654      0.53905482E-017
     2782.82748      0.60538587E-016
     2786.34843      0.62988215E-015
     2789.86937      0.60717514E-014
     2793.39032      0.54224598E-013
     2796.91127      0.44864865E-012
     2800.43221      0.34390941E-011
     2803.95316      0.24423586E-010
     2807.47410      0.16069503E-009
     2810.99505      0.97954222E-009
     2814.51600      0.55318645E-008
     2818.03694      0.28943269E-007
     2821.55789      0.14029794E-006
     2825.07883      0.63006111E-006
     2828.59978      0.26214509E-005
     2832.12073      0.10104817E-004
     2835.64167      0.36086341E-004
     2839.16262      0.11939466E-003
     2842.68356      0.36597772E-003
     2846.20451      0.10393266E-002
     2849.72546      0.27344949E-002
     2853.24640      0.66654560E-002
     2856.76735      0.15052557E-001
     2860.28829      0.31493314E-001
     2863.80924      0.61045564E-001
     2867.33019      0.10962700     
     2870.85113      0.18239319     
     2874.37208      0.28114307     
     2877.89302      0.40148916     
     2881.41397      0.53118759     
     2884.93492      0.65110299     
     2888.45586      0.73939947     
     2891.97681      0.77792234     
     2895.49775      0.75826503     
     2899.01870      0.68475227     
     2902.53965      0.57289311     
     2906.06059      0.44405973     
     2909.58154      0.31888703     
     2913.10248      0.21215828     
     2916.62343      0.13077080     
     2920.14438      0.74677411E-001
     2923.66532      0.39508941E-001
     2927.18627      0.19365522E-001
     2930.70721      0.87940855E-002
     2934.22816      0.36998135E-002
     2937.74911      0.14421042E-002
     2941.27005      0.52076423E-003
     2944.79100      0.17422613E-003
     2948.31194      0.54002409E-004
     2951.83289      0.15507459E-004
     2955.35384      0.41256825E-005
     2958.87478      0.10169009E-005
     2962.39573      0.23221440E-006
     2965.91667      0.49127801E-007
     2969.43762      0.96292658E-008
     2972.95857      0.17485848E-008
     2976.47951      0.29417644E-009
     2980.00046      0.45851837E-010
     2983.52140      0.66211476E-011
     2987.04235      0.88580365E-012
     2990.56330      0.10979166E-012
     2994.08424      0.12607497E-013
     2997.60519      0.13412696E-014
     3001.12613      0.13219985E-015
     3004.64708      0.12071841E-016
     3008.16803      0.10212774E-017
     3011.68897      0.80046364E-019
     3015.20992      0.58125562E-020
     3018.73086      0.39103929E-021
     3022.25181      0.24372568E-022
     3025.77276      0.14073751E-023
     3029.29370      0.75291525E-025
     3032.81465      0.37317282E-026
     3036.33559      0.17135689E-027
     3039.85654      0.72898874E-029
     3043.37749      0.28732124E-030
     3046.89843      0.10491614E-031
     3050.41938      0.35493153E-033
     3053.94032      0.11124346E-034
     3057.46127      0.32302200E-036
     3060.98222      0.86899518E-038
     3064.50316      0.21658723E-039
     3068.02411      0.50619437E-041
     3071.54505      0.27928185E-041
     3075.06600      0.10995594E-039
     3078.58695      0.41703247E-038
     3082.10789      0.14654030E-036
     3085.62884      0.47705888E-035
     3089.14978      0.14388468E-033
     3092.67073      0.40205436E-032
     3096.19168      0.10408369E-030
     3099.71262      0.24963659E-029
     3103.23357      0.55470424E-028
     3106.75451      0.11419377E-026
     3110.27546      0.21779654E-025
     3113.79641      0.38484622E-024
     3117.31735      0.63001537E-023
     3120.83830      0.95552649E-022
     3124.35924      0.13426474E-020
     3127.88019      0.17478692E-019
     3131.40114      0.21080627E-018
     3134.92208      0.23555145E-017
     3138.44303      0.24384605E-016
     3141.96397      0.23386936E-015
     3145.48492      0.20780625E-014
     3149.00587      0.17106910E-013
     3152.52681      0.13047046E-012
     3156.04776      0.92189290E-012
     3159.56870      0.60349882E-011
     3163.08965      0.36601599E-010
     3166.61060      0.20566072E-009
     3170.13154      0.10706076E-008
     3173.65249      0.51634141E-008
     3177.17343      0.23071257E-007
     3180.69438      0.95506569E-007
     3184.21533      0.36628817E-006
     3187.73627      0.13014881E-005
     3191.25722      0.42843525E-005
     3194.77816      0.13066457E-004
     3198.29911      0.36919701E-004
     3201.82006      0.96646510E-004
     3205.34100      0.23439149E-003
     3208.86195      0.52665374E-003
     3212.38289      0.10963171E-002
     3215.90384      0.21143402E-002
     3219.42479      0.37778195E-002
     3222.94573      0.62536737E-002
     3226.46668      0.95908457E-002
     3229.98762      0.13627188E-001
     3233.50857      0.17938383E-001
     3237.02952      0.21877011E-001
     3240.55046      0.24718400E-001
     3244.07141      0.25875001E-001
     3247.59235      0.25093896E-001
     3251.11330      0.22546725E-001
     3254.63425      0.18768368E-001
     3258.15519      0.14474288E-001
     3261.67614      0.10341787E-001
     3265.19708      0.68457598E-002
     3268.71803      0.41983185E-002
     3272.23898      0.23853756E-002
     3275.75992      0.12556420E-002
     3279.28087      0.61235402E-003
     3282.80181      0.27667313E-003
     3286.32276      0.11581346E-003
     3289.84371      0.44913696E-004
     3293.36465      0.16137127E-004
     3296.88560      0.53715707E-005
     3300.40654      0.16565481E-005
     3303.92749      0.47329778E-006
     3307.44844      0.12528312E-006
     3310.96938      0.30724040E-007
     3314.49033      0.69805840E-008
     3318.01127      0.14693757E-008
     3321.53222      0.28655080E-009
     3325.05317      0.51772373E-010
     3328.57411      0.86660698E-011
     3332.09506      0.13439217E-011
     3335.61600      0.19308717E-012
     3339.13695      0.25701622E-013
     3342.65790      0.31695334E-014
     3346.17884      0.36212440E-015
     3349.69979      0.38330804E-016
     3353.22073      0.37589429E-017
     3356.74168      0.34151611E-018
     3360.26263      0.28746458E-019
     3363.78357      0.22417395E-020
     3367.30452      0.16196219E-021
     3370.82546      0.10841011E-022
     3374.34641      0.67228527E-024
     3377.86736      0.38624697E-025
     3381.38830      0.20559107E-026
     3384.90925      0.10138439E-027
     3388.43019      0.46319683E-029
     3391.95114      0.19605944E-030
     3395.47209      0.76884286E-032
     3398.99303      0.27932840E-033
     3402.51398      0.94020007E-035
     3406.03492      0.29319268E-036
     3409.55587      0.84705897E-038
     3413.07682      0.22672627E-039
     3416.59776      0.56223476E-041
     3420.11871      0.12916987E-042
     3423.63965      0.27493651E-044
     3427.16060      0.54216476E-046
     3430.68155      0.99050763E-048
     3434.20249      0.16765327E-049
     3437.72344      0.26290201E-051
     3441.24438      0.38194731E-053
     3444.76533      0.51409180E-055
     3448.28628      0.64107017E-057
     3451.80722      0.74062458E-059
     3455.32817      0.79271733E-061
     3458.84911      0.78607910E-063
     3462.37006      0.72217395E-065
     3465.89101      0.61467430E-067
     3469.41195      0.48470328E-069
     3472.93290      0.35410702E-071
     3476.45384      0.23967392E-073
     3479.97479      0.15029160E-075
     3483.49574      0.87312472E-078
     3487.01668      0.46994339E-080
     3490.53763      0.23433786E-082
     3494.05857      0.10825976E-084
     3497.57952      0.46336084E-087
     3501.10047      0.18373812E-089
     3504.62141      0.67500482E-092
     3508.14236      0.22974293E-094
     3511.66330      0.72444446E-097
     3515.18425      0.21163900E-099
     3518.70520      0.57281449E-102
     3522.22614      0.14394248E-104
     3525.74709      0.13495465E-104
     3529.26803      0.54585544E-102
     3532.78898      0.20505494E-099
     3536.30993      0.71365858E-097
     3539.83087      0.23011155E-094
     3543.35182      0.68740711E-092
     3546.87276      0.19024677E-089
     3550.39371      0.48780723E-087
     3553.91466      0.11587956E-084
     3557.43560      0.25503109E-082
     3560.95655      0.52000447E-080
     3564.47749      0.98231029E-078
     3567.99844      0.17191667E-075
     3571.51939      0.27875004E-073
     3575.04033      0.41873530E-071
     3578.56128      0.58276287E-069
     3582.08222      0.75140113E-067
     3585.60317      0.89759305E-065
     3589.12412      0.99337858E-063
     3592.64506      0.10185393E-060
     3596.16601      0.96753886E-059
     3599.68695      0.85150409E-057
     3603.20790      0.69427692E-055
     3606.72885      0.52445277E-053
     3610.24979      0.36703520E-051
     3613.77074      0.23797795E-049
     3617.29168      0.14295303E-047
     3620.81263      0.79556875E-046
     3624.33358      0.41019440E-044
     3627.85452      0.19594284E-042
     3631.37547      0.86715504E-041
     3634.89641      0.35554270E-039
     3638.41736      0.13505618E-037
     3641.93831      0.47529672E-036
     3645.45925      0.15496829E-034
     3648.98020      0.46811067E-033
     3652.50114      0.13100320E-031
     3656.02209      0.33965886E-030
     3659.54304      0.81589007E-029
     3663.06398      0.18157164E-027
     3666.58493      0.37436227E-026
     3670.10587      0.71509508E-025
     3673.62682      0.12655030E-023
     3677.14777      0.20748668E-022
     3680.66871      0.31517006E-021
     3684.18966      0.44353445E-020
     3687.71060      0.57827900E-019
     3691.23155      0.69851407E-018
     3694.75250      0.78170083E-017
     3698.27344      0.81046387E-016
     3701.79439      0.77849247E-015
     3705.31533      0.69279199E-014
     3708.83628      0.57118789E-013
     3712.35723      0.43629760E-012
     3715.87817      0.30875527E-011
     3719.39912      0.20242945E-010
     3722.92006      0.12295915E-009
     3726.44101      0.69195193E-009
     3729.96196      0.36076061E-008
     3733.48290      0.17425720E-007
     3737.00385      0.77981451E-007
     3740.52479      0.32331193E-006
     3744.04574      0.12418910E-005
     3747.56669      0.44195610E-005
     3751.08763      0.14571793E-004
     3754.60858      0.44513566E-004
     3758.12952      0.12598815E-003
     3761.65047      0.33040445E-003
     3765.17142      0.80292774E-003
     3768.69236      0.18083457E-002
     3772.21331      0.37753945E-002
     3775.73425      0.73095424E-002
     3779.25520      0.13132659E-001
     3782.77615      0.21919502E-001
     3786.29709      0.34050291E-001
     3789.81804      0.49376708E-001
     3793.33898      0.67158078E-001
     3796.85993      0.86295566E-001
     3800.38088      0.10583780     
     3803.90182      0.12550819     
     3807.42277      0.14586664     
     3810.94371      0.16782673     
     3814.46466      0.19162214     
     3817.98561      0.21575631     
     3821.50655      0.23665493     
     3825.02750      0.24946217     
     3828.54844      0.24978331     
     3832.06939      0.23557328     
     3835.59034      0.20822007     
     3839.11128      0.17229501     
     3842.63223      0.13415764     
     3846.15317      0.10014203     
     3849.67412      0.75104783E-001
     3853.19507      0.61739221E-001
     3856.71601      0.60584674E-001
     3860.23696      0.70408160E-001
     3863.75790      0.88696820E-001
     3867.27885      0.11220803     
     3870.79980      0.13763465     
     3874.32074      0.16234010     
     3877.84169      0.18490897     
     3881.36263      0.20518111     
     3884.88358      0.22364314     
     3888.40453      0.24045363     
     3891.92547      0.25468201     
     3895.44642      0.26428128     
     3898.96736      0.26688387     
     3902.48831      0.26099380     
     3906.00926      0.24690389     
     3909.53020      0.22684627     
     3913.05115      0.20433333     
     3916.57209      0.18304857     
     3920.09304      0.16577972     
     3923.61399      0.15375218     
     3927.13493      0.14648576     
     3930.65588      0.14211954     
     3934.17682      0.13806736     
     3937.69777      0.13182826     
     3941.21872      0.12173852     
     3944.73966      0.10744020     
     3948.26061      0.89910128E-001
     3951.78155      0.71053503E-001
     3955.30250      0.53043225E-001
     3958.82345      0.37676968E-001
     3962.34439      0.25977785E-001
     3965.86534      0.18119751E-001
     3969.38628      0.13612256E-001
     3972.90723      0.11600999E-001
     3976.42818      0.11154442E-001
     3979.94912      0.11463400E-001
     3983.47007      0.11940003E-001
     3986.99101      0.12235527E-001
     3990.51196      0.12206129E-001
     3994.03291      0.11854097E-001
     3997.55385      0.11267300E-001
     4001.07480      0.10571869E-001
     4004.59574      0.99019360E-002
     4008.11669      0.93796254E-002
     4011.63764      0.90947133E-002
     4015.15858      0.90796148E-002
     4018.67953      0.92872046E-002
     4022.20047      0.95870358E-002
     4025.72142      0.97920654E-002
     4029.24237      0.97133380E-002
     4032.76331      0.92231172E-002
     4036.28426      0.82992380E-002
     4039.80520      0.70309280E-002
     4043.32615      0.55848933E-002
     4046.84710      0.41488807E-002
     4050.36804      0.28777936E-002
     4053.88899      0.18618622E-002
     4057.40993      0.11227623E-002
     4060.93088      0.63075378E-003
     4064.45183      0.32998430E-003
     4067.97277      0.16071157E-003
     4071.49372      0.72844688E-004
     4075.01466      0.30720806E-004
     4078.53561      0.12051616E-004
     4082.05656      0.43967814E-005
     4085.57750      0.14914352E-005
     4089.09845      0.47028442E-006
     4092.61939      0.13782048E-006
     4096.14034      0.37529937E-007
     4099.66129      0.94944651E-008
     4103.18223      0.22310700E-008
     4106.70318      0.48689043E-009
     4110.22412      0.98662899E-010
     4113.74507      0.18561786E-010
     4117.26602      0.32438625E-011
     4120.78696      0.54524604E-012
     4124.30791      0.23431119E-012
     4127.82885      0.11370850E-011
     4131.34980      0.75668574E-011
     4134.87075      0.47090921E-010
     4138.39169      0.27155972E-009
     4141.91264      0.14508507E-008
     4145.43358      0.71813780E-008
     4148.95453      0.32932183E-007
     4152.47548      0.13991392E-006
     4155.99642      0.55071765E-006
     4159.51737      0.20082822E-005
     4163.03831      0.67849734E-005
     4166.55926      0.21237297E-004
     4170.08021      0.61585431E-004
     4173.60115      0.16545672E-003
     4177.12210      0.41183049E-003
     4180.64304      0.94968650E-003
     4184.16399      0.20289423E-002
     4187.68494      0.40159361E-002
     4191.20588      0.73643017E-002
     4194.72683      0.12511345E-001
     4198.24777      0.19692648E-001
     4201.76872      0.28716526E-001
     4205.28967      0.38796036E-001
     4208.81061      0.48559083E-001
     4212.33156      0.56309448E-001
     4215.85250      0.60495035E-001
     4219.37345      0.60212389E-001
     4222.89440      0.55523862E-001
     4226.41534      0.47435243E-001
     4229.93629      0.37544841E-001
     4233.45723      0.27531323E-001
     4236.97818      0.18703874E-001
     4240.49913      0.11772365E-001
     4244.02007      0.68647312E-002
     4247.54102      0.37086088E-002
     4251.06196      0.18562061E-002
     4254.58291      0.86073411E-003
     4258.10386      0.36977668E-003
     4261.62480      0.14717623E-003
     4265.14575      0.54270462E-004
     4268.66669      0.18540312E-004
     4272.18764      0.58681095E-005
     4275.70859      0.17207075E-005
     4279.22953      0.46745906E-006
     4282.75048      0.11765429E-006
     4286.27142      0.27434663E-007
     4289.79237      0.59267847E-008
     4293.31332      0.11862230E-008
     4296.83426      0.21995874E-009
     4300.35521      0.37787117E-010
     4303.87615      0.60141460E-011
     4307.39710      0.88681258E-012
