      641.46280      0.69380861E-002
      645.13422      0.93116023E-002
      648.80564      0.11518441E-001
      652.47707      0.13151886E-001
      656.14849      0.13917229E-001
      659.81991      0.13778695E-001
      663.49133      0.13033264E-001
      667.16275      0.12267496E-001
      670.83418      0.12199595E-001
      674.50560      0.13450091E-001
      678.17702      0.16307427E-001
      681.84844      0.20562607E-001
      685.51987      0.25483058E-001
      689.19129      0.29968655E-001
      692.86271      0.32870001E-001
      696.53413      0.33365769E-001
      700.20555      0.31242756E-001
      703.87698      0.26949719E-001
      707.54840      0.21403253E-001
      711.21982      0.15647706E-001
      714.89124      0.10531843E-001
      718.56266      0.65298492E-002
      722.23409      0.37392245E-002
      725.90551      0.20012500E-002
      729.57693      0.10572561E-002
      733.24835      0.67468887E-003
      736.91977      0.71859852E-003
      740.59120      0.11745287E-002
      744.26262      0.21358347E-002
      747.93404      0.37600181E-002
      751.60546      0.61915177E-002
      755.27689      0.94562256E-002
      758.94831      0.13356920E-001
      762.61973      0.17423171E-001
      766.29115      0.20968658E-001
      769.96257      0.23267551E-001
      773.63400      0.23793872E-001
      777.30542      0.22416798E-001
      780.97684      0.19452932E-001
      784.64826      0.15547406E-001
      788.31968      0.11445557E-001
      791.99111      0.77667376E-002
      795.66253      0.48737990E-002
      799.33395      0.28672041E-002
      803.00537      0.16690106E-002
      806.67679      0.11337476E-002
      810.34822      0.11330035E-002
      814.01964      0.15886589E-002
      817.69106      0.24563025E-002
      821.36248      0.36777779E-002
      825.03391      0.51311534E-002
      828.70533      0.66081071E-002
      832.37675      0.78393415E-002
      836.04817      0.85668608E-002
      839.71959      0.86360564E-002
      843.39102      0.80667434E-002
      847.06244      0.70721383E-002
      850.73386      0.60228834E-002
      854.40528      0.53785647E-002
      858.07670      0.56119932E-002
      861.74813      0.71317736E-002
      865.41955      0.10188728E-001
      869.09097      0.14758409E-001
      872.76239      0.20430718E-001
      876.43381      0.26380280E-001
      880.10524      0.31492190E-001
      883.77666      0.34652479E-001
      887.44808      0.35109582E-001
      891.11950      0.32743537E-001
      894.79092      0.28104969E-001
      898.46235      0.22201435E-001
      902.13377      0.16140374E-001
      905.80519      0.10798882E-001
      909.47661      0.66493017E-002
      913.14804      0.37679494E-002
      916.81946      0.19650148E-002
      920.49088      0.94310156E-003
      924.16230      0.41656697E-003
      927.83372      0.16934287E-003
      931.50515      0.63396233E-004
      935.17657      0.22009037E-004
      938.84799      0.76540626E-005
      942.51941      0.45659996E-005
      946.19083      0.85927149E-005
      949.86226      0.23523436E-004
      953.53368      0.62559976E-004
      957.20510      0.15384843E-003
      960.87652      0.34833549E-003
      964.54794      0.72585362E-003
      968.21937      0.13919811E-002
      971.89079      0.24566848E-002
      975.56221      0.39902242E-002
      979.23363      0.59645406E-002
      982.90506      0.82051948E-002
      986.57648      0.10388050E-001
      990.24790      0.12103626E-001
      993.91932      0.12979044E-001
      997.59074      0.12809851E-001
     1001.26217      0.11638721E-001
     1004.93359      0.97405830E-002
     1008.60501      0.75225207E-002
     1012.27643      0.53898675E-002
     1015.94785      0.36397334E-002
     1019.61928      0.24177454E-002
     1023.29070      0.17352904E-002
     1026.96212      0.15190887E-002
     1030.63354      0.16631468E-002
     1034.30496      0.20668585E-002
     1037.97639      0.26566359E-002
     1041.64781      0.33926891E-002
     1045.31923      0.42599975E-002
     1048.99065      0.52424582E-002
     1052.66208      0.62874633E-002
     1056.33350      0.72800561E-002
     1060.00492      0.80489991E-002
     1063.67634      0.84130483E-002
     1067.34776      0.82501761E-002
     1071.01919      0.75535619E-002
     1074.69061      0.64419656E-002
     1078.36203      0.51178814E-002
     1082.03345      0.37965771E-002
     1085.70487      0.26422338E-002
     1089.37630      0.17373386E-002
     1093.04772      0.10888878E-002
     1096.71914      0.65660070E-003
     1100.39056      0.38373272E-003
     1104.06198      0.21798923E-003
     1107.73341      0.12006684E-003
     1111.40483      0.63730609E-004
     1115.07625      0.32556734E-004
     1118.74767      0.16695820E-004
     1122.41910      0.10896532E-004
     1126.09052      0.13856190E-004
     1129.76194      0.28643434E-004
     1133.43336      0.63833334E-004
     1137.10478      0.13461041E-003
     1140.77621      0.26239415E-003
     1144.44763      0.47104274E-003
     1148.11905      0.77829930E-003
     1151.79047      0.11835269E-002
     1155.46189      0.16563885E-002
     1159.13332      0.21337372E-002
     1162.80474      0.25307590E-002
     1166.47616      0.27664631E-002
     1170.14758      0.27959463E-002
     1173.81900      0.26381428E-002
     1177.49043      0.23917584E-002
     1181.16185      0.22411985E-002
     1184.83327      0.24598442E-002
     1188.50469      0.34115519E-002
     1192.17611      0.55330037E-002
     1195.84754      0.92630172E-002
     1199.51896      0.14891764E-001
     1203.19038      0.22346943E-001
     1206.86180      0.31002129E-001
     1210.53323      0.39638761E-001
     1214.20465      0.46663453E-001
     1217.87607      0.50562350E-001
     1221.54749      0.50423013E-001
     1225.21891      0.46277315E-001
     1228.89034      0.39087791E-001
     1232.56176      0.30384101E-001
     1236.23318      0.21736195E-001
     1239.90460      0.14310421E-001
     1243.57602      0.86706765E-002
     1247.24745      0.48348750E-002
     1250.91887      0.24811282E-002
     1254.59029      0.11717766E-002
     1258.26171      0.50929822E-003
     1261.93313      0.20371882E-003
     1265.60456      0.74993192E-004
     1269.27598      0.25406463E-004
     1272.94740      0.79213326E-005
     1276.61882      0.22729191E-005
     1280.29025      0.60020746E-006
     1283.96167      0.14586479E-006
     1287.63309      0.32623553E-007
     1291.30451      0.67149645E-008
     1294.97593      0.12720026E-008
     1298.64736      0.22175364E-009
     1302.31878      0.35608455E-010
     1305.99020      0.55029192E-011
     1309.66162      0.25496191E-011
     1313.33304      0.12501525E-010
     1317.00447      0.77243707E-010
     1320.67589      0.44227519E-009
     1324.34731      0.23308235E-008
     1328.01873      0.11304696E-007
     1331.69015      0.50459171E-007
     1335.36158      0.20727791E-006
     1339.03300      0.78360571E-006
     1342.70442      0.27263013E-005
     1346.37584      0.87293479E-005
     1350.04727      0.25722989E-004
     1353.71869      0.69757795E-004
     1357.39011      0.17409878E-003
     1361.06153      0.39988067E-003
     1364.73295      0.84527256E-003
     1368.40438      0.16443521E-002
     1372.07580      0.29439100E-002
     1375.74722      0.48504936E-002
     1379.41864      0.73549381E-002
     1383.09006      0.10263696E-001
     1386.76149      0.13181361E-001
     1390.43291      0.15579316E-001
     1394.10433      0.16946039E-001
     1397.77575      0.16963665E-001
     1401.44717      0.15627981E-001
     1405.11860      0.13250057E-001
     1408.79002      0.10338661E-001
     1412.46144      0.74240778E-002
     1416.13286      0.49062812E-002
     1419.80429      0.29839674E-002
     1423.47571      0.16701971E-002
     1427.14713      0.86035184E-003
     1430.81855      0.40789092E-003
     1434.48997      0.17807429E-003
     1438.16140      0.71941385E-004
     1441.83282      0.28116189E-004
     1445.50424      0.14497660E-004
     1449.17566      0.19317802E-004
     1452.84708      0.46737723E-004
     1456.51851      0.11913932E-003
     1460.18993      0.28670372E-003
     1463.86135      0.64314513E-003
     1467.53277      0.13427004E-002
     1471.20419      0.26070726E-002
     1474.87562      0.47045012E-002
     1478.54704      0.78830263E-002
     1482.21846      0.12254428E-001
     1485.88988      0.17656574E-001
     1489.56131      0.23557822E-001
     1493.23273      0.29080624E-001
     1496.90415      0.33187041E-001
     1500.57557      0.34988306E-001
     1504.24699      0.34056557E-001
     1507.91842      0.30590248E-001
     1511.58984      0.25346728E-001
     1515.26126      0.19374503E-001
     1518.93268      0.13677440E-001
     1522.60410      0.89607319E-002
     1526.27553      0.55418511E-002
     1529.94695      0.34128886E-002
     1533.61837      0.23759481E-002
     1537.28979      0.21679974E-002
     1540.96121      0.25301536E-002
     1544.63264      0.32239890E-002
     1548.30406      0.40263615E-002
     1551.97548      0.47354151E-002
     1555.64690      0.52006962E-002
     1559.31832      0.53650639E-002
     1562.98975      0.52907667E-002
     1566.66117      0.51452725E-002
     1570.33259      0.51416278E-002
     1574.00401      0.54519790E-002
     1577.67544      0.61287416E-002
     1581.34686      0.70683934E-002
     1585.01828      0.80377447E-002
     1588.68970      0.87571875E-002
     1592.36112      0.90095648E-002
     1596.03255      0.87290822E-002
     1599.70397      0.80312552E-002
     1603.37539      0.71711064E-002
     1607.04681      0.64494719E-002
     1610.71823      0.61087857E-002
     1614.38966      0.62599632E-002
     1618.06108      0.68638365E-002
     1621.73250      0.77654234E-002
     1625.40392      0.87589223E-002
     1629.07534      0.96529136E-002
     1632.74677      0.10310775E-001
     1636.41819      0.10657659E-001
     1640.08961      0.10664222E-001
     1643.76103      0.10327906E-001
     1647.43246      0.96682156E-002
     1651.10388      0.87365721E-002
     1654.77530      0.76260180E-002
     1658.44672      0.64635195E-002
     1662.11814      0.53799044E-002
     1665.78957      0.44700132E-002
     1669.46099      0.37647947E-002
     1673.13241      0.32310957E-002
     1676.80383      0.27985629E-002
     1680.47525      0.23981727E-002
     1684.14668      0.19930676E-002
     1687.81810      0.15907629E-002
     1691.48952      0.12395564E-002
     1695.16094      0.10218412E-002
     1698.83236      0.10570130E-002
     1702.50379      0.15164620E-002
     1706.17521      0.26372230E-002
     1709.84663      0.47071863E-002
     1713.51805      0.79938340E-002
     1717.18948      0.12609867E-001
     1720.86090      0.18352479E-001
     1724.53232      0.24598458E-001
     1728.20374      0.30348225E-001
     1731.87516      0.34459763E-001
     1735.54659      0.36010480E-001
     1739.21801      0.34632102E-001
     1742.88943      0.30652149E-001
     1746.56085      0.24967485E-001
     1750.23227      0.18716317E-001
     1753.90370      0.12912124E-001
     1757.57512      0.81979761E-002
     1761.24654      0.47901300E-002
     1764.91796      0.25758445E-002
     1768.58938      0.12747460E-002
     1772.26081      0.58057637E-003
     1775.93223      0.24334741E-003
     1779.60365      0.93869782E-004
     1783.27507      0.33323968E-004
     1786.94650      0.10887343E-004
     1790.61792      0.32739032E-005
     1794.28934      0.90778850E-006
     1797.96076      0.23969895E-006
     1801.63218      0.92028849E-007
     1805.30361      0.15863947E-006
     1808.97503      0.52595092E-006
     1812.64645      0.17172845E-005
     1816.31787      0.51805805E-005
     1819.98929      0.14386052E-004
     1823.66072      0.36765615E-004
     1827.33214      0.86471706E-004
     1831.00356      0.18717072E-003
     1834.67498      0.37284942E-003
     1838.34640      0.68353495E-003
     1842.01783      0.11532399E-002
     1845.68925      0.17906482E-002
     1849.36067      0.25587778E-002
     1853.03209      0.33650115E-002
     1856.70352      0.40726043E-002
     1860.37494      0.45361724E-002
     1864.04636      0.46498461E-002
     1867.71778      0.43865117E-002
     1871.38920      0.38083046E-002
     1875.06063      0.30428164E-002
     1878.73205      0.22374406E-002
     1882.40347      0.15141153E-002
     1886.07489      0.94297067E-003
     1889.74631      0.54046800E-003
     1893.41774      0.28509021E-003
     1897.08916      0.13842442E-003
     1900.76058      0.61975499E-004
     1904.43200      0.26021548E-004
     1908.10342      0.11849230E-004
     1911.77485      0.10958819E-004
     1915.44627      0.24960004E-004
     1919.11769      0.69322499E-004
     1922.78911      0.18354939E-003
     1926.46053      0.44891616E-003
     1930.13196      0.10108185E-002
     1933.80338      0.20947371E-002
     1937.47480      0.39950228E-002
     1941.14622      0.70119831E-002
     1944.81765      0.11326459E-001
     1948.48907      0.16837560E-001
     1952.16049      0.23035403E-001
     1955.83191      0.29003083E-001
     1959.50333      0.33606570E-001
     1963.17476      0.35837351E-001
     1966.84618      0.35170561E-001
     1970.51760      0.31765404E-001
     1974.18902      0.26403478E-001
     1977.86044      0.20197591E-001
     1981.53187      0.14219021E-001
     1985.20329      0.92123731E-002
     1988.87471      0.54929419E-002
     1992.54613      0.30141869E-002
     1996.21755      0.15221836E-002
     1999.88898      0.70744971E-003
     2003.56040      0.30259085E-003
     2007.23182      0.11910985E-003
     2010.90324      0.43149054E-004
     2014.57467      0.14385553E-004
     2018.24609      0.44138086E-005
     2021.91751      0.12463274E-005
     2025.58893      0.32387874E-006
     2029.26035      0.77457672E-007
     2032.93178      0.17048184E-007
     2036.60320      0.34532139E-008
     2040.27462      0.64372522E-009
     2043.94604      0.11043564E-009
     2047.61746      0.17436112E-010
     2051.28889      0.25335049E-011
     2054.96031      0.33878605E-012
     2058.63173      0.41692792E-013
     2062.30315      0.47220232E-014
     2065.97457      0.49218337E-015
     2069.64600      0.47212548E-016
     2073.31742      0.41679224E-017
     2076.98884      0.33862069E-018
     2080.66026      0.25318562E-019
     2084.33169      0.17421930E-020
     2088.00311      0.11032786E-021
     2091.67453      0.64299232E-023
     2095.34595      0.34487210E-024
     2099.01737      0.17023232E-025
     2102.68880      0.77331720E-027
     2106.36022      0.32329947E-028
     2110.03164      0.12438958E-029
     2113.70306      0.44044805E-031
     2117.37448      0.14352814E-032
     2121.04591      0.43043851E-034
     2124.71733      0.11880012E-035
     2128.38875      0.30175487E-037
     2132.06017      0.70538040E-039
     2135.73159      0.15174842E-040
     2139.40302      0.30043923E-042
     2143.07444      0.54742016E-044
     2146.74586      0.91794492E-046
     2150.41728      0.14165899E-047
     2154.08871      0.20118858E-049
     2157.76013      0.26296274E-051
     2161.43155      0.31631281E-053
     2165.10297      0.35016362E-055
     2168.77439      0.35674422E-057
     2172.44582      0.33448339E-059
     2176.11724      0.28861829E-061
     2179.78866      0.22919483E-063
     2183.46008      0.16750103E-065
     2187.13150      0.11265794E-067
     2190.80293      0.69732917E-070
     2194.47435      0.39723320E-072
     2198.14577      0.20824996E-074
     2201.81719      0.10047453E-076
     2205.48861      0.44612724E-079
     2209.16004      0.18230273E-081
     2212.83146      0.68558182E-084
     2216.50288      0.23727779E-086
     2220.17430      0.75576464E-089
     2223.84573      0.22153775E-091
     2227.51715      0.59764126E-094
     2231.18857      0.14837649E-096
     2234.85999      0.33901687E-099
     2238.53141      0.71286814E-102
     2242.20284      0.13795225E-104
     2245.87426      0.24568579E-107
     2249.54568      0.40268270E-110
     2253.21710      0.60740393E-113
     2256.88852      0.84318699E-116
     2260.55995      0.10772137E-118
     2264.23137       0.0000000     
     2267.90279       0.0000000     
     2271.57421       0.0000000     
     2275.24563       0.0000000     
     2278.91706       0.0000000     
     2282.58848       0.0000000     
     2286.25990       0.0000000     
     2289.93132       0.0000000     
     2293.60275       0.0000000     
     2297.27417       0.0000000     
     2300.94559       0.0000000     
     2304.61701       0.0000000     
     2308.28843       0.0000000     
     2311.95986       0.0000000     
     2315.63128       0.0000000     
     2319.30270       0.0000000     
     2322.97412       0.0000000     
     2326.64554       0.0000000     
     2330.31697       0.0000000     
     2333.98839       0.0000000     
     2337.65981       0.0000000     
     2341.33123       0.0000000     
     2345.00265       0.0000000     
     2348.67408       0.0000000     
     2352.34550       0.0000000     
     2356.01692       0.0000000     
     2359.68834       0.0000000     
     2363.35976       0.0000000     
     2367.03119       0.0000000     
     2370.70261       0.0000000     
     2374.37403       0.0000000     
     2378.04545       0.0000000     
     2381.71688       0.0000000     
     2385.38830       0.0000000     
     2389.05972       0.0000000     
     2392.73114       0.0000000     
     2396.40256       0.0000000     
     2400.07399       0.0000000     
     2403.74541       0.0000000     
     2407.41683       0.0000000     
     2411.08825       0.0000000     
     2414.75967       0.0000000     
     2418.43110       0.0000000     
     2422.10252       0.0000000     
     2425.77394       0.0000000     
     2429.44536       0.0000000     
     2433.11678       0.0000000     
     2436.78821       0.0000000     
     2440.45963       0.0000000     
     2444.13105       0.0000000     
     2447.80247       0.0000000     
     2451.47390       0.0000000     
     2455.14532       0.0000000     
     2458.81674       0.0000000     
     2462.48816       0.0000000     
     2466.15958       0.0000000     
     2469.83101       0.0000000     
     2473.50243       0.0000000     
     2477.17385       0.0000000     
     2480.84527       0.0000000     
     2484.51669       0.0000000     
     2488.18812       0.0000000     
     2491.85954       0.0000000     
     2495.53096       0.0000000     
     2499.20238       0.0000000     
     2502.87380       0.0000000     
     2506.54523       0.0000000     
     2510.21665       0.0000000     
     2513.88807       0.0000000     
     2517.55949       0.0000000     
     2521.23092       0.0000000     
     2524.90234       0.0000000     
     2528.57376       0.0000000     
     2532.24518       0.0000000     
     2535.91660       0.0000000     
     2539.58803       0.0000000     
     2543.25945       0.0000000     
     2546.93087       0.0000000     
     2550.60229       0.0000000     
     2554.27371       0.0000000     
     2557.94514       0.0000000     
     2561.61656       0.0000000     
     2565.28798       0.0000000     
     2568.95940       0.0000000     
     2572.63082       0.0000000     
     2576.30225       0.0000000     
     2579.97367       0.0000000     
     2583.64509       0.0000000     
     2587.31651       0.0000000     
     2590.98794       0.0000000     
     2594.65936       0.0000000     
     2598.33078       0.0000000     
     2602.00220       0.0000000     
     2605.67362       0.0000000     
     2609.34505       0.0000000     
     2613.01647       0.0000000     
     2616.68789       0.0000000     
     2620.35931       0.0000000     
     2624.03073       0.0000000     
     2627.70216       0.0000000     
     2631.37358       0.0000000     
     2635.04500       0.0000000     
     2638.71642       0.0000000     
     2642.38784       0.0000000     
     2646.05927       0.0000000     
     2649.73069       0.0000000     
     2653.40211       0.0000000     
     2657.07353       0.0000000     
     2660.74496       0.0000000     
     2664.41638       0.0000000     
     2668.08780       0.0000000     
     2671.75922       0.0000000     
     2675.43064       0.0000000     
     2679.10207       0.0000000     
     2682.77349       0.0000000     
     2686.44491       0.0000000     
     2690.11633       0.0000000     
     2693.78775       0.0000000     
     2697.45918       0.0000000     
     2701.13060       0.0000000     
     2704.80202       0.0000000     
     2708.47344       0.0000000     
     2712.14486       0.0000000     
     2715.81629       0.0000000     
     2719.48771       0.0000000     
     2723.15913       0.0000000     
     2726.83055       0.0000000     
     2730.50197       0.0000000     
     2734.17340       0.0000000     
     2737.84482       0.0000000     
     2741.51624       0.0000000     
     2745.18766       0.0000000     
     2748.85909       0.0000000     
     2752.53051       0.0000000     
     2756.20193       0.0000000     
     2759.87335       0.0000000     
     2763.54477       0.0000000     
     2767.21620       0.0000000     
     2770.88762       0.0000000     
     2774.55904       0.0000000     
     2778.23046       0.0000000     
     2781.90188       0.0000000     
     2785.57331       0.0000000     
     2789.24473       0.0000000     
     2792.91615       0.0000000     
     2796.58757       0.0000000     
     2800.25899       0.0000000     
     2803.93042       0.0000000     
     2807.60184       0.0000000     
     2811.27326       0.0000000     
     2814.94468       0.0000000     
     2818.61611       0.0000000     
     2822.28753       0.0000000     
     2825.95895       0.0000000     
     2829.63037       0.0000000     
     2833.30179       0.0000000     
     2836.97322       0.0000000     
     2840.64464       0.0000000     
     2844.31606       0.0000000     
     2847.98748       0.0000000     
     2851.65890       0.0000000     
     2855.33033       0.0000000     
     2859.00175       0.0000000     
     2862.67317       0.0000000     
     2866.34459      0.65054838E-123
     2870.01601      0.54647219E-120
     2873.68744      0.42246254E-117
     2877.35886      0.30056612E-114
     2881.03028      0.19679929E-111
     2884.70170      0.11858745E-108
     2888.37313      0.65763602E-106
     2892.04455      0.33563261E-103
     2895.71597      0.15764289E-100
     2899.38739      0.68142223E-098
     2903.05881      0.27107527E-095
     2906.73024      0.99241926E-093
     2910.40166      0.33437373E-090
     2914.07308      0.10368139E-087
     2917.74450      0.29587013E-085
     2921.41592      0.77702168E-083
     2925.08735      0.18780054E-080
     2928.75877      0.41772668E-078
     2932.43019      0.85510465E-076
     2936.10161      0.16109350E-073
     2939.77303      0.27929839E-071
     2943.44446      0.44564654E-069
     2947.11588      0.65440157E-067
     2950.78730      0.88436145E-065
     2954.45872      0.10998842E-062
     2958.13015      0.12589132E-060
     2961.80157      0.13261001E-058
     2965.47299      0.12855486E-056
     2969.14441      0.11469181E-054
     2972.81583      0.94169001E-053
     2976.48726      0.71156604E-051
     2980.15868      0.49482786E-049
     2983.83010      0.31668301E-047
     2987.50152      0.18652071E-045
     2991.17294      0.10110230E-043
     2994.84437      0.50434383E-042
     2998.51579      0.23153896E-040
     3002.18721      0.97825738E-039
     3005.85863      0.38037668E-037
     3009.53005      0.13611511E-035
     3013.20148      0.44826056E-034
     3016.87290      0.13585839E-032
     3020.54432      0.37894325E-031
     3024.21574      0.97273320E-030
     3027.88717      0.22979746E-028
     3031.55859      0.49960733E-027
     3035.23001      0.99964242E-026
     3038.90143      0.18407432E-024
     3042.57285      0.31194279E-023
     3046.24428      0.48650890E-022
     3049.91570      0.69830008E-021
     3053.58712      0.92242488E-020
     3057.25854      0.11214010E-018
     3060.92996      0.12546922E-017
     3064.60139      0.12920167E-016
     3068.27281      0.12245228E-015
     3071.94423      0.10682036E-014
     3075.61565      0.85775240E-014
     3079.28707      0.63407585E-013
     3082.95850      0.43158984E-012
     3086.62992      0.27056772E-011
     3090.30134      0.15629637E-010
     3093.97276      0.83251138E-010
     3097.64418      0.40931985E-009
     3101.31561      0.18606870E-008
     3104.98703      0.78393957E-008
     3108.65845      0.30721622E-007
     3112.32987      0.11255034E-006
     3116.00130      0.38805958E-006
     3119.67272      0.12694978E-005
     3123.34414      0.39745795E-005
     3127.01556      0.11996381E-004
     3130.68698      0.35042160E-004
     3134.35841      0.98973883E-004
     3138.02983      0.26885262E-003
     3141.70125      0.69675645E-003
     3145.37267      0.17079750E-002
     3149.04409      0.39299162E-002
     3152.71552      0.84361338E-002
     3156.38694      0.16819790E-001
     3160.05836      0.31049788E-001
     3163.72978      0.52959189E-001
     3167.40120      0.83341722E-001
     3171.07263      0.12090009     
     3174.74405      0.16157643     
     3178.41547      0.19886221     
     3182.08689      0.22534296     
     3185.75832      0.23506387     
     3189.42974      0.22570176     
     3193.10116      0.19946366     
     3196.77258      0.16223888     
     3200.44400      0.12144993     
     3204.11543      0.83672683E-001
     3207.78685      0.53052971E-001
     3211.45827      0.30957968E-001
     3215.12969      0.16625322E-001
     3218.80111      0.82167751E-002
     3222.47254      0.37373668E-002
     3226.14396      0.15644531E-002
     3229.81538      0.60268668E-003
     3233.48680      0.21367448E-003
     3237.15822      0.69718109E-004
     3240.82965      0.20934875E-004
     3244.50107      0.57853137E-005
     3248.17249      0.14713473E-005
     3251.84391      0.34437783E-006
     3255.51534      0.74180008E-007
     3259.18676      0.14705178E-007
     3262.85818      0.26827818E-008
     3266.52960      0.45043501E-009
     3270.20102      0.69600217E-010
     3273.87245      0.98973913E-011
     3277.54387      0.12952767E-011
     3281.21529      0.15600412E-012
     3284.88671      0.17291843E-013
     3288.55813      0.17639170E-014
     3292.22956      0.16559481E-015
     3295.90098      0.14306947E-016
     3299.57240      0.11375720E-017
     3303.24382      0.83241997E-019
     3306.91524      0.56058024E-020
     3310.58667      0.34742795E-021
     3314.25809      0.19816338E-022
     3317.92951      0.10401926E-023
     3321.60093      0.50249966E-025
     3325.27236      0.22340324E-026
     3328.94378      0.91406032E-028
     3332.61520      0.34418499E-029
     3336.28662      0.11927260E-030
     3339.95804      0.38038301E-032
     3343.62947      0.11164344E-033
     3347.30089      0.30156228E-035
     3350.97231      0.74963956E-037
     3354.64373      0.17149824E-038
     3358.31515      0.36107590E-040
     3361.98658      0.69963097E-042
     3365.65800      0.12475881E-043
     3369.32942      0.20474114E-045
     3373.00084      0.30922223E-047
     3376.67226      0.42980153E-049
     3380.34369      0.54979007E-051
     3384.01511      0.64722833E-053
     3387.68653      0.70121277E-055
     3391.35795      0.69915554E-057
     3395.02938      0.64154847E-059
     3398.70080      0.54177233E-061
     3402.37222      0.42105212E-063
     3406.04364      0.30115257E-065
     3409.71506      0.19822981E-067
     3413.38649      0.12008342E-069
     3417.05791      0.66946643E-072
     3420.72933      0.34348379E-074
     3424.40075      0.16218675E-076
     3428.07217      0.70478424E-079
     3431.74360      0.28185690E-081
     3435.41502      0.10373680E-083
     3439.08644      0.35137326E-086
     3442.75786      0.10953080E-088
     3446.42928      0.31422119E-091
     3450.10071      0.82959547E-094
     3453.77213      0.20157142E-096
     3457.44355      0.45073702E-099
     3461.11497      0.92757530E-102
     3464.78639      0.17567372E-104
     3468.45782      0.30619361E-107
     3472.12924      0.49115336E-110
     3475.80066      0.72505308E-113
     3479.47208      0.98504067E-116
     3483.14351      0.12316015E-118
     3486.81493       0.0000000     
     3490.48635       0.0000000     
     3494.15777       0.0000000     
     3497.82919       0.0000000     
     3501.50062      0.17410047E-120
     3505.17204      0.14217422E-117
     3508.84346      0.10684973E-114
     3512.51488      0.73902261E-112
     3516.18630      0.47040690E-109
     3519.85773      0.27556326E-106
     3523.52915      0.14855957E-103
     3527.20057      0.73707494E-101
     3530.87199      0.33655367E-098
     3534.54341      0.14142582E-095
     3538.21484      0.54693379E-093
     3541.88626      0.19465811E-090
     3545.55768      0.63759060E-088
     3549.22910      0.19219541E-085
     3552.90053      0.53318238E-083
     3556.57195      0.13612574E-080
     3560.24337      0.31984267E-078
     3563.91479      0.69161472E-076
     3567.58621      0.13763337E-073
     3571.25764      0.25206638E-071
     3574.92906      0.42485214E-069
     3578.60048      0.65901055E-067
     3582.27190      0.94075949E-065
     3585.94332      0.12359376E-062
     3589.61475      0.14943287E-060
     3593.28617      0.16627518E-058
     3596.95759      0.17027088E-056
     3600.62901      0.16046675E-054
     3604.30043      0.13917505E-052
     3607.97186      0.11108857E-050
     3611.64328      0.81603558E-049
     3615.31470      0.55167141E-047
     3618.98612      0.34322866E-045
     3622.65755      0.19652522E-043
     3626.32897      0.10355825E-041
     3630.00039      0.50220708E-040
     3633.67181      0.22413652E-038
     3637.34323      0.92060663E-037
     3641.01466      0.34799039E-035
     3644.68608      0.12105761E-033
     3648.35750      0.38756863E-032
     3652.02892      0.11419230E-030
     3655.70034      0.30963975E-029
     3659.37177      0.77269532E-028
     3663.04319      0.17745635E-026
     3666.71461      0.37506494E-025
     3670.38603      0.72954669E-024
     3674.05745      0.13059646E-022
     3677.72888      0.21515001E-021
     3681.40030      0.32619931E-020
     3685.07172      0.45515192E-019
     3688.74314      0.58446891E-018
     3692.41457      0.69071379E-017
     3696.08599      0.75121892E-016
     3699.75741      0.75191127E-015
     3703.42883      0.69262530E-014
     3707.10025      0.58716721E-013
     3710.77168      0.45809644E-012
     3714.44310      0.32891503E-011
     3718.11452      0.21734128E-010
     3721.78594      0.13216985E-009
     3725.45736      0.73969764E-009
     3729.12879      0.38098491E-008
     3732.80021      0.18058971E-007
     3736.47163      0.78778896E-007
     3740.14305      0.31627034E-006
     3743.81447      0.11685270E-005
     3747.48590      0.39732938E-005
     3751.15732      0.12433526E-004
     3754.82874      0.35807139E-004
     3758.50016      0.94902274E-004
     3762.17159      0.23148097E-003
     3765.84301      0.51961976E-003
     3769.51443      0.10734645E-002
     3773.18585      0.20408987E-002
     3776.85727      0.35709757E-002
     3780.52870      0.57502150E-002
     3784.20012      0.85214426E-002
     3787.87154      0.11621823E-001
     3791.54296      0.14587075E-001
     3795.21438      0.16849878E-001
     3798.88581      0.17912845E-001
     3802.55723      0.17526041E-001
     3806.22865      0.15782878E-001
     3809.90007      0.13084412E-001
     3813.57149      0.99908492E-002
     3817.24292      0.70353724E-002
     3820.91434      0.45839577E-002
     3824.58576      0.27866538E-002
     3828.25718      0.16126649E-002
     3831.92860      0.92765917E-003
     3835.60003      0.56959551E-003
     3839.27145      0.39836628E-003
     3842.94287      0.31608573E-003
     3846.61429      0.26720200E-003
     3850.28572      0.22989306E-003
     3853.95714      0.20736204E-003
     3857.62856      0.22417428E-003
     3861.29998      0.33004220E-003
     3864.97140      0.61048656E-003
     3868.64283      0.11993598E-002
     3872.31425      0.22827301E-002
     3875.98567      0.40802384E-002
     3879.65709      0.67939454E-002
     3883.32851      0.10529578E-001
     3886.99994      0.15217564E-001
     3890.67136      0.20577875E-001
     3894.34278      0.26165852E-001
     3898.01420      0.31498548E-001
     3901.68562      0.36209255E-001
     3905.35705      0.40147319E-001
     3909.02847      0.43361434E-001
     3912.69989      0.45972569E-001
     3916.37131      0.48014516E-001
     3920.04274      0.49343603E-001
     3923.71416      0.49675333E-001
     3927.38558      0.48724578E-001
     3931.05700      0.46363502E-001
     3934.72842      0.42707105E-001
     3938.39985      0.38087328E-001
     3942.07127      0.32944233E-001
     3945.74269      0.27703081E-001
     3949.41411      0.22698614E-001
     3953.08553      0.18165583E-001
     3956.75696      0.14270358E-001
     3960.42838      0.11140461E-001
     3964.09980      0.88628936E-002
     3967.77122      0.74525557E-002
     3971.44264      0.68166609E-002
     3975.11407      0.67462157E-002
     3978.78549      0.69511883E-002
     3982.45691      0.71319077E-002
     3986.12833      0.70589225E-002
     3989.79976      0.66279198E-002
     3993.47118      0.58683732E-002
     3997.14260      0.49071605E-002
     4000.81402      0.39081090E-002
     4004.48544      0.30146899E-002
     4008.15687      0.23150645E-002
     4011.82829      0.18342442E-002
     4015.49971      0.15465988E-002
     4019.17113      0.13976728E-002
     4022.84255      0.13258787E-002
     4026.51398      0.12785290E-002
     4030.18540      0.12202869E-002
     4033.85682      0.11346519E-002
     4037.52824      0.10205452E-002
     4041.19966      0.88652986E-003
     4044.87109      0.74489273E-003
     4048.54251      0.60707264E-003
     4052.21393      0.48112138E-003
     4055.88535      0.37116772E-003
     4059.55678      0.27828747E-003
     4063.22820      0.20188141E-003
     4066.89962      0.14076476E-003
     4070.57104      0.93617923E-004
     4074.24246      0.58942081E-004
     4077.91389      0.34899969E-004
     4081.58531      0.19329764E-004
     4085.25673      0.99731638E-005
     4088.92815      0.47786566E-005
     4092.59957      0.21216244E-005
     4096.27100      0.87139530E-006
     4099.94242      0.33070173E-006
     4103.61384      0.11586772E-006
     4107.28526      0.37456023E-007
     4110.95668      0.11166360E-007
     4114.62811      0.30688705E-008
     4118.29953      0.77732596E-009
     4121.97095      0.18142303E-009
     4125.64237      0.39014921E-010
     4129.31380      0.77767356E-011
     4132.98522      0.18121193E-011
     4136.65664      0.31889645E-011
     4140.32806      0.19953582E-010
     4143.99948      0.12366632E-009
     4147.67091      0.70660296E-009
     4151.34233      0.37157684E-008
     4155.01375      0.17982658E-007
     4158.68517      0.80092316E-007
     4162.35659      0.32829139E-006
     4166.02802      0.12383968E-005
     4169.69944      0.42992412E-005
     4173.37086      0.13735849E-004
     4177.04228      0.40387862E-004
     4180.71370      0.10928937E-003
     4184.38513      0.27216774E-003
     4188.05655      0.62377371E-003
     4191.72797      0.13156766E-002
     4195.39939      0.25538944E-002
     4199.07081      0.45623480E-002
     4202.74224      0.75007648E-002
     4206.41366      0.11348916E-001
     4210.08508      0.15802831E-001
     4213.75650      0.20251028E-001
     4217.42793      0.23883114E-001
     4221.09935      0.25921881E-001
     4224.77077      0.25892486E-001
     4228.44219      0.23801957E-001
     4232.11361      0.20136467E-001
     4235.78504      0.15677816E-001
     4239.45646      0.11233615E-001
     4243.12788      0.74077305E-002
     4246.79930      0.44955466E-002
     4250.47072      0.25107966E-002
     4254.14215      0.12905422E-002
     4257.81357      0.61047039E-003
     4261.48499      0.26575942E-003
     4265.15641      0.10647421E-003
     4268.82783      0.39258331E-004
     4272.49926      0.13321433E-004
     4276.17068      0.41600805E-005
     4279.84210      0.11955953E-005
     4283.51352      0.31622658E-006
     4287.18495      0.76974027E-007
     4290.85637      0.17243353E-007
     4294.52779      0.35549290E-008
     4298.19921      0.67448426E-009
     4301.87063      0.11777263E-009
     4305.54206      0.18925556E-010
     4309.21348      0.27988819E-011
     4312.88490      0.38093615E-012
