      497.28530      0.22902796E-004
      501.09394      0.20399821E-004
      504.90257      0.18327510E-004
      508.71121      0.17301011E-004
      512.51984      0.17609454E-004
      516.32848      0.19113130E-004
      520.13711      0.21320024E-004
      523.94575      0.23571033E-004
      527.75438      0.25239665E-004
      531.56302      0.25879607E-004
      535.37166      0.25297866E-004
      539.18029      0.23560372E-004
      542.98893      0.20943960E-004
      546.79756      0.17848592E-004
      550.60620      0.14691929E-004
      554.41483      0.11821094E-004
      558.22347      0.94754622E-005
      562.03210      0.78102563E-005
      565.84074      0.69570854E-005
      569.64937      0.70784754E-005
      573.45801      0.83793831E-005
      577.26665      0.11059192E-004
      581.07528      0.15208064E-004
      584.88392      0.20671239E-004
      588.69255      0.26932272E-004
      592.50119      0.33093670E-004
      596.30982      0.38027037E-004
      600.11846      0.40694272E-004
      603.92709      0.40528281E-004
      607.73573      0.37686398E-004
      611.54436      0.33028634E-004
      615.35300      0.27817616E-004
      619.16164      0.23286848E-004
      622.97027      0.20272870E-004
      626.77891      0.19038391E-004
      630.58754      0.19304458E-004
      634.39618      0.20443607E-004
      638.20481      0.21775406E-004
      642.01345      0.22902903E-004
      645.82208      0.23996666E-004
      649.63072      0.25894185E-004
      653.43936      0.29893867E-004
      657.24799      0.37221878E-004
      661.05663      0.48318042E-004
      664.86526      0.62248698E-004
      668.67390      0.76601722E-004
      672.48253      0.88064228E-004
      676.29117      0.93545635E-004
      680.09980      0.91362390E-004
      683.90844      0.81894273E-004
      687.71708      0.67378554E-004
      691.52571      0.50983044E-004
      695.33435      0.35668958E-004
      699.14298      0.23380314E-004
      702.95162      0.14812237E-004
      706.76025      0.96617533E-005
      710.56889      0.70817260E-005
      714.37752      0.60913430E-005
      718.18616      0.58367668E-005
      721.99479      0.57112972E-005
      725.80343      0.53823664E-005
      729.61207      0.47596353E-005
      733.42070      0.39223921E-005
      737.22934      0.30261093E-005
      741.03797      0.22166042E-005
      744.84661      0.15779161E-005
      748.65524      0.11230977E-005
      752.46388      0.81690542E-006
      756.27251      0.60899920E-006
      760.08115      0.45960302E-006
      763.88979      0.35083430E-006
      767.69842      0.28728701E-006
      771.50706      0.29348068E-006
      775.31569      0.41306681E-006
      779.12433      0.70828123E-006
      782.93296      0.12524356E-005
      786.74160      0.21076013E-005
      790.55023      0.32868031E-005
      794.35887      0.47134360E-005
      798.16750      0.62023522E-005
      801.97614      0.74858231E-005
      805.78478      0.82877354E-005
      809.59341      0.84195471E-005
      813.40205      0.78522193E-005
      817.21068      0.67265130E-005
      821.01932      0.52972341E-005
      824.82795      0.38434521E-005
      828.63659      0.25931781E-005
      832.44522      0.17016983E-005
      836.25386      0.13013713E-005
      840.06250      0.16241439E-005
      843.87113      0.31875299E-005
      847.67977      0.70111644E-005
      851.48840      0.14772297E-004
      855.29704      0.28724933E-004
      859.10567      0.51170299E-004
      862.91431      0.83389053E-004
      866.72294      0.12428363E-003
      870.53158      0.16939855E-003
      874.34021      0.21115038E-003
      878.14885      0.24069084E-003
      881.95749      0.25090692E-003
      885.76612      0.23919441E-003
      889.57476      0.20853297E-003
      893.38339      0.16625846E-003
      897.19203      0.12122106E-003
      901.00066      0.80827236E-004
      904.80930      0.49285900E-004
      908.61793      0.27483559E-004
      912.42657      0.14015499E-004
      916.23520      0.65362626E-005
      920.04384      0.27876358E-005
      923.85248      0.10872555E-005
      927.66111      0.38784649E-006
      931.46975      0.12669976E-006
      935.27838      0.38517491E-007
      939.08702      0.13018776E-007
      942.89565      0.11221022E-007
      946.70429      0.25708503E-007
      950.51292      0.66824449E-007
      954.32156      0.16198043E-006
      958.13020      0.35962508E-006
      961.93883      0.73025708E-006
      965.74747      0.13560980E-005
      969.55610      0.23029898E-005
      973.36474      0.35766652E-005
      977.17337      0.50798382E-005
      980.98201      0.65979161E-005
      984.79064      0.78369850E-005
      988.59928      0.85128808E-005
      992.40792      0.84564760E-005
      996.21655      0.76822364E-005
     1000.02519      0.63822167E-005
     1003.83382      0.48488932E-005
     1007.64246      0.33690741E-005
     1011.45109      0.21410991E-005
     1015.25973      0.12457113E-005
     1019.06836      0.66744324E-006
     1022.87700      0.34175004E-006
     1026.68563      0.20249471E-006
     1030.49427      0.21717088E-006
     1034.30291      0.40966586E-006
     1038.11154      0.87329033E-006
     1041.92018      0.17697959E-005
     1045.72881      0.33004083E-005
     1049.53745      0.56342375E-005
     1053.34608      0.87976756E-005
     1057.15472      0.12563343E-004
     1060.96335      0.16407196E-004
     1064.77199      0.19595292E-004
     1068.58063      0.21402075E-004
     1072.38926      0.21376967E-004
     1076.19790      0.19526392E-004
     1080.00653      0.16311107E-004
     1083.81517      0.12460355E-004
     1087.62380      0.87048947E-005
     1091.43244      0.55614446E-005
     1095.24107      0.32496647E-005
     1099.04971      0.17377201E-005
     1102.85834      0.85416248E-006
     1106.66698      0.39834814E-006
     1110.47562      0.21286390E-006
     1114.28425      0.21715989E-006
     1118.09289      0.42000809E-006
     1121.90152      0.92589243E-006
     1125.71016      0.19345469E-005
     1129.51879      0.37149534E-005
     1133.32743      0.65284342E-005
     1137.13606      0.10492774E-004
     1140.94470      0.15422771E-004
     1144.75333      0.20731014E-004
     1148.56197      0.25483798E-004
     1152.37061      0.28647930E-004
     1156.17924      0.29451566E-004
     1159.98788      0.27689298E-004
     1163.79651      0.23807527E-004
     1167.60515      0.18722354E-004
     1171.41378      0.13472448E-004
     1175.22242      0.88884482E-005
     1179.03105      0.54222932E-005
     1182.83969      0.31679250E-005
     1186.64833      0.20038038E-005
     1190.45696      0.17523202E-005
     1194.26560      0.22776158E-005
     1198.07423      0.34948789E-005
     1201.88287      0.53098463E-005
     1205.69150      0.75359539E-005
     1209.50014      0.98462365E-005
     1213.30877      0.11803263E-004
     1217.11741      0.12971358E-004
     1220.92604      0.13065489E-004
     1224.73468      0.12060976E-004
     1228.54332      0.10202942E-004
     1232.35195      0.79090471E-005
     1236.16059      0.56175458E-005
     1239.96922      0.36556021E-005
     1243.77786      0.21793436E-005
     1247.58649      0.11901745E-005
     1251.39513      0.59535588E-006
     1255.20376      0.27276368E-006
     1259.01240      0.11444666E-006
     1262.82104      0.43973369E-007
     1266.62967      0.15470712E-007
     1270.43831      0.49834453E-008
     1274.24694      0.14696501E-008
     1278.05558      0.39676220E-009
     1281.86421      0.98049953E-010
     1285.67285      0.22178662E-010
     1289.48148      0.45916180E-011
     1293.29012      0.86998505E-012
     1297.09875      0.15085099E-012
     1300.90739      0.23935983E-013
     1304.71603      0.34754185E-014
     1308.52466      0.46243857E-015
     1312.33330      0.63175218E-016
     1316.14193      0.68691422E-016
     1319.95057      0.50654783E-015
     1323.75920      0.37494668E-014
     1327.56784      0.25423192E-013
     1331.37647      0.15773410E-012
     1335.18511      0.89558942E-012
     1338.99375      0.46542917E-011
     1342.80238      0.22143695E-010
     1346.61102      0.96473841E-010
     1350.41965      0.38500619E-009
     1354.22829      0.14079562E-008
     1358.03692      0.47203270E-008
     1361.84556      0.14516200E-007
     1365.65419      0.40974187E-007
     1369.46283      0.10623505E-006
     1373.27146      0.25321787E-006
     1377.08010      0.55539432E-006
     1380.88874      0.11221097E-005
     1384.69737      0.20905640E-005
     1388.50601      0.35954608E-005
     1392.31464      0.57141619E-005
     1396.12328      0.83993702E-005
     1399.93191      0.11427235E-004
     1403.74055      0.14395540E-004
     1407.54918      0.16794587E-004
     1411.35782      0.18142263E-004
     1415.16646      0.18138096E-004
     1418.97509      0.16770955E-004
     1422.78373      0.14328357E-004
     1426.59236      0.11299781E-004
     1430.40100      0.82178998E-005
     1434.20963      0.55090009E-005
     1438.01827      0.34116479E-005
     1441.82690      0.19821604E-005
     1445.63554      0.11647343E-005
     1449.44418      0.88477404E-006
     1453.25281      0.11276191E-005
     1457.06145      0.19774038E-005
     1460.87008      0.36001687E-005
     1464.67872      0.61634437E-005
     1468.48735      0.97034569E-005
     1472.29599      0.13985868E-004
     1476.10462      0.18438714E-004
     1479.91326      0.22231838E-004
     1483.72189      0.24513708E-004
     1487.53053      0.24718876E-004
     1491.33917      0.22794723E-004
     1495.14780      0.19223277E-004
     1498.95644      0.14825774E-004
     1502.76507      0.10458124E-004
     1506.57371      0.67514872E-005
     1510.38234      0.40016735E-005
     1514.19098      0.22140093E-005
     1517.99961      0.12372433E-005
     1521.80825      0.90522713E-006
     1525.61688      0.11329041E-005
     1529.42552      0.19475677E-005
     1533.23416      0.34558874E-005
     1537.04279      0.57561701E-005
     1540.85143      0.88195044E-005
     1544.66006      0.12387273E-004
     1548.46870      0.15948215E-004
     1552.27733      0.18838632E-004
     1556.08597      0.20447755E-004
     1559.89460      0.20439592E-004
     1563.70324      0.18877403E-004
     1567.51188      0.16186212E-004
     1571.32051      0.12982589E-004
     1575.12915      0.98715214E-005
     1578.93778      0.73090023E-005
     1582.74642      0.55670888E-005
     1586.55505      0.47694620E-005
     1590.36369      0.49382234E-005
     1594.17232      0.60144942E-005
     1597.98096      0.78583685E-005
     1601.78959      0.10260915E-004
     1605.59823      0.12991366E-004
     1609.40687      0.15864093E-004
     1613.21550      0.18775607E-004
     1617.02414      0.21668529E-004
     1620.83277      0.24433944E-004
     1624.64141      0.26826302E-004
     1628.45004      0.28476257E-004
     1632.25868      0.29023297E-004
     1636.06731      0.28295854E-004
     1639.87595      0.26420777E-004
     1643.68459      0.23788056E-004
     1647.49322      0.20894769E-004
     1651.30186      0.18165018E-004
     1655.11049      0.15840267E-004
     1658.91913      0.13974416E-004
     1662.72776      0.12507324E-004
     1666.53640      0.11368696E-004
     1670.34503      0.10576315E-004
     1674.15367      0.10309001E-004
     1677.96231      0.10936623E-004
     1681.77094      0.12982374E-004
     1685.57958      0.16994521E-004
     1689.38821      0.23329380E-004
     1693.19685      0.31893935E-004
     1697.00548      0.41947642E-004
     1700.81412      0.52085191E-004
     1704.62275      0.60481274E-004
     1708.43139      0.65369513E-004
     1712.24002      0.65596328E-004
     1716.04866      0.61017532E-004
     1719.85730      0.52552198E-004
     1723.66593      0.41863648E-004
     1727.47457      0.30814538E-004
     1731.28320      0.20936774E-004
     1735.09184      0.13117918E-004
     1738.90047      0.75717578E-005
     1742.70911      0.40225367E-005
     1746.51774      0.19651536E-005
     1750.32638      0.88214571E-006
     1754.13502      0.36359769E-006
     1757.94365      0.13751969E-006
     1761.75229      0.47701783E-007
     1765.56092      0.15168938E-007
     1769.36956      0.44259693E-008
     1773.17819      0.12122730E-008
     1776.98683      0.43518625E-009
     1780.79546      0.66580737E-009
     1784.60410      0.22636116E-008
     1788.41273      0.77045308E-008
     1792.22137      0.24107160E-007
     1796.03001      0.69001084E-007
     1799.83864      0.18061671E-006
     1803.64728      0.43236013E-006
     1807.45591      0.94649579E-006
     1811.26455      0.18948596E-005
     1815.07318      0.34691311E-005
     1818.88182      0.58083089E-005
     1822.69045      0.88933218E-005
     1826.49909      0.12452703E-004
     1830.30772      0.15945882E-004
     1834.11636      0.18673202E-004
     1837.92500      0.19997438E-004
     1841.73363      0.19584624E-004
     1845.54227      0.17540478E-004
     1849.35090      0.14366564E-004
     1853.15954      0.10760928E-004
     1856.96817      0.73710928E-005
     1860.77681      0.46174194E-005
     1864.58544      0.26451608E-005
     1868.39408      0.13857668E-005
     1872.20272      0.66391663E-006
     1876.01135      0.29088562E-006
     1879.81999      0.11655109E-006
     1883.62862      0.42706807E-007
     1887.43726      0.14311555E-007
     1891.24589      0.43901801E-008
     1895.05453      0.12527405E-008
     1898.86316      0.42318795E-009
     1902.67180      0.52461689E-009
     1906.48043      0.17330956E-008
     1910.28907      0.59856056E-008
     1914.09771      0.19060072E-007
     1917.90634      0.55529883E-007
     1921.71498      0.14795361E-006
     1925.52361      0.36050420E-006
     1929.33225      0.80330496E-006
     1933.14088      0.16369517E-005
     1936.94952      0.30505393E-005
     1940.75815      0.51987948E-005
     1944.56679      0.81024069E-005
     1948.37543      0.11548105E-004
     1952.18406      0.15051949E-004
     1955.99270      0.17941554E-004
     1959.80133      0.19557470E-004
     1963.60997      0.19496229E-004
     1967.41860      0.17773538E-004
     1971.22724      0.14817757E-004
     1975.03587      0.11297344E-004
     1978.84451      0.78769039E-005
     1982.65314      0.50225014E-005
     1986.46178      0.29286664E-005
     1990.27042      0.15617267E-005
     1994.07905      0.76159749E-006
     1997.88769      0.33964973E-006
     2001.69632      0.13852315E-006
     2005.50496      0.51665278E-007
     2009.31359      0.17622215E-007
     2013.12223      0.54967694E-008
     2016.93086      0.15679776E-008
     2020.73950      0.40903223E-009
     2024.54814      0.97579930E-010
     2028.35677      0.21288683E-010
     2032.16541      0.42473925E-011
     2035.97404      0.77496362E-012
     2039.78268      0.12930805E-012
     2043.59131      0.19731273E-013
     2047.39995      0.27534041E-014
     2051.20858      0.35137442E-015
     2055.01722      0.41006776E-016
     2058.82586      0.43764950E-017
     2062.63449      0.42715211E-018
     2066.44313      0.38126241E-019
     2070.25176      0.31120799E-020
     2074.06040      0.23230727E-021
     2077.86903      0.15858430E-022
     2081.67767      0.99001751E-024
     2085.48630      0.56521136E-025
     2089.29494      0.29509660E-026
     2093.10357      0.14089735E-027
     2096.91221      0.61521482E-029
     2100.72085      0.24566091E-030
     2104.52948      0.89707888E-032
     2108.33812      0.29957842E-033
     2112.14675      0.91490444E-035
     2115.95539      0.25552080E-036
     2119.76402      0.65262258E-038
     2123.57266      0.15243449E-039
     2127.38129      0.32560398E-041
     2131.18993      0.63603570E-043
     2134.99856      0.11362099E-044
     2138.80720      0.18561839E-046
     2142.61584      0.27731204E-048
     2146.42447      0.37888007E-050
     2150.23311      0.47339112E-052
     2154.04174      0.54090846E-054
     2157.85038      0.56521380E-056
     2161.65901      0.54011601E-058
     2165.46765      0.47200507E-060
     2169.27628      0.37721729E-062
     2173.08492      0.27569052E-064
     2176.89356      0.18426268E-066
     2180.70219      0.11262589E-068
     2184.51083      0.62954160E-071
     2188.31946      0.32180733E-073
     2192.12810      0.15043633E-075
     2195.93673      0.64312422E-078
     2199.74537      0.25143302E-080
     2203.55400      0.89894902E-083
     2207.36264      0.29392270E-085
     2211.17127      0.87885356E-088
     2214.97991      0.24031740E-090
     2218.78855      0.60095123E-093
     2222.59718      0.13742905E-095
     2226.40582      0.28741088E-098
     2230.21445      0.54968407E-101
     2234.02309      0.96140953E-104
     2237.83172      0.15377616E-106
     2241.64036      0.22493390E-109
     2245.44899      0.30088887E-112
     2249.25763      0.36808036E-115
     2253.06627      0.41177928E-118
     2256.87490      0.42128078E-121
     2260.68354      0.39415235E-124
     2264.49217       0.0000000     
     2268.30081       0.0000000     
     2272.10944       0.0000000     
     2275.91808       0.0000000     
     2279.72671       0.0000000     
     2283.53535       0.0000000     
     2287.34398       0.0000000     
     2291.15262       0.0000000     
     2294.96126       0.0000000     
     2298.76989       0.0000000     
     2302.57853       0.0000000     
     2306.38716       0.0000000     
     2310.19580       0.0000000     
     2314.00443       0.0000000     
     2317.81307       0.0000000     
     2321.62170       0.0000000     
     2325.43034       0.0000000     
     2329.23898       0.0000000     
     2333.04761       0.0000000     
     2336.85625       0.0000000     
     2340.66488       0.0000000     
     2344.47352       0.0000000     
     2348.28215       0.0000000     
     2352.09079       0.0000000     
     2355.89942       0.0000000     
     2359.70806       0.0000000     
     2363.51670       0.0000000     
     2367.32533       0.0000000     
     2371.13397       0.0000000     
     2374.94260       0.0000000     
     2378.75124       0.0000000     
     2382.55987       0.0000000     
     2386.36851       0.0000000     
     2390.17714       0.0000000     
     2393.98578       0.0000000     
     2397.79441       0.0000000     
     2401.60305       0.0000000     
     2405.41169       0.0000000     
     2409.22032       0.0000000     
     2413.02896       0.0000000     
     2416.83759       0.0000000     
     2420.64623       0.0000000     
     2424.45486       0.0000000     
     2428.26350       0.0000000     
     2432.07213       0.0000000     
     2435.88077       0.0000000     
     2439.68941       0.0000000     
     2443.49804       0.0000000     
     2447.30668       0.0000000     
     2451.11531       0.0000000     
     2454.92395       0.0000000     
     2458.73258       0.0000000     
     2462.54122       0.0000000     
     2466.34985       0.0000000     
     2470.15849       0.0000000     
     2473.96712       0.0000000     
     2477.77576       0.0000000     
     2481.58440       0.0000000     
     2485.39303       0.0000000     
     2489.20167       0.0000000     
     2493.01030       0.0000000     
     2496.81894       0.0000000     
     2500.62757       0.0000000     
     2504.43621       0.0000000     
     2508.24484       0.0000000     
     2512.05348       0.0000000     
     2515.86211       0.0000000     
     2519.67075       0.0000000     
     2523.47939       0.0000000     
     2527.28802       0.0000000     
     2531.09666       0.0000000     
     2534.90529       0.0000000     
     2538.71393       0.0000000     
     2542.52256       0.0000000     
     2546.33120       0.0000000     
     2550.13983      0.12261815E-122
     2553.94847      0.12826256E-119
     2557.75711      0.12269598E-116
     2561.56574      0.10733618E-113
     2565.37438      0.85871134E-111
     2569.18301      0.62825159E-108
     2572.99165      0.42034444E-105
     2576.80028      0.25719489E-102
     2580.60892      0.14391454E-099
     2584.41755      0.73643145E-097
     2588.22619      0.34462383E-094
     2592.03482      0.14748355E-091
     2595.84346      0.57720114E-089
     2599.65210      0.20658372E-086
     2603.46073      0.67616132E-084
     2607.26937      0.20239038E-081
     2611.07800      0.55400632E-079
     2614.88664      0.13868353E-076
     2618.69527      0.31748293E-074
     2622.50391      0.66466250E-072
     2626.31254      0.12725278E-069
     2630.12118      0.22280181E-067
     2633.92982      0.35674300E-065
     2637.73845      0.52236915E-063
     2641.54709      0.69949545E-061
     2645.35572      0.85659903E-059
     2649.16436      0.95930251E-057
     2652.97299      0.98246909E-055
     2656.78163      0.92016884E-053
     2660.59026      0.78813655E-051
     2664.39890      0.61733475E-049
     2668.20754      0.44220668E-047
     2672.01617      0.28967778E-045
     2675.82481      0.17353632E-043
     2679.63344      0.95071623E-042
     2683.44208      0.47631772E-040
     2687.25071      0.21823675E-038
     2691.05935      0.91441711E-037
     2694.86798      0.35038549E-035
     2698.67662      0.12278158E-033
     2702.48525      0.39346455E-032
     2706.29389      0.11530903E-030
     2710.10253      0.30903407E-029
     2713.91116      0.75741640E-028
     2717.71980      0.16976508E-026
     2721.52843      0.34797444E-025
     2725.33707      0.65227635E-024
     2729.14570      0.11181530E-022
     2732.95434      0.17528960E-021
     2736.76297      0.25130226E-020
     2740.57161      0.32947460E-019
     2744.38024      0.39503247E-018
     2748.18888      0.43314068E-017
     2751.99752      0.43432064E-016
     2755.80615      0.39826970E-015
     2759.61479      0.33398687E-014
     2763.42342      0.25613376E-013
     2767.23206      0.17963443E-012
     2771.04069      0.11521198E-011
     2774.84933      0.67575772E-011
     2778.65796      0.36246803E-010
     2782.46660      0.17780080E-009
     2786.27524      0.79759613E-009
     2790.08387      0.32720330E-008
     2793.89251      0.12275456E-007
     2797.70114      0.42115590E-007
     2801.50978      0.13213975E-006
     2805.31841      0.37914851E-006
     2809.12705      0.99487969E-006
     2812.93568      0.23873555E-005
     2816.74432      0.52390064E-005
     2820.55296      0.10513954E-004
     2824.36159      0.19296056E-004
     2828.17023      0.32385926E-004
     2831.97886      0.49708358E-004
     2835.78750      0.69773069E-004
     2839.59613      0.89563602E-004
     2843.40477      0.10513821E-003
     2847.21340      0.11286907E-003
     2851.02204      0.11080889E-003
     2854.83067      0.99485454E-004
     2858.63931      0.81682662E-004
     2862.44795      0.61331769E-004
     2866.25658      0.42113993E-004
     2870.06522      0.26445553E-004
     2873.87385      0.15186728E-004
     2877.68249      0.79755580E-005
     2881.49112      0.38303923E-005
     2885.29976      0.16823283E-005
     2889.10839      0.67571501E-006
     2892.91703      0.24819995E-006
     2896.72566      0.83372944E-007
     2900.53430      0.25611434E-007
     2904.34294      0.71949530E-008
     2908.15157      0.18484484E-008
     2911.96021      0.43428221E-009
     2915.76884      0.93308682E-010
     2919.57748      0.18334006E-010
     2923.38611      0.32944128E-011
     2927.19475      0.54135727E-012
     2931.00338      0.81353314E-013
     2934.81202      0.11180258E-013
     2938.62066      0.14051210E-014
     2942.42929      0.16149569E-015
     2946.23793      0.16974363E-016
     2950.04656      0.16315911E-017
     2953.85520      0.14342157E-018
     2957.66383      0.11529300E-019
     2961.47247      0.84757225E-021
     2965.28110      0.56981756E-022
     2969.08974      0.35033235E-023
     2972.89837      0.19697449E-024
     2976.70701      0.10128031E-025
     2980.51565      0.47623946E-027
     2984.32428      0.20479109E-028
     2988.13292      0.80534513E-030
     2991.94155      0.28962653E-031
     2995.75019      0.95253283E-033
     2999.55882      0.28648830E-034
     3003.36746      0.78798714E-036
     3007.17609      0.19820595E-037
     3010.98473      0.45593146E-039
     3014.79337      0.95910852E-041
     3018.60200      0.18451057E-042
     3022.41064      0.32460864E-044
     3026.21927      0.52225692E-046
     3030.02791      0.76841113E-048
     3033.83654      0.10339235E-049
     3037.64518      0.12722384E-051
     3041.45381      0.14316402E-053
     3045.26245      0.14732776E-055
     3049.07109      0.13865023E-057
     3052.87972      0.11932788E-059
     3056.68836      0.93917944E-062
     3060.49699      0.67599041E-064
     3064.30563      0.44495676E-066
     3068.11426      0.26784306E-068
     3071.92290      0.14744441E-070
     3075.73153      0.74226935E-073
     3079.54017      0.34172760E-075
     3083.34880      0.14387453E-077
     3087.15744      0.55395320E-080
     3090.96608      0.19505072E-082
     3094.77471      0.62806898E-085
     3098.58335      0.18494920E-087
     3102.39198      0.49806138E-090
     3106.20062      0.12265877E-092
     3110.00925      0.27698730E-095
     3113.81789      0.34926871E-095
     3117.62652      0.15047302E-092
     3121.43516      0.59381472E-090
     3125.24379      0.21430317E-087
     3129.05243      0.70728028E-085
     3132.86107      0.21347146E-082
     3136.66970      0.58921446E-080
     3140.47834      0.14872785E-077
     3144.28697      0.34331795E-075
     3148.09561      0.72474634E-073
     3151.90424      0.13991390E-070
     3155.71288      0.24701369E-068
     3159.52151      0.39881042E-066
     3163.33015      0.58883996E-064
     3167.13879      0.79508466E-062
     3170.94742      0.98178136E-060
     3174.75606      0.11086680E-057
     3178.56469      0.11449158E-055
     3182.37333      0.10812619E-053
     3186.18196      0.93384237E-052
     3189.99060      0.73756714E-050
     3193.79923      0.53273945E-048
     3197.60787      0.35189530E-046
     3201.41650      0.21256776E-044
     3205.22514      0.11742664E-042
     3209.03378      0.59322739E-041
     3212.84241      0.27406973E-039
     3216.65105      0.11579405E-037
     3220.45968      0.44740079E-036
     3224.26832      0.15808569E-034
     3228.07695      0.51082682E-033
     3231.88559      0.15095244E-031
     3235.69422      0.40793587E-030
     3239.50286      0.10081588E-028
     3243.31150      0.22785122E-027
     3247.12013      0.47093292E-026
     3250.92877      0.89012719E-025
     3254.73740      0.15386165E-023
     3258.54604      0.24321706E-022
     3262.35467      0.35159525E-021
     3266.16331      0.46481194E-020
     3269.97194      0.56194894E-019
     3273.78058      0.62130058E-018
     3277.58921      0.62819139E-017
     3281.39785      0.58085470E-016
     3285.20649      0.49116607E-015
     3289.01512      0.37981710E-014
     3292.82376      0.26859999E-013
     3296.63239      0.17370918E-012
     3300.44103      0.10273653E-011
     3304.24966      0.55566405E-011
     3308.05830      0.27484322E-010
     3311.86693      0.12432059E-009
     3315.67557      0.51426437E-009
     3319.48421      0.19454278E-008
     3323.29284      0.67302175E-008
     3327.10148      0.21292586E-007
     3330.91011      0.61604583E-007
     3334.71875      0.16299826E-006
     3338.52738      0.39440118E-006
     3342.33602      0.87272771E-006
     3346.14465      0.17660567E-005
     3349.95329      0.32682542E-005
     3353.76192      0.55311105E-005
     3357.57056      0.85604020E-005
     3361.37920      0.12116057E-004
     3365.18783      0.15682444E-004
     3368.99647      0.18563143E-004
     3372.80510      0.20094379E-004
     3376.61374      0.19892207E-004
     3380.42237      0.18008464E-004
     3384.23101      0.14909247E-004
     3388.03964      0.11288079E-004
     3391.84828      0.78157325E-005
     3395.65692      0.49488541E-005
     3399.46555      0.28656618E-005
     3403.27419      0.15175064E-005
     3407.08282      0.73488846E-006
     3410.89146      0.32546002E-006
     3414.70009      0.13181329E-006
     3418.50873      0.48820929E-007
     3422.31736      0.16536295E-007
     3426.12600      0.51221900E-008
     3429.93464      0.14509702E-008
     3433.74327      0.37587772E-009
     3437.55191      0.89047147E-010
     3441.36054      0.19292066E-010
     3445.16918      0.38222827E-011
     3448.97781      0.69255165E-012
     3452.78645      0.11475374E-012
     3456.59508      0.17388689E-013
     3460.40372      0.24096399E-014
     3464.21235      0.30536748E-015
     3468.02099      0.35389850E-016
     3471.82963      0.37507660E-017
     3475.63826      0.36353526E-018
     3479.44690      0.32222440E-019
     3483.25553      0.26118944E-020
     3487.06417      0.19361461E-021
     3490.87280      0.13125201E-022
     3494.68144      0.81369022E-024
     3498.49007      0.46131497E-025
     3502.29871      0.23917805E-026
     3506.10734      0.11340453E-027
     3509.91598      0.49172784E-029
     3513.72462      0.19498649E-030
     3517.53325      0.70708160E-032
     3521.34189      0.23448760E-033
     3525.15052      0.71114070E-035
     3528.95916      0.19723160E-036
     3532.76779      0.50024504E-038
     3536.57643      0.11603109E-039
     3540.38506      0.24612249E-041
     3544.19370      0.47743421E-043
     3548.00234      0.84695644E-045
     3551.81097      0.13740228E-046
     3555.61961      0.20385065E-048
     3559.42824      0.27657670E-050
     3563.23688      0.34316611E-052
     3567.04551      0.38938436E-054
     3570.85415      0.40405262E-056
     3574.66278      0.38342698E-058
     3578.47142      0.33274591E-060
     3582.28005      0.26407550E-062
     3586.08869      0.19165881E-064
     3589.89733      0.12720811E-066
     3593.70596      0.77212232E-069
     3597.51460      0.42859070E-071
     3601.32323      0.21756561E-073
     3605.13187      0.16695710E-075
     3608.94050      0.14254250E-073
     3612.74914      0.28169034E-071
     3616.55777      0.50909392E-069
     3620.36641      0.84141292E-067
     3624.17505      0.12717617E-064
     3627.98368      0.17578736E-062
     3631.79232      0.22220553E-060
     3635.60095      0.25686645E-058
     3639.40959      0.27154714E-056
     3643.21822      0.26252362E-054
     3647.02686      0.23210091E-052
     3650.83549      0.18765953E-050
     3654.64413      0.13875535E-048
     3658.45276      0.93824043E-047
     3662.26140      0.58018149E-045
     3666.07004      0.32809447E-043
     3669.87867      0.16967555E-041
     3673.68731      0.80246285E-040
     3677.49594      0.34706908E-038
     3681.30458      0.13727524E-036
     3685.11321      0.49653953E-035
     3688.92185      0.16424825E-033
     3692.73048      0.49685882E-032
     3696.53912      0.13745184E-030
     3700.34776      0.34773902E-029
     3704.15639      0.80452884E-028
     3707.96503      0.17022177E-026
     3711.77366      0.32936233E-025
     3715.58230      0.58279801E-024
     3719.39093      0.94307777E-023
     3723.19957      0.13956042E-021
     3727.00820      0.18886973E-020
     3730.81684      0.23374792E-019
     3734.62547      0.26455653E-018
     3738.43411      0.27382592E-017
     3742.24275      0.25918865E-016
     3746.05138      0.22435863E-015
     3749.86002      0.17760494E-014
     3753.66865      0.12857391E-013
     3757.47729      0.85120935E-013
     3761.28592      0.51535442E-012
     3765.09456      0.28533975E-011
     3768.90319      0.14447953E-010
     3772.71183      0.66902138E-010
     3776.52047      0.28331318E-009
     3780.32910      0.10972178E-008
     3784.13774      0.38862365E-008
     3787.94637      0.12589130E-007
     3791.75501      0.37301621E-007
     3795.56364      0.10110871E-006
     3799.37228      0.25077927E-006
     3803.18091      0.56942804E-006
     3806.98955      0.11846479E-005
     3810.79818      0.22613986E-005
     3814.60682      0.39710875E-005
     3818.41546      0.64428930E-005
     3822.22409      0.97279362E-005
     3826.03273      0.13822585E-004
     3829.84136      0.18775161E-004
     3833.65000      0.24829034E-004
     3837.45863      0.32471241E-004
     3841.26727      0.42241775E-004
     3845.07590      0.54281265E-004
     3848.88454      0.67819921E-004
     3852.69318      0.80978665E-004
     3856.50181      0.91180515E-004
     3860.31045      0.96122727E-004
     3864.11908      0.94843704E-004
     3867.92772      0.88256364E-004
     3871.73635      0.78785312E-004
     3875.54499      0.69287584E-004
     3879.35362      0.61876737E-004
     3883.16226      0.57298565E-004
     3886.97089      0.55119833E-004
     3890.77953      0.54473599E-004
     3894.58817      0.54801816E-004
     3898.39680      0.56118680E-004
     3902.20544      0.58694888E-004
     3906.01407      0.62468023E-004
     3909.82271      0.66656721E-004
     3913.63134      0.69898574E-004
     3917.43998      0.70860639E-004
     3921.24861      0.68939310E-004
     3925.05725      0.64597118E-004
     3928.86589      0.59120879E-004
     3932.67452      0.53958963E-004
     3936.48316      0.50044230E-004
     3940.29179      0.47475064E-004
     3944.10043      0.45664685E-004
     3947.90906      0.43784711E-004
     3951.71770      0.41208234E-004
     3955.52633      0.37736184E-004
     3959.33497      0.33565398E-004
     3963.14360      0.29096252E-004
     3966.95224      0.24719268E-004
     3970.76088      0.20681559E-004
     3974.56951      0.17065420E-004
     3978.37815      0.13851778E-004
     3982.18678      0.11009477E-004
     3985.99542      0.85536851E-005
     3989.80405      0.65473034E-005
     3993.61269      0.50580725E-005
     3997.42132      0.41071235E-005
     4001.22996      0.36411092E-005
     4005.03860      0.35390580E-005
     4008.84723      0.36449900E-005
     4012.65587      0.38090531E-005
     4016.46450      0.39218887E-005
     4020.27314      0.39323280E-005
     4024.08177      0.38440737E-005
     4027.89041      0.36937211E-005
     4031.69904      0.35202021E-005
     4035.50768      0.33403752E-005
     4039.31632      0.31423682E-005
     4043.12495      0.28979381E-005
     4046.93359      0.25841464E-005
     4050.74222      0.22005064E-005
     4054.55086      0.17725378E-005
     4058.35949      0.13419719E-005
     4062.16813      0.95099578E-006
     4065.97676      0.62916314E-006
     4069.78540      0.38790710E-006
     4073.59403      0.22257675E-006
     4077.40267      0.11871135E-006
     4081.21131      0.58782275E-007
     4085.01994      0.26990615E-007
     4088.82858      0.11477652E-007
     4092.63721      0.45147314E-008
     4096.44585      0.16407096E-008
     4100.25448      0.55025622E-009
     4104.06312      0.17013092E-009
     4107.87175      0.48448681E-010
     4111.68039      0.12697009E-010
     4115.48902      0.30600302E-011
     4119.29766      0.67778112E-012
     4123.10630      0.13804993E-012
     4126.91493      0.27139980E-013
     4130.72357      0.15117058E-013
     4134.53220      0.76264704E-013
     4138.34084      0.48807281E-012
     4142.14947      0.28815459E-011
     4145.95811      0.15560978E-010
     4149.76674      0.76848516E-010
     4153.57538      0.34707188E-009
     4157.38402      0.14334702E-008
     4161.19265      0.54143117E-008
     4165.00129      0.18701788E-007
     4168.80992      0.59075627E-007
     4172.61856      0.17065494E-006
     4176.42719      0.45083195E-006
     4180.23583      0.10891704E-005
     4184.04446      0.24063693E-005
     4187.85310      0.48619899E-005
     4191.66173      0.89836152E-005
     4195.47037      0.15180062E-004
     4199.27901      0.23457475E-004
     4203.08764      0.33149295E-004
     4206.89628      0.42840313E-004
     4210.70491      0.50630975E-004
     4214.51355      0.54722417E-004
     4218.32218      0.54087830E-004
     4222.13082      0.48889901E-004
     4225.93945      0.40413278E-004
     4229.74809      0.30550217E-004
     4233.55673      0.21119802E-004
     4237.36536      0.13352135E-004
     4241.17400      0.77196371E-005
     4244.98263      0.40815806E-005
     4248.79127      0.19735366E-005
     4252.59990      0.87266448E-006
     4256.40854      0.35288624E-006
     4260.21717      0.13049909E-006
     4264.02581      0.44133212E-007
     4267.83445      0.13649254E-007
     4271.64308      0.38604471E-008
     4275.45172      0.99850814E-009
     4279.26035      0.23618425E-009
     4283.06899      0.51089960E-010
     4286.87762      0.10106610E-010
     4290.68626      0.18283560E-011
     4294.49489      0.30248326E-012
     4298.30353      0.45764344E-013
     4302.11216      0.63319641E-014
     4305.92080      0.80118898E-015
