      533.28760      0.64935030E-001
      537.05525      0.79242511E-001
      540.82290      0.96794079E-001
      544.59055      0.11368506     
      548.35820      0.12605876     
      552.12585      0.13129198     
      555.89350      0.12880719     
      559.66115      0.12006529     
      563.42879      0.10772694     
      567.19644      0.94455870E-001
      570.96409      0.82022330E-001
      574.73174      0.71127163E-001
      578.49939      0.61899423E-001
      582.26704      0.54645084E-001
      586.03469      0.50341850E-001
      589.80234      0.50564094E-001
      593.56999      0.56827954E-001
      597.33764      0.69627496E-001
      601.10529      0.87613062E-001
      604.87294      0.10738790     
      608.64059      0.12420544     
      612.40824      0.13344001     
      616.17588      0.13224904     
      619.94353      0.12064486     
      623.71118      0.10144662     
      627.47883      0.79169514E-001
      631.24648      0.58442879E-001
      635.01413      0.42682378E-001
      638.78178      0.33449799E-001
      642.54943      0.30498431E-001
      646.31708      0.32236578E-001
      650.08473      0.36340968E-001
      653.85238      0.40380094E-001
      657.62003      0.42385063E-001
      661.38768      0.41282029E-001
      665.15533      0.37064195E-001
      668.92297      0.30634474E-001
      672.69062      0.23390885E-001
      676.45827      0.16753579E-001
      680.22592      0.11843692E-001
      683.99357      0.94104829E-002
      687.76122      0.99456445E-002
      691.52887      0.13821564E-001
      695.29652      0.21293618E-001
      699.06417      0.32303540E-001
      702.83182      0.46161767E-001
      706.59947      0.61305613E-001
      710.36712      0.75358242E-001
      714.13477      0.85605423E-001
      717.90242      0.89787139E-001
      721.67007      0.86883613E-001
      725.43771      0.77512106E-001
      729.20536      0.63716485E-001
      732.97301      0.48242550E-001
      736.74066      0.33650258E-001
      740.50831      0.21655801E-001
      744.27596      0.12918375E-001
      748.04361      0.72325826E-002
      751.81126      0.39226012E-002
      755.57891      0.22240164E-002
      759.34656      0.15344446E-002
      763.11421      0.15211828E-002
      766.88186      0.21309903E-002
      770.64951      0.35464792E-002
      774.41716      0.61032698E-002
      778.18480      0.10156595E-001
      781.95245      0.15890387E-001
      785.72010      0.23102290E-001
      789.48775      0.31053851E-001
      793.25540      0.38500601E-001
      797.02305      0.43967076E-001
      800.79070      0.46207765E-001
      804.55835      0.44664587E-001
      808.32600      0.39694011E-001
      812.09365      0.32440344E-001
      815.86130      0.24419717E-001
      819.62895      0.17025607E-001
      823.39660      0.11176795E-001
      827.16425      0.72132419E-002
      830.93189      0.50008637E-002
      834.69954      0.41276173E-002
      838.46719      0.40858660E-002
      842.23484      0.43966704E-002
      846.00249      0.46820827E-002
      849.77014      0.47046909E-002
      853.53779      0.43817602E-002
      857.30544      0.37713618E-002
      861.07309      0.30341988E-002
      864.84074      0.23902886E-002
      868.60839      0.20965421E-002
      872.37604      0.24580193E-002
      876.14369      0.38553502E-002
      879.91134      0.67397340E-002
      883.67898      0.11538119E-001
      887.44663      0.18445075E-001
      891.21428      0.27155914E-001
      894.98193      0.36682180E-001
      898.74958      0.45416988E-001
      902.51723      0.51527497E-001
      906.28488      0.53565714E-001
      910.05253      0.51021574E-001
      913.82018      0.44528472E-001
      917.58783      0.35607230E-001
      921.35548      0.26088856E-001
      925.12313      0.17514153E-001
      928.89078      0.10773216E-001
      932.65843      0.60722709E-002
      936.42608      0.31373444E-002
      940.19372      0.14888810E-002
      943.96137      0.65641344E-003
      947.72902      0.28541143E-003
      951.49667      0.15482612E-003
      955.26432      0.14804544E-003
      959.03197      0.21245766E-003
      962.79962      0.32547090E-003
      966.56727      0.47226764E-003
      970.33492      0.63625524E-003
      974.10257      0.80452834E-003
      977.87022      0.99513233E-003
      981.63787      0.13205791E-002
      985.40552      0.21129507E-002
      989.17317      0.41423036E-002
      992.94081      0.89387118E-002
      996.70846      0.19145503E-001
     1000.47611      0.38675973E-001
     1004.24376      0.72285809E-001
     1008.01141      0.12418319     
     1011.77906      0.19567586     
     1015.54671      0.28260061     
     1019.31436      0.37400052     
     1023.08201      0.45352694     
     1026.84966      0.50391422     
     1030.61731      0.51301915     
     1034.38496      0.47857332     
     1038.15261      0.40912817     
     1041.92026      0.32068993     
     1045.68790      0.23091191     
     1049.45555      0.15380885     
     1053.22320      0.97174807E-001
     1056.99085      0.63011037E-001
     1060.75850      0.49674499E-001
     1064.52615      0.54007520E-001
     1068.29380      0.72340290E-001
     1072.06145      0.10032400     
     1075.82910      0.13237818     
     1079.59675      0.16173068     
     1083.36440      0.18155664     
     1087.13205      0.18688916     
     1090.89970      0.17631522     
     1094.66735      0.15245410     
     1098.43500      0.12088382     
     1102.20264      0.88072094E-001
     1105.97029      0.59357953E-001
     1109.73794      0.37832733E-001
     1113.50559      0.24320976E-001
     1117.27324      0.18064745E-001
     1121.04089      0.17519798E-001
     1124.80854      0.20874657E-001
     1128.57619      0.26253475E-001
     1132.34384      0.31798873E-001
     1136.11149      0.35838874E-001
     1139.87914      0.37180227E-001
     1143.64679      0.35392314E-001
     1147.41444      0.30890805E-001
     1151.18209      0.24732626E-001
     1154.94973      0.18207198E-001
     1158.71738      0.12420566E-001
     1162.48503      0.80462584E-002
     1166.25268      0.52952949E-002
     1170.02033      0.40361709E-002
     1173.78798      0.39500824E-002
     1177.55563      0.46423391E-002
     1181.32328      0.56987706E-002
     1185.09093      0.67213116E-002
     1188.85858      0.73766408E-002
     1192.62623      0.74601267E-002
     1196.39388      0.69481900E-002
     1200.16153      0.60121117E-002
     1203.92918      0.49959350E-002
     1207.69682      0.43955394E-002
     1211.46447      0.48831065E-002
     1215.23212      0.73843554E-002
     1218.99977      0.13147095E-001
     1222.76742      0.23679555E-001
     1226.53507      0.40441562E-001
     1230.30272      0.64279316E-001
     1234.07037      0.94778227E-001
     1237.83802      0.12985415     
     1241.60567      0.16587071     
     1245.37332      0.19832482     
     1249.14097      0.22283565     
     1252.90862      0.23604283     
     1256.67627      0.23616217     
     1260.44391      0.22320030     
     1264.21156      0.19893904     
     1267.97921      0.16670397     
     1271.74686      0.13082126     
     1275.51451      0.95749367E-001
     1279.28216      0.65110741E-001
     1283.04981      0.41000698E-001
     1286.81746      0.23844136E-001
     1290.58511      0.12779382E-001
     1294.35276      0.63020734E-002
     1298.12041      0.28562000E-002
     1301.88806      0.11886391E-002
     1305.65571      0.45393790E-003
     1309.42336      0.15901330E-003
     1313.19101      0.51076640E-004
     1316.95865      0.15040580E-004
     1320.72630      0.40596671E-005
     1324.49395      0.10042701E-005
     1328.26160      0.22767254E-006
     1332.02925      0.47300518E-007
     1335.79690      0.90186349E-008
     1339.56455      0.16538339E-008
     1343.33220      0.68485572E-009
     1347.09985      0.21091681E-008
     1350.86750      0.90764609E-008
     1354.63515      0.36387100E-007
     1358.40280      0.13374818E-006
     1362.17045      0.45059746E-006
     1365.93810      0.13917784E-005
     1369.70574      0.39434327E-005
     1373.47339      0.10260421E-004
     1377.24104      0.24565196E-004
     1381.00869      0.54322399E-004
     1384.77634      0.11171723E-003
     1388.54399      0.21621517E-003
     1392.31164      0.40119583E-003
     1396.07929      0.73155181E-003
     1399.84694      0.13426885E-002
     1403.61459      0.25086543E-002
     1407.38224      0.47296239E-002
     1411.14989      0.87927543E-002
     1414.91754      0.15718916E-001
     1418.68519      0.26499219E-001
     1422.45283      0.41596955E-001
     1426.22048      0.60352429E-001
     1429.98813      0.80603762E-001
     1433.75578      0.98875532E-001
     1437.52343      0.11127327     
     1441.29108      0.11481456     
     1445.05873      0.10858480     
     1448.82638      0.94109880E-001
     1452.59403      0.74740864E-001
     1456.36168      0.54389900E-001
     1460.12933      0.36266494E-001
     1463.89698      0.22157196E-001
     1467.66463      0.12403476E-001
     1471.43228      0.63619718E-002
     1475.19992      0.29900201E-002
     1478.96757      0.12880195E-002
     1482.73522      0.50991000E-003
     1486.50287      0.18981281E-003
     1490.27052      0.78779774E-004
     1494.03817      0.66233482E-004
     1497.80582      0.12159424E-003
     1501.57347      0.26143468E-003
     1505.34112      0.53266526E-003
     1509.10877      0.99832109E-003
     1512.87642      0.17151333E-002
     1516.64407      0.27000040E-002
     1520.41172      0.38944946E-002
     1524.17937      0.51470616E-002
     1527.94702      0.62330681E-002
     1531.71466      0.69171133E-002
     1535.48231      0.70370988E-002
     1539.24996      0.65719880E-002
     1543.01761      0.56613030E-002
     1546.78526      0.45733872E-002
     1550.55291      0.36513554E-002
     1554.32056      0.32754363E-002
     1558.08821      0.38575990E-002
     1561.85586      0.58420984E-002
     1565.62351      0.96541704E-002
     1569.39116      0.15549660E-001
     1573.15881      0.23382538E-001
     1576.92646      0.32399232E-001
     1580.69411      0.41224403E-001
     1584.46175      0.48155168E-001
     1588.22940      0.51721461E-001
     1591.99705      0.51285677E-001
     1595.76470      0.47379935E-001
     1599.53235      0.41589207E-001
     1603.30000      0.36022028E-001
     1607.06765      0.32613897E-001
     1610.83530      0.32561243E-001
     1614.60295      0.36085693E-001
     1618.37060      0.42567425E-001
     1622.13825      0.50944610E-001
     1625.90590      0.60183203E-001
     1629.67355      0.69590047E-001
     1633.44120      0.78805969E-001
     1637.20884      0.87492600E-001
     1640.97649      0.94945437E-001
     1644.74414      0.99965861E-001
     1648.51179      0.10118415     
     1652.27944      0.97704467E-001
     1656.04709      0.89677656E-001
     1659.81474      0.78419859E-001
     1663.58239      0.65984103E-001
     1667.35004      0.54430996E-001
     1671.11769      0.45183094E-001
     1674.88534      0.38726502E-001
     1678.65299      0.34689039E-001
     1682.42064      0.32160269E-001
     1686.18829      0.30088166E-001
     1689.95594      0.27630288E-001
     1693.72358      0.24380369E-001
     1697.49123      0.20421825E-001
     1701.25888      0.16205164E-001
     1705.02653      0.12310109E-001
     1708.79418      0.91996356E-002
     1712.56183      0.70662705E-002
     1716.32948      0.58150156E-002
     1720.09713      0.51606523E-002
     1723.86478      0.47779077E-002
     1727.63243      0.44435972E-002
     1731.40008      0.41395696E-002
     1735.16773      0.41229674E-002
     1738.93538      0.49925794E-002
     1742.70303      0.77651305E-002
     1746.47067      0.13914674E-001
     1750.23832      0.25247217E-001
     1754.00597      0.43451924E-001
     1757.77362      0.69276722E-001
     1761.54127      0.10154272     
     1765.30892      0.13651292     
     1769.07657      0.16820968     
     1772.84422      0.18992659     
     1776.61187      0.19649402     
     1780.37952      0.18626572     
     1784.14717      0.16178338     
     1787.91482      0.12875125     
     1791.68247      0.93882643E-001
     1795.45012      0.62724242E-001
     1799.21776      0.38397396E-001
     1802.98541      0.21536957E-001
     1806.75306      0.11068356E-001
     1810.52071      0.52119248E-002
     1814.28836      0.22486889E-002
     1818.05601      0.88894895E-003
     1821.82366      0.32198859E-003
     1825.59131      0.10686128E-003
     1829.35896      0.32494995E-004
     1833.12661      0.90537563E-005
     1836.89426      0.23113055E-005
     1840.66191      0.54063245E-006
     1844.42956      0.11586789E-006
     1848.19721      0.22753094E-007
     1851.96485      0.40939520E-008
     1855.73250      0.67563676E-009
     1859.50015      0.10769073E-009
     1863.26780      0.55497129E-010
     1867.03545      0.27498312E-009
     1870.80310      0.16525073E-008
     1874.57075      0.91564241E-008
     1878.33840      0.46492253E-007
     1882.10605      0.21630077E-006
     1885.87370      0.92206343E-006
     1889.64135      0.36015915E-005
     1893.40900      0.12890456E-004
     1897.17665      0.42276337E-004
     1900.94430      0.12705921E-003
     1904.71195      0.34997303E-003
     1908.47959      0.88358317E-003
     1912.24724      0.20452668E-002
     1916.01489      0.43422281E-002
     1919.78254      0.84607849E-002
     1923.55019      0.15145574E-001
     1927.31784      0.24948268E-001
     1931.08549      0.37911879E-001
     1934.85314      0.53354905E-001
     1938.62079      0.69938618E-001
     1942.38844      0.86067865E-001
     1946.15609      0.10043444     
     1949.92374      0.11234543     
     1953.69139      0.12157749     
     1957.45904      0.12785462     
     1961.22668      0.13039380     
     1964.99433      0.12797431     
     1968.76198      0.11959707     
     1972.52963      0.10531131     
     1976.29728      0.86611674E-001
     1980.06493      0.66098127E-001
     1983.83258      0.46595998E-001
     1987.60023      0.30252016E-001
     1991.36788      0.18053844E-001
     1995.13553      0.98915899E-002
     1998.90318      0.49717950E-002
     2002.67083      0.22914269E-002
     2006.43848      0.96809458E-003
     2010.20613      0.37486116E-003
     2013.97377      0.13301969E-003
     2017.74142      0.43253840E-004
     2021.50907      0.12887792E-004
     2025.27672      0.35185712E-005
     2029.04437      0.88019980E-006
     2032.81202      0.20175258E-006
     2036.57967      0.42371832E-007
     2040.34732      0.81536889E-008
     2044.11497      0.14376355E-008
     2047.88262      0.23225262E-009
     2051.65027      0.34378684E-010
     2055.41792      0.46626675E-011
     2059.18557      0.57942348E-012
     2062.95322      0.65974193E-013
     2066.72087      0.68828513E-014
     2070.48851      0.65792889E-015
     2074.25616      0.57624315E-016
     2078.02381      0.46243301E-017
     2081.79146      0.34002286E-018
     2085.55911      0.22907813E-019
     2089.32676      0.14140845E-020
     2093.09441      0.79980355E-022
     2096.86206      0.41448375E-023
     2100.62971      0.19681034E-024
     2104.39736      0.85625777E-026
     2108.16501      0.34133228E-027
     2111.93266      0.12467128E-028
     2115.70031      0.41722633E-030
     2119.46796      0.12793613E-031
     2123.23560      0.35944373E-033
     2127.00325      0.92530488E-035
     2130.77090      0.21825038E-036
     2134.53855      0.47167340E-038
     2138.30620      0.93399376E-040
     2142.07385      0.16945828E-041
     2145.84150      0.28170712E-043
     2149.60915      0.42909067E-045
     2153.37680      0.59884791E-047
     2157.14445      0.76577331E-049
     2160.91210      0.89722245E-051
     2164.67975      0.96319953E-053
     2168.44740      0.94743322E-055
     2172.21505      0.85388065E-057
     2175.98269      0.70511825E-059
     2179.75034      0.53351049E-061
     2183.51799      0.36986240E-063
     2187.28564      0.23493819E-065
     2191.05329      0.13673613E-067
     2194.82094      0.72917062E-070
     2198.58859      0.35627985E-072
     2202.35624      0.15950327E-074
     2206.12389      0.65428071E-077
     2209.89154      0.24590925E-079
     2213.65919      0.84684095E-082
     2217.42684      0.26720528E-084
     2221.19449      0.77251062E-087
     2224.96214      0.20463508E-089
     2228.72978      0.49667459E-092
     2232.49743      0.11045363E-094
     2236.26508      0.22506310E-097
     2240.03273      0.42018913E-100
     2243.80038      0.71878919E-103
     2247.56803      0.11266123E-105
     2251.33568      0.16179446E-108
     2255.10333      0.21289675E-111
     2258.87098      0.25667918E-114
     2262.63863      0.28354923E-117
     2266.40628      0.28700041E-120
     2270.17393       0.0000000     
     2273.94158       0.0000000     
     2277.70923       0.0000000     
     2281.47688       0.0000000     
     2285.24452       0.0000000     
     2289.01217       0.0000000     
     2292.77982       0.0000000     
     2296.54747       0.0000000     
     2300.31512       0.0000000     
     2304.08277       0.0000000     
     2307.85042       0.0000000     
     2311.61807       0.0000000     
     2315.38572       0.0000000     
     2319.15337       0.0000000     
     2322.92102       0.0000000     
     2326.68867       0.0000000     
     2330.45632       0.0000000     
     2334.22397       0.0000000     
     2337.99161       0.0000000     
     2341.75926       0.0000000     
     2345.52691       0.0000000     
     2349.29456       0.0000000     
     2353.06221       0.0000000     
     2356.82986       0.0000000     
     2360.59751       0.0000000     
     2364.36516       0.0000000     
     2368.13281       0.0000000     
     2371.90046       0.0000000     
     2375.66811       0.0000000     
     2379.43576       0.0000000     
     2383.20341       0.0000000     
     2386.97106       0.0000000     
     2390.73870       0.0000000     
     2394.50635       0.0000000     
     2398.27400       0.0000000     
     2402.04165       0.0000000     
     2405.80930       0.0000000     
     2409.57695       0.0000000     
     2413.34460       0.0000000     
     2417.11225       0.0000000     
     2420.87990       0.0000000     
     2424.64755       0.0000000     
     2428.41520       0.0000000     
     2432.18285       0.0000000     
     2435.95050       0.0000000     
     2439.71815       0.0000000     
     2443.48580       0.0000000     
     2447.25344       0.0000000     
     2451.02109       0.0000000     
     2454.78874       0.0000000     
     2458.55639       0.0000000     
     2462.32404       0.0000000     
     2466.09169      0.66081474E-118
     2469.85934      0.62181872E-115
     2473.62699      0.53612255E-112
     2477.39464      0.42352650E-109
     2481.16229      0.30655846E-106
     2484.92994      0.20331165E-103
     2488.69759      0.12354564E-100
     2492.46524      0.68787386E-098
     2496.23289      0.35091862E-095
     2500.00053      0.16402885E-092
     2503.76818      0.70250638E-090
     2507.53583      0.27567446E-087
     2511.30348      0.99119479E-085
     2515.07113      0.32654099E-082
     2518.83878      0.98567247E-080
     2522.60643      0.27261124E-077
     2526.37408      0.69082989E-075
     2530.14173      0.16040381E-072
     2533.90938      0.34125143E-070
     2537.67703      0.66519733E-068
     2541.44468      0.11880719E-065
     2545.21233      0.19442459E-063
     2548.97998      0.29152503E-061
     2552.74762      0.40051312E-059
     2556.51527      0.50416634E-057
     2560.28292      0.58149660E-055
     2564.05057      0.61452099E-053
     2567.81822      0.59503497E-051
     2571.58587      0.52791558E-049
     2575.35352      0.42914364E-047
     2579.12117      0.31963704E-045
     2582.88882      0.21813620E-043
     2586.65647      0.13640007E-041
     2590.42412      0.78147968E-040
     2594.19177      0.41023904E-038
     2597.95942      0.19732064E-036
     2601.72707      0.86960944E-035
     2605.49471      0.35114962E-033
     2609.26236      0.12992011E-031
     2613.03001      0.44042988E-030
     2616.79766      0.13680230E-028
     2620.56531      0.38933749E-027
     2624.33296      0.10152553E-025
     2628.10061      0.24257193E-024
     2631.86826      0.53103364E-023
     2635.63591      0.10651720E-021
     2639.40356      0.19576438E-020
     2643.17121      0.32965816E-019
     2646.93886      0.50863963E-018
     2650.70651      0.71907266E-017
     2654.47416      0.93143292E-016
     2658.24181      0.11054691E-014
     2662.00945      0.12021478E-013
     2665.77710      0.11978028E-012
     2669.54475      0.10935257E-011
     2673.31240      0.91472152E-011
     2677.08005      0.70107587E-010
     2680.84770      0.49233120E-009
     2684.61535      0.31678595E-008
     2688.38300      0.18676294E-007
     2692.15065      0.10088618E-006
     2695.91830      0.49933143E-006
     2699.68595      0.22644479E-005
     2703.45360      0.94091847E-005
     2707.22125      0.35822663E-004
     2710.98890      0.12496257E-003
     2714.75654      0.39940939E-003
     2718.52419      0.11696955E-002
     2722.29184      0.31386548E-002
     2726.05949      0.77166805E-002
     2729.82714      0.17383359E-001
     2733.59479      0.35880056E-001
     2737.36244      0.67856076E-001
     2741.13009      0.11758193     
     2744.89774      0.18668467     
     2748.66539      0.27157697     
     2752.43304      0.36198739     
     2756.20069      0.44208946     
     2759.96834      0.49470136     
     2763.73599      0.50721520     
     2767.50363      0.47649422     
     2771.27128      0.41014672     
     2775.03893      0.32347227     
     2778.80658      0.23374972     
     2782.57423      0.15476806     
     2786.34188      0.93891834E-001
     2790.10953      0.52190387E-001
     2793.87718      0.26580884E-001
     2797.64483      0.12404080E-001
     2801.41248      0.53036629E-002
     2805.18013      0.20777988E-002
     2808.94778      0.74584275E-003
     2812.71543      0.24530550E-003
     2816.48308      0.73923668E-004
     2820.25073      0.20411549E-004
     2824.01837      0.51639808E-005
     2827.78602      0.11970423E-005
     2831.55367      0.25424394E-006
     2835.32132      0.49477521E-007
     2839.08897      0.88222929E-008
     2842.85662      0.14413559E-008
     2846.62427      0.21576312E-009
     2850.39192      0.29593710E-010
     2854.15957      0.37190998E-011
     2857.92722      0.42824517E-012
     2861.69487      0.45181779E-013
     2865.46252      0.43676759E-014
     2869.23017      0.38685989E-015
     2872.99782      0.31395920E-016
     2876.76546      0.23345810E-017
     2880.53311      0.15905997E-018
     2884.30076      0.99295387E-020
     2888.06841      0.56795439E-021
     2891.83606      0.29765561E-022
     2895.60371      0.14293247E-023
     2899.37136      0.62887445E-025
     2903.13901      0.25352058E-026
     2906.90666      0.93643730E-028
     2910.67431      0.31692785E-029
     2914.44196      0.98278458E-031
     2918.20961      0.27923669E-032
     2921.97726      0.72694715E-034
     2925.74491      0.17340013E-035
     2929.51255      0.37897645E-037
     2933.28020      0.75891169E-039
     2937.04785      0.13924720E-040
     2940.81550      0.23409813E-042
     2944.58315      0.36059991E-044
     2948.35080      0.50894343E-046
     2952.11845      0.65815719E-048
     2955.88610      0.77984082E-050
     2959.65375      0.84663949E-052
     2963.42140      0.84218459E-054
     2967.18905      0.76759526E-056
     2970.95670      0.64102283E-058
     2974.72435      0.49049087E-060
     2978.49200      0.34387815E-062
     2982.25964      0.22089935E-064
     2986.02729      0.13001712E-066
     2989.79494      0.70116921E-069
     2993.56259      0.34646659E-071
     2997.33024      0.15686141E-073
     3001.09789      0.65070939E-076
     3004.86554      0.24732855E-078
     3008.63319      0.86134604E-081
     3012.40084      0.27485098E-083
     3016.16849      0.80358741E-086
     3019.93614      0.21527083E-088
     3023.70379      0.52838863E-091
     3027.47144      0.11883325E-093
     3031.23909      0.24487175E-096
     3035.00674      0.46233377E-099
     3038.77438      0.79981357E-102
     3042.54203      0.12677632E-104
     3046.30968      0.18412117E-107
     3050.07733      0.24501098E-110
     3053.84498      0.29873326E-113
     3057.61263      0.33373199E-116
     3061.38028      0.34160821E-119
     3065.14793       0.0000000     
     3068.91558      0.12977973E-118
     3072.68323      0.12352310E-115
     3076.45088      0.10772232E-112
     3080.21853      0.86075472E-110
     3083.98618      0.63018689E-107
     3087.75383      0.42274213E-104
     3091.52147      0.25983516E-101
     3095.28912      0.14633106E-098
     3099.05677      0.75507720E-096
     3102.82442      0.35699522E-093
     3106.59207      0.15464991E-090
     3110.35972      0.61383712E-088
     3114.12737      0.22324043E-085
     3117.89502      0.74389009E-083
     3121.66267      0.22712290E-080
     3125.43032      0.63537376E-078
     3129.19797      0.16285978E-075
     3132.96562      0.38248522E-073
     3136.73327      0.82306033E-071
     3140.50092      0.16227997E-068
     3144.26856      0.29316652E-066
     3148.03621      0.48526620E-064
     3151.80386      0.73597309E-062
     3155.57151      0.10227278E-059
     3159.33916      0.13021901E-057
     3163.10681      0.15191649E-055
     3166.87446      0.16238717E-053
     3170.64211      0.15904305E-051
     3174.40976      0.14272298E-049
     3178.17741      0.11735168E-047
     3181.94506      0.88409916E-046
     3185.71271      0.61027958E-044
     3189.48036      0.38598722E-042
     3193.24801      0.22368313E-040
     3197.01566      0.11877082E-038
     3200.78330      0.57783321E-037
     3204.55095      0.25757960E-035
     3208.31860      0.10520506E-033
     3212.08625      0.39371145E-032
     3215.85390      0.13500059E-030
     3219.62155      0.42414026E-029
     3223.38920      0.12209547E-027
     3227.15685      0.32203704E-026
     3230.92450      0.77826648E-025
     3234.69215      0.17233244E-023
     3238.45980      0.34964070E-022
     3242.22745      0.64996973E-021
     3245.99510      0.11070838E-019
     3249.76275      0.17277627E-018
     3253.53039      0.24706083E-017
     3257.29804      0.32369794E-016
     3261.06569      0.38859050E-015
     3264.83334      0.42742572E-014
     3268.60099      0.43076989E-013
     3272.36864      0.39778302E-012
     3276.13629      0.33656067E-011
     3279.90394      0.26091360E-010
     3283.67159      0.18533023E-009
     3287.43924      0.12061798E-008
     3291.20689      0.71927350E-008
     3294.97454      0.39299975E-007
     3298.74219      0.19674637E-006
     3302.50984      0.90247956E-006
     3306.27748      0.37930123E-005
     3310.04513      0.14606540E-004
     3313.81278      0.51537894E-004
     3317.58043      0.16661811E-003
     3321.34808      0.49355318E-003
     3325.11573      0.13395593E-002
     3328.88338      0.33312415E-002
     3332.65103      0.75904327E-002
     3336.41868      0.15846858E-001
     3340.18633      0.30313495E-001
     3343.95398      0.53130645E-001
     3347.72163      0.85323836E-001
     3351.48928      0.12554860     
     3355.25693      0.16926595     
     3359.02457      0.20909495     
     3362.79222      0.23666483     
     3366.55987      0.24543704     
     3370.32752      0.23321834     
     3374.09517      0.20304931     
     3377.86282      0.16197820     
     3381.63047      0.11839349     
     3385.39812      0.79289432E-001
     3389.16577      0.48654051E-001
     3392.93342      0.27355139E-001
     3396.70107      0.14092079E-001
     3400.46872      0.66516198E-002
     3404.23637      0.28767094E-002
     3408.00402      0.11399368E-002
     3411.77167      0.41388701E-003
     3415.53931      0.13768893E-003
     3419.30696      0.41969373E-004
     3423.07461      0.11721472E-004
     3426.84226      0.29994943E-005
     3430.60991      0.70328305E-006
     3434.37756      0.15108748E-006
     3438.14521      0.29740141E-007
     3441.91286      0.53638150E-008
     3445.68051      0.88638169E-009
     3449.44816      0.13420972E-009
     3453.21581      0.18619302E-010
     3456.98346      0.23667863E-011
     3460.75111      0.27565819E-012
     3464.51876      0.29417041E-013
     3468.28640      0.28763603E-014
     3472.05405      0.25769370E-015
     3475.82170      0.21153418E-016
     3479.58935      0.15910122E-017
     3483.35700      0.10964345E-018
     3487.12465      0.69232191E-020
     3490.89230      0.40054350E-021
     3494.65995      0.21232812E-022
     3498.42760      0.10312918E-023
     3502.19525      0.45895684E-025
     3505.96290      0.18714505E-026
     3509.73055      0.69919940E-028
     3513.49820      0.23935361E-029
     3517.26585      0.75074963E-031
     3521.03349      0.21575779E-032
     3524.80114      0.56813832E-034
     3528.56879      0.13707488E-035
     3532.33644      0.30302462E-037
     3536.10409      0.61378201E-039
     3539.87174      0.11391125E-040
     3543.63939      0.19370253E-042
     3547.40704      0.30180067E-044
     3551.17469      0.43084526E-046
     3554.94234      0.56355805E-048
     3558.70999      0.67541736E-050
     3562.47764      0.74168927E-052
     3566.24529      0.74625627E-054
     3570.01294      0.68797113E-056
     3573.78059      0.58112378E-058
     3577.54823      0.44976534E-060
     3581.31588      0.36255868E-062
     3585.08353      0.62741572E-061
     3588.85118      0.82642878E-059
     3592.61883      0.99773487E-057
     3596.38648      0.11036747E-054
     3600.15413      0.11186217E-052
     3603.92178      0.10388232E-050
     3607.68943      0.88392665E-049
     3611.45708      0.68913934E-047
     3615.22473      0.49228214E-045
     3618.99238      0.32220875E-043
     3622.76003      0.19323100E-041
     3626.52768      0.10617750E-039
     3630.29532      0.53456980E-038
     3634.06297      0.24659970E-036
     3637.83062      0.10423100E-034
     3641.59827      0.40366163E-033
     3645.36592      0.14323668E-031
     3649.13357      0.46570110E-030
     3652.90122      0.13873195E-028
     3656.66887      0.37867091E-027
     3660.43652      0.94702972E-026
     3664.20417      0.21701087E-024
     3667.97182      0.45563345E-023
     3671.73947      0.87652825E-022
     3675.50712      0.15450142E-020
     3679.27477      0.24952567E-019
     3683.04241      0.36924464E-018
     3686.81006      0.50064445E-017
     3690.57771      0.62195766E-016
     3694.34536      0.70795957E-015
     3698.11301      0.73836706E-014
     3701.88066      0.70558996E-013
     3705.64831      0.61780111E-012
     3709.41596      0.49563413E-011
     3713.18361      0.36432581E-010
     3716.95126      0.24537758E-009
     3720.71891      0.15142447E-008
     3724.48656      0.85619650E-008
     3728.25421      0.44357500E-007
     3732.02186      0.21056049E-006
     3735.78950      0.91580484E-006
     3739.55715      0.36495995E-005
     3743.32480      0.13326119E-004
     3747.09245      0.44583935E-004
     3750.86010      0.13666878E-003
     3754.62775      0.38386319E-003
     3758.39540      0.98787007E-003
     3762.16305      0.23293750E-002
     3765.93070      0.50326325E-002
     3769.69835      0.99624751E-002
     3773.46600      0.18069891E-001
     3777.23365      0.30030331E-001
     3781.00130      0.45727896E-001
     3784.76895      0.63799829E-001
     3788.53660      0.81559993E-001
     3792.30424      0.95534740E-001
     3796.07189      0.10254042     
     3799.83954      0.10086811     
     3803.60719      0.90987828E-001
     3807.37484      0.75401815E-001
     3811.14249      0.57746483E-001
     3814.91014      0.41638664E-001
     3818.67779      0.29815270E-001
     3822.44544      0.23831875E-001
     3826.21309      0.24216244E-001
     3829.98074      0.30786756E-001
     3833.74839      0.42923116E-001
     3837.51604      0.59779461E-001
     3841.28369      0.80541351E-001
     3845.05133      0.10473846     
     3848.81898      0.13242557     
     3852.58663      0.16395830     
     3856.35428      0.19927107     
     3860.12193      0.23693254     
     3863.88958      0.27353210     
     3867.65723      0.30389824     
     3871.42488      0.32226939     
     3875.19253      0.32406001     
     3878.96018      0.30755335     
     3882.72783      0.27484207     
     3886.49548      0.23161429     
     3890.26313      0.18582711     
     3894.03078      0.14573280     
     3897.79842      0.11792164     
     3901.56607      0.10593557     
     3905.33372      0.10970660     
     3909.10137      0.12580692     
     3912.86902      0.14838368     
     3916.63667      0.17060846     
     3920.40432      0.18635958     
     3924.17197      0.19168698     
     3927.93962      0.18556824     
     3931.70727      0.16969868     
     3935.47492      0.14748352     
     3939.24257      0.12274251     
     3943.01022      0.98673864E-001
     3946.77787      0.77371210E-001
     3950.54552      0.59853816E-001
     3954.31316      0.46365996E-001
     3958.08081      0.36692695E-001
     3961.84846      0.30356358E-001
     3965.61611      0.26696756E-001
     3969.38376      0.24915553E-001
     3973.15141      0.24167061E-001
     3976.91906      0.23713826E-001
     3980.68671      0.23088599E-001
     3984.45436      0.22169825E-001
     3988.22201      0.21114818E-001
     3991.98966      0.20178987E-001
     3995.75731      0.19519163E-001
     3999.52496      0.19084722E-001
     4003.29261      0.18641938E-001
     4007.06025      0.17899630E-001
     4010.82790      0.16656619E-001
     4014.59555      0.14894423E-001
     4018.36320      0.12778831E-001
     4022.13085      0.10583029E-001
     4025.89850      0.85778424E-002
     4029.66615      0.69403678E-002
     4033.43380      0.57144600E-002
     4037.20145      0.48282834E-002
     4040.96910      0.41500020E-002
     4044.73675      0.35515856E-002
     4048.50440      0.29540822E-002
     4052.27205      0.23411105E-002
     4056.03970      0.17434801E-002
     4059.80734      0.12094006E-002
     4063.57499      0.77716264E-003
     4067.34264      0.46109162E-003
     4071.11029      0.25205444E-003
     4074.87794      0.12678474E-003
     4078.64559      0.58633617E-004
     4082.41324      0.24917713E-004
     4086.18089      0.97278040E-005
     4089.94854      0.34881196E-005
     4093.71619      0.11487010E-005
     4097.48384      0.34742739E-006
     4101.25149      0.96514002E-007
     4105.01914      0.24628260E-007
     4108.78679      0.57737518E-008
     4112.55443      0.12437797E-008
     4116.32208      0.24634998E-009
     4120.08973      0.45736395E-010
     4123.85738      0.14766095E-010
     4127.62503      0.53665756E-010
     4131.39268      0.34784173E-009
     4135.16033      0.21092105E-008
     4138.92798      0.11723836E-007
     4142.69563      0.59709025E-007
     4146.46328      0.27862913E-006
     4150.23093      0.11913223E-005
     4153.99858      0.46671125E-005
     4157.76623      0.16752648E-004
     4161.53388      0.55097880E-004
     4165.30153      0.16603610E-003
     4169.06917      0.45844410E-003
     4172.83682      0.11598090E-002
     4176.60447      0.26884550E-002
     4180.37212      0.57099891E-002
     4184.13977      0.11111790E-001
     4187.90742      0.19812942E-001
     4191.67507      0.32369064E-001
     4195.44272      0.48453766E-001
     4199.21037      0.66457064E-001
     4202.97802      0.83516250E-001
     4206.74567      0.96165000E-001
     4210.51332      0.10145637     
     4214.28097      0.98074882E-001
     4218.04862      0.86866536E-001
     4221.81626      0.70495830E-001
     4225.58391      0.52419222E-001
     4229.35156      0.35713625E-001
     4233.11921      0.22294284E-001
     4236.88686      0.12751736E-001
     4240.65451      0.66828444E-002
     4244.42216      0.32089991E-002
     4248.18981      0.14118679E-002
     4251.95746      0.56916047E-003
     4255.72511      0.21022852E-003
     4259.49276      0.71148336E-004
     4263.26041      0.22062468E-004
     4267.02806      0.62684425E-005
     4270.79571      0.16318544E-005
     4274.56335      0.38924175E-006
     4278.33100      0.85069451E-007
     4282.09865      0.17035075E-007
     4285.86630      0.31255807E-008
     4289.63395      0.52545265E-009
     4293.40160      0.80938038E-010
     4297.16925      0.11423205E-010
     4300.93690      0.14772007E-011
