     1091.58830      0.68449214E-003
     1094.80334      0.80859047E-003
     1098.01838      0.89806755E-003
     1101.23342      0.93946767E-003
     1104.44846      0.92964704E-003
     1107.66350      0.87834350E-003
     1110.87854      0.80734393E-003
     1114.09358      0.74631594E-003
     1117.30862      0.72633001E-003
     1120.52366      0.77255414E-003
     1123.73870      0.89762738E-003
     1126.95373      0.10971180E-002
     1130.16877      0.13483840E-002
     1133.38381      0.16138383E-002
     1136.59885      0.18486914E-002
     1139.81389      0.20116562E-002
     1143.02893      0.20754889E-002
     1146.24397      0.20336473E-002
     1149.45901      0.19004794E-002
     1152.67405      0.17049382E-002
     1155.88909      0.14805610E-002
     1159.10413      0.12558748E-002
     1162.31917      0.10487295E-002
     1165.53421      0.86582643E-003
     1168.74925      0.70624070E-003
     1171.96429      0.56635227E-003
     1175.17933      0.44378081E-003
     1178.39437      0.33920876E-003
     1181.60941      0.25640936E-003
     1184.82445      0.20157079E-003
     1188.03948      0.18286794E-003
     1191.25452      0.21046140E-003
     1194.46956      0.29624432E-003
     1197.68460      0.45223088E-003
     1200.89964      0.68679682E-003
     1204.11468      0.99904743E-003
     1207.32972      0.13730298E-002
     1210.54476      0.17746032E-002
     1213.75980      0.21537099E-002
     1216.97484      0.24531298E-002
     1220.18988      0.26219842E-002
     1223.40492      0.26296169E-002
     1226.61996      0.24745719E-002
     1229.83500      0.21849945E-002
     1233.05004      0.18102663E-002
     1236.26508      0.14072658E-002
     1239.48012      0.10264819E-002
     1242.69516      0.70253482E-003
     1245.91020      0.45115509E-003
     1249.12524      0.27184747E-003
     1252.34028      0.15369726E-003
     1255.55531      0.81535812E-004
     1258.77035      0.40585611E-004
     1261.98539      0.18955585E-004
     1265.20043      0.83069908E-005
     1268.41547      0.34157940E-005
     1271.63051      0.13178957E-005
     1274.84555      0.47710273E-006
     1278.06059      0.16206346E-006
     1281.27563      0.51655198E-007
     1284.49067      0.15456325E-007
     1287.70571      0.43738565E-008
     1290.92075      0.13015592E-008
     1294.13579      0.89609797E-009
     1297.35083      0.22732546E-008
     1300.56587      0.74619452E-008
     1303.78091      0.23575649E-007
     1306.99595      0.70006982E-007
     1310.21099      0.19507753E-006
     1313.42603      0.51005567E-006
     1316.64106      0.12513233E-005
     1319.85610      0.28804670E-005
     1323.07114      0.62215371E-005
     1326.28618      0.12608805E-004
     1329.50122      0.23976818E-004
     1332.71626      0.42780968E-004
     1335.93130      0.71622766E-004
     1339.14634      0.11251048E-003
     1342.36138      0.16583504E-003
     1345.57642      0.22935122E-003
     1348.79146      0.29762350E-003
     1352.00650      0.36238887E-003
     1355.22154      0.41402256E-003
     1358.43658      0.44382835E-003
     1361.65162      0.44642571E-003
     1364.86666      0.42133863E-003
     1368.08170      0.37314659E-003
     1371.29674      0.31014369E-003
     1374.51178      0.24207180E-003
     1377.72682      0.17783479E-003
     1380.94186      0.12402122E-003
     1384.15689      0.84660626E-004
     1387.37193      0.62150207E-004
     1390.58697      0.58921815E-004
     1393.80201      0.79233692E-004
     1397.01705      0.13040750E-003
     1400.23209      0.22282590E-003
     1403.44713      0.36810936E-003
     1406.66217      0.57526360E-003
     1409.87721      0.84535162E-003
     1413.09225      0.11662642E-002
     1416.30729      0.15099520E-002
     1419.52233      0.18343742E-002
     1422.73737      0.20910222E-002
     1425.95241      0.22365157E-002
     1429.16745      0.22445382E-002
     1432.38249      0.21136037E-002
     1435.59753      0.18675040E-002
     1438.81257      0.15482496E-002
     1442.02761      0.12043755E-002
     1445.24264      0.87907213E-003
     1448.45768      0.60204617E-003
     1451.67272      0.38688539E-003
     1454.88776      0.23329386E-003
     1458.10280      0.13203556E-003
     1461.31784      0.70210095E-004
     1464.53288      0.35246906E-004
     1467.74792      0.17070351E-004
     1470.96296      0.86999965E-005
     1474.17800      0.58957175E-005
     1477.39304      0.64209774E-005
     1480.60808      0.92860720E-005
     1483.82312      0.14122766E-004
     1487.03816      0.20716979E-004
     1490.25320      0.28689793E-004
     1493.46824      0.37328927E-004
     1496.68328      0.45585791E-004
     1499.89832      0.52237479E-004
     1503.11336      0.56167326E-004
     1506.32840      0.56667406E-004
     1509.54344      0.53646657E-004
     1512.75847      0.47659987E-004
     1515.97351      0.39747426E-004
     1519.18855      0.31151736E-004
     1522.40359      0.23027672E-004
     1525.61863      0.16246260E-004
     1528.83367      0.11344067E-004
     1532.04871      0.86010241E-005
     1535.26375      0.81816079E-005
     1538.47879      0.10258087E-004
     1541.69383      0.15050666E-004
     1544.90887      0.22759042E-004
     1548.12391      0.33412878E-004
     1551.33895      0.46721536E-004
     1554.55399      0.62034907E-004
     1557.76903      0.78511337E-004
     1560.98407      0.95510177E-004
     1564.19911      0.11310129E-003
     1567.41415      0.13246692E-003
     1570.62919      0.15593767E-003
     1573.84422      0.18650722E-003
     1577.05926      0.22689757E-003
     1580.27430      0.27851039E-003
     1583.48934      0.34076311E-003
     1586.70438      0.41125163E-003
     1589.91942      0.48686972E-003
     1593.13446      0.56553577E-003
     1596.34950      0.64773697E-003
     1599.56454      0.73694754E-003
     1602.77958      0.83829364E-003
     1605.99462      0.95560038E-003
     1609.20966      0.10878818E-002
     1612.42470      0.12269389E-002
     1615.63974      0.13575763E-002
     1618.85478      0.14609313E-002
     1622.06982      0.15199326E-002
     1625.28486      0.15247395E-002
     1628.49990      0.14758450E-002
     1631.71494      0.13835488E-002
     1634.92998      0.12641866E-002
     1638.14502      0.11349330E-002
     1641.36005      0.10094219E-002
     1644.57509      0.89571477E-003
     1647.79013      0.79682774E-003
     1651.00517      0.71287207E-003
     1654.22021      0.64342891E-003
     1657.43525      0.58908303E-003
     1660.65029      0.55171777E-003
     1663.86533      0.53378578E-003
     1667.08037      0.53709768E-003
     1670.29541      0.56173468E-003
     1673.51045      0.60559711E-003
     1676.72549      0.66488026E-003
     1679.94053      0.73539168E-003
     1683.15557      0.81414317E-003
     1686.37061      0.90029580E-003
     1689.58565      0.99462376E-003
     1692.80069      0.10973354E-002
     1696.01573      0.12051087E-002
     1699.23077      0.13089852E-002
     1702.44580      0.13947292E-002
     1705.66084      0.14462248E-002
     1708.87588      0.14508817E-002
     1712.09092      0.14047385E-002
     1715.30596      0.13147770E-002
     1718.52100      0.11971121E-002
     1721.73604      0.10716462E-002
     1724.95108      0.95545772E-003
     1728.16612      0.85774106E-003
     1731.38116      0.77827852E-003
     1734.59620      0.70970200E-003
     1737.81124      0.64212045E-003
     1741.02628      0.56786170E-003
     1744.24132      0.48439117E-003
     1747.45636      0.39459976E-003
     1750.67140      0.30492381E-003
     1753.88644      0.22254928E-003
     1757.10148      0.15300559E-003
     1760.31652      0.98932474E-004
     1763.53156      0.60104444E-004
     1766.74660      0.34289879E-004
     1769.96163      0.18364395E-004
     1773.17667      0.92317407E-005
     1776.39171      0.43577478E-005
     1779.60675      0.19389842E-005
     1782.82179      0.83678366E-006
     1786.03683      0.41847938E-006
     1789.25187      0.40785680E-006
     1792.46691      0.79971031E-006
     1795.68195      0.18602957E-005
     1798.89699      0.42156204E-005
     1802.11203      0.90095404E-005
     1805.32707      0.18079257E-004
     1808.54211      0.34043883E-004
     1811.75715      0.60151189E-004
     1814.97219      0.99722109E-004
     1818.18723      0.15512443E-003
     1821.40227      0.22641770E-003
     1824.61731      0.31008588E-003
     1827.83235      0.39846943E-003
     1831.04738      0.48045139E-003
     1834.26242      0.54355728E-003
     1837.47746      0.57700902E-003
     1840.69250      0.57472661E-003
     1843.90754      0.53713250E-003
     1847.12258      0.47102394E-003
     1850.33762      0.38756624E-003
     1853.55266      0.29921980E-003
     1856.76770      0.21675850E-003
     1859.98274      0.14733413E-003
     1863.19778      0.93966274E-004
     1866.41282      0.56231812E-004
     1869.62786      0.31574288E-004
     1872.84290      0.16635144E-004
     1876.05794      0.82235967E-005
     1879.27298      0.38145801E-005
     1882.48802      0.16605687E-005
     1885.70306      0.67960120E-006
     1888.91810      0.26609351E-006
     1892.13314      0.11634135E-006
     1895.34818      0.10976628E-006
     1898.56321      0.26046837E-006
     1901.77825      0.75530217E-006
     1904.99329      0.21209985E-005
     1908.20833      0.56064331E-005
     1911.42337      0.13909503E-004
     1914.63841      0.32381100E-004
     1917.85345      0.70731739E-004
     1921.06849      0.14497016E-003
     1924.28353      0.27879460E-003
     1927.49857      0.50307357E-003
     1930.71361      0.85176555E-003
     1933.92865      0.13531628E-002
     1937.14369      0.20170723E-002
     1940.35873      0.28212027E-002
     1943.57377      0.37024444E-002
     1946.78881      0.45591534E-002
     1950.00385      0.52677032E-002
     1953.21889      0.57108376E-002
     1956.43393      0.58092456E-002
     1959.64896      0.55447387E-002
     1962.86400      0.49657386E-002
     1966.07904      0.41728046E-002
     1969.29408      0.32901345E-002
     1972.50912      0.24341127E-002
     1975.72416      0.16896982E-002
     1978.93920      0.11005734E-002
     1982.15424      0.67262081E-003
     1985.36928      0.38571188E-003
     1988.58432      0.20753777E-003
     1991.79936      0.10477863E-003
     1995.01440      0.49635188E-004
     1998.22944      0.22062162E-004
     2001.44448      0.92012721E-005
     2004.65952      0.36007180E-005
     2007.87456      0.13221227E-005
     2011.08960      0.45550781E-006
     2014.30464      0.14725204E-006
     2017.51968      0.44665093E-007
     2020.73472      0.12712079E-007
     2023.94976      0.33947385E-008
     2027.16479      0.85062374E-009
     2030.37983      0.19999084E-009
     2033.59487      0.44118843E-010
     2036.80991      0.91322869E-011
     2040.02495      0.17736846E-011
     2043.23999      0.32323224E-012
     2046.45503      0.55270624E-013
     2049.67007      0.88677918E-014
     2052.88511      0.13349900E-014
     2056.10015      0.18857407E-015
     2059.31519      0.24993516E-016
     2062.53023      0.31082372E-017
     2065.74527      0.36269570E-018
     2068.96031      0.39711531E-019
     2072.17535      0.40847898E-020
     2075.39039      0.45189619E-021
     2078.60543      0.66349565E-021
     2081.82047      0.63120892E-020
     2085.03551      0.59479171E-019
     2088.25054      0.52614125E-018
     2091.46558      0.43669975E-017
     2094.68062      0.34009870E-016
     2097.89566      0.24852405E-015
     2101.11070      0.17040145E-014
     2104.32574      0.10962752E-013
     2107.54078      0.66177031E-013
     2110.75582      0.37483178E-012
     2113.97086      0.19920808E-011
     2117.18590      0.99338803E-011
     2120.40094      0.46480663E-010
     2123.61598      0.20406434E-009
     2126.83102      0.84062702E-009
     2130.04606      0.32492340E-008
     2133.26110      0.11784199E-007
     2136.47614      0.40101494E-007
     2139.69118      0.12804495E-006
     2142.90622      0.38362402E-006
     2146.12126      0.10784265E-005
     2149.33630      0.28445706E-005
     2152.55134      0.70401888E-005
     2155.76637      0.16349080E-004
     2158.98141      0.35624087E-004
     2162.19645      0.72834241E-004
     2165.41149      0.13972331E-003
     2168.62653      0.25150323E-003
     2171.84157      0.42477571E-003
     2175.05661      0.67315830E-003
     2178.27165      0.10009587E-002
     2181.48669      0.13965501E-002
     2184.70173      0.18282615E-002
     2187.91677      0.22457506E-002
     2191.13181      0.25883689E-002
     2194.34685      0.27991890E-002
     2197.56189      0.28404012E-002
     2200.77693      0.27043854E-002
     2203.99197      0.24160110E-002
     2207.20701      0.20252127E-002
     2210.42205      0.15928827E-002
     2213.63709      0.11755426E-002
     2216.85213      0.81401866E-003
     2220.06716      0.52889782E-003
     2223.28220      0.32244126E-003
     2226.49724      0.18444669E-003
     2229.71228      0.98999395E-004
     2232.92732      0.49858090E-004
     2236.14236      0.23560264E-004
     2239.35740      0.10446387E-004
     2242.57244      0.43460373E-005
     2245.78748      0.16965327E-005
     2249.00252      0.62140168E-006
     2252.21756      0.21356203E-006
     2255.43260      0.68867937E-007
     2258.64764      0.20837784E-007
     2261.86268      0.59159897E-008
     2265.07772      0.15759583E-008
     2268.29276      0.39391583E-009
     2271.50780      0.92385448E-010
     2274.72284      0.20330363E-010
     2277.93788      0.41978615E-011
     2281.15292      0.81330325E-012
     2284.36795      0.14784898E-012
     2287.58299      0.25218867E-013
     2290.79803      0.40362144E-014
     2294.01307      0.60612794E-015
     2297.22811      0.85407460E-016
     2300.44315      0.11291944E-016
     2303.65819      0.14008224E-017
     2306.87323      0.16305677E-018
     2310.08827      0.17808856E-019
     2313.30331      0.18250494E-020
     2316.51835      0.17549091E-021
     2319.73339      0.15833469E-022
     2322.94843      0.13404140E-023
     2326.16347      0.10647391E-024
     2329.37851      0.79357673E-026
     2332.59355      0.55497836E-027
     2335.80859      0.36417036E-028
     2339.02363      0.22422011E-029
     2342.23867      0.12953465E-030
     2345.45370      0.70216430E-032
     2348.66874      0.35713546E-033
     2351.88378      0.17043886E-034
     2355.09882      0.76321286E-036
     2358.31386      0.32067430E-037
     2361.52890      0.12642241E-038
     2364.74394      0.46765480E-040
     2367.95898      0.16231854E-041
     2371.17402      0.52863061E-043
     2374.38906      0.16153919E-044
     2377.60410      0.46317477E-046
     2380.81914      0.12461012E-047
     2384.03418      0.31455976E-049
     2387.24922      0.74506547E-051
     2390.46426      0.16558734E-052
     2393.67930      0.34530370E-054
     2396.89434      0.67564219E-056
     2400.10938      0.12404341E-057
     2403.32442      0.21368403E-059
     2406.53946      0.34539167E-061
     2409.75450      0.52383326E-063
     2412.96953      0.74544516E-065
     2416.18457      0.99535900E-067
     2419.39961      0.12470539E-068
     2422.61465      0.14659937E-070
     2425.82969      0.16170387E-072
     2429.04473      0.16735941E-074
     2432.25977      0.16252542E-076
     2435.47481      0.14809277E-078
     2438.68985      0.12661579E-080
     2441.90489      0.10157417E-082
     2445.11993      0.76457501E-085
     2448.33497      0.54000571E-087
     2451.55001      0.35786401E-089
     2454.76505      0.22252516E-091
     2457.98009      0.12983196E-093
     2461.19513      0.71076422E-096
     2464.41017      0.36509923E-098
     2467.62521      0.17596961E-100
     2470.84025      0.79580356E-103
     2474.05529      0.33768789E-105
     2477.27032      0.13445177E-107
     2480.48536      0.50229514E-110
     2483.70040      0.17607304E-112
     2486.91544      0.57911944E-115
     2490.13048      0.17872482E-117
     2493.34552      0.51753889E-120
     2496.56056      0.14061853E-122
     2499.77560       0.0000000     
     2502.99064       0.0000000     
     2506.20568       0.0000000     
     2509.42072       0.0000000     
     2512.63576       0.0000000     
     2515.85080       0.0000000     
     2519.06584       0.0000000     
     2522.28088       0.0000000     
     2525.49592       0.0000000     
     2528.71096       0.0000000     
     2531.92600       0.0000000     
     2535.14104       0.0000000     
     2538.35608       0.0000000     
     2541.57111       0.0000000     
     2544.78615       0.0000000     
     2548.00119       0.0000000     
     2551.21623       0.0000000     
     2554.43127       0.0000000     
     2557.64631       0.0000000     
     2560.86135       0.0000000     
     2564.07639       0.0000000     
     2567.29143       0.0000000     
     2570.50647       0.0000000     
     2573.72151       0.0000000     
     2576.93655       0.0000000     
     2580.15159       0.0000000     
     2583.36663       0.0000000     
     2586.58167       0.0000000     
     2589.79671       0.0000000     
     2593.01175       0.0000000     
     2596.22679       0.0000000     
     2599.44183       0.0000000     
     2602.65686       0.0000000     
     2605.87190       0.0000000     
     2609.08694       0.0000000     
     2612.30198       0.0000000     
     2615.51702       0.0000000     
     2618.73206       0.0000000     
     2621.94710       0.0000000     
     2625.16214       0.0000000     
     2628.37718       0.0000000     
     2631.59222       0.0000000     
     2634.80726      0.19793522E-120
     2638.02230      0.69533708E-118
     2641.23734      0.22919711E-115
     2644.45238      0.70886624E-113
     2647.66742      0.20571259E-110
     2650.88246      0.56014296E-108
     2654.09750      0.14311274E-105
     2657.31254      0.34308296E-103
     2660.52758      0.77172295E-101
     2663.74262      0.16287900E-098
     2666.95766      0.32255977E-096
     2670.17269      0.59937238E-094
     2673.38773      0.10450202E-091
     2676.60277      0.17095982E-089
     2679.81781      0.26242477E-087
     2683.03285      0.37796974E-085
     2686.24789      0.51079973E-083
     2689.46293      0.64771761E-081
     2692.67797      0.77065885E-079
     2695.89301      0.86035970E-077
     2699.10805      0.90123773E-075
     2702.32309      0.88580901E-073
     2705.53813      0.81692510E-071
     2708.75317      0.70691274E-069
     2711.96821      0.57397212E-067
     2715.18325      0.43727757E-065
     2718.39829      0.31258277E-063
     2721.61333      0.20965937E-061
     2724.82837      0.13194865E-059
     2728.04341      0.77917864E-058
     2731.25845      0.43172833E-056
     2734.47348      0.22445303E-054
     2737.68852      0.10949186E-052
     2740.90356      0.50116369E-051
     2744.11860      0.21523792E-049
     2747.33364      0.86736001E-048
     2750.54868      0.32796041E-046
     2753.76372      0.11635495E-044
     2756.97876      0.38733768E-043
     2760.19380      0.12098626E-041
     2763.40884      0.35458777E-040
     2766.62388      0.97510837E-039
     2769.83892      0.25160741E-037
     2773.05396      0.60916565E-036
     2776.26900      0.13838493E-034
     2779.48404      0.29497392E-033
     2782.69908      0.58995630E-032
     2785.91412      0.11071271E-030
     2789.12916      0.19494701E-029
     2792.34420      0.32208987E-028
     2795.55924      0.49932002E-027
     2798.77427      0.72631049E-026
     2801.98931      0.99130448E-025
     2805.20435      0.12695016E-023
     2808.41939      0.15254600E-022
     2811.63443      0.17199264E-021
     2814.84947      0.18195345E-020
     2818.06451      0.18061430E-019
     2821.27955      0.16822302E-018
     2824.49459      0.14701448E-017
     2827.70963      0.12055250E-016
     2830.92467      0.92754239E-016
     2834.13971      0.66962664E-015
     2837.35475      0.45360006E-014
     2840.56979      0.28830681E-013
     2843.78483      0.17194047E-012
     2846.99987      0.96214993E-012
     2850.21491      0.50518309E-011
     2853.42995      0.24888360E-010
     2856.64499      0.11504962E-009
     2859.86002      0.49901719E-009
     2863.07506      0.20308939E-008
     2866.29010      0.77553321E-008
     2869.50514      0.27787852E-007
     2872.72018      0.93422391E-007
     2875.93522      0.29470561E-006
     2879.15026      0.87230274E-006
     2882.36530      0.24226323E-005
     2885.58034      0.63131946E-005
     2888.79538      0.15436622E-004
     2892.01042      0.35415779E-004
     2895.22546      0.76239974E-004
     2898.44050      0.15399623E-003
     2901.65554      0.29186289E-003
     2904.87058      0.51902596E-003
     2908.08562      0.86604549E-003
     2911.30066      0.13559190E-002
     2914.51570      0.19919031E-002
     2917.73074      0.27456432E-002
     2920.94578      0.35510877E-002
     2924.16082      0.43094329E-002
     2927.37585      0.49070475E-002
     2930.59089      0.52427823E-002
     2933.80593      0.52558723E-002
     2937.02097      0.49438947E-002
     2940.23601      0.43635006E-002
     2943.45105      0.36136183E-002
     2946.66609      0.28079602E-002
     2949.88113      0.20472978E-002
     2953.09617      0.14005949E-002
     2956.31121      0.89905334E-003
     2959.52625      0.54150168E-003
     2962.74129      0.30602406E-003
     2965.95633      0.16227543E-003
     2969.17137      0.80740486E-004
     2972.38641      0.37693927E-004
     2975.60145      0.16511740E-004
     2978.81649      0.67866539E-005
     2982.03153      0.26173391E-005
     2985.24657      0.94712150E-006
     2988.46161      0.32158281E-006
     2991.67664      0.10245222E-006
     2994.89168      0.30626075E-007
     2998.10672      0.85901891E-008
     3001.32176      0.22607656E-008
     3004.53680      0.55827703E-009
     3007.75184      0.12935565E-009
     3010.96688      0.28123054E-010
     3014.18192      0.57369488E-011
     3017.39696      0.10980974E-011
     3020.61200      0.19721603E-012
     3023.82704      0.33234179E-013
     3027.04208      0.52549565E-014
     3030.25712      0.77964109E-015
     3033.47216      0.10853298E-015
     3036.68720      0.14176537E-016
     3039.90224      0.17374808E-017
     3043.11728      0.19980727E-018
     3046.33232      0.21559763E-019
     3049.54736      0.21828208E-020
     3052.76240      0.20736412E-021
     3055.97743      0.18483771E-022
     3059.19247      0.15459269E-023
     3062.40751      0.12131898E-024
     3065.62255      0.89332595E-026
     3068.83759      0.61720947E-027
     3072.05263      0.40012587E-028
     3075.26767      0.24338965E-029
     3078.48271      0.13891495E-030
     3081.69775      0.74393898E-032
     3084.91279      0.37382389E-033
     3088.12783      0.17625368E-034
     3091.34287      0.77974173E-036
     3094.55791      0.32367173E-037
     3097.77295      0.12606664E-038
     3100.98799      0.46071996E-040
     3104.20303      0.15798479E-041
     3107.41807      0.50831738E-043
     3110.63311      0.15346030E-044
     3113.84815      0.43470894E-046
     3117.06318      0.11554270E-047
     3120.27822      0.28815613E-049
     3123.49326      0.67430230E-051
     3126.70830      0.14805492E-052
     3129.92334      0.30502290E-054
     3133.13838      0.58963532E-056
     3136.35342      0.10694881E-057
     3139.56846      0.18201611E-059
     3142.78350      0.29065990E-061
     3145.99854      0.43551372E-063
     3149.21358      0.61229397E-065
     3152.42862      0.80771759E-067
     3155.64366      0.99977097E-069
     3158.85870      0.11611355E-070
     3162.07374      0.12653385E-072
     3165.28878      0.12938144E-074
     3168.50382      0.12413054E-076
     3171.71886      0.11174464E-078
     3174.93390      0.94387877E-081
     3178.14894      0.74807844E-083
     3181.36398      0.55631335E-085
     3184.57901      0.38818008E-087
     3187.79405      0.25414901E-089
     3191.00909      0.15612952E-091
     3194.22413      0.89995967E-094
     3197.43917      0.48674611E-096
     3200.65421      0.24701501E-098
     3203.86925      0.11762121E-100
     3207.08429      0.52552011E-103
     3210.29933      0.22031013E-105
     3213.51437      0.86660463E-108
     3216.72941      0.31985192E-110
     3219.94445      0.11076903E-112
     3223.15949      0.35993921E-115
     3226.37453      0.10974415E-117
     3229.58957      0.31396051E-120
     3232.80461       0.0000000     
     3236.01965       0.0000000     
     3239.23469       0.0000000     
     3242.44973       0.0000000     
     3245.66477      0.14373144E-119
     3248.87980      0.49804170E-117
     3252.09484      0.16192767E-114
     3255.30988      0.49398962E-112
     3258.52492      0.14140215E-109
     3261.73996      0.37978309E-107
     3264.95500      0.95709855E-105
     3268.17004      0.22631801E-102
     3271.38508      0.50213787E-100
     3274.60012      0.10453658E-097
     3277.81516      0.20419964E-095
     3281.03020      0.37426836E-093
     3284.24524      0.64365428E-091
     3287.46028      0.10386366E-088
     3290.67532      0.15725919E-086
     3293.89036      0.22341372E-084
     3297.10540      0.29781397E-082
     3300.32044      0.37249610E-080
     3303.53548      0.43715938E-078
     3306.75052      0.48139247E-076
     3309.96556      0.49739361E-074
     3313.18059      0.48221702E-072
     3316.39563      0.43865824E-070
     3319.61067      0.37441347E-068
     3322.82571      0.29985967E-066
     3326.04075      0.22533366E-064
     3329.25579      0.15888230E-062
     3332.47083      0.10511540E-060
     3335.68587      0.65252723E-059
     3338.90091      0.38007765E-057
     3342.11595      0.20772437E-055
     3345.33099      0.10652315E-053
     3348.54603      0.51255673E-052
     3351.76107      0.23140957E-050
     3354.97611      0.98030703E-049
     3358.19115      0.38965866E-047
     3361.40619      0.14532756E-045
     3364.62123      0.50857268E-044
     3367.83627      0.16699348E-042
     3371.05131      0.51450240E-041
     3374.26635      0.14873621E-039
     3377.48138      0.40344790E-038
     3380.69642      0.10268325E-036
     3383.91146      0.24521848E-035
     3387.12650      0.54947533E-034
     3390.34154      0.11552730E-032
     3393.55658      0.22790951E-031
     3396.77162      0.42187298E-030
     3399.98666      0.73272733E-029
     3403.20170      0.11941104E-027
     3406.41674      0.18259464E-026
     3409.63178      0.26198291E-025
     3412.84682      0.35269501E-024
     3416.06186      0.44551989E-023
     3419.27690      0.52805152E-022
     3422.49194      0.58725526E-021
     3425.70698      0.61280029E-020
     3428.92202      0.60000162E-019
     3432.13706      0.55122297E-018
     3435.35210      0.47516408E-017
     3438.56714      0.38432738E-016
     3441.78217      0.29167585E-015
     3444.99721      0.20770217E-014
     3448.21225      0.13877876E-013
     3451.42729      0.87005443E-013
     3454.64233      0.51181292E-012
     3457.85737      0.28249937E-011
     3461.07241      0.14630702E-010
     3464.28745      0.71097485E-010
     3467.50249      0.32417890E-009
     3470.71753      0.13869368E-008
     3473.93257      0.55676254E-008
     3477.14761      0.20971272E-007
     3480.36265      0.74117534E-007
     3483.57769      0.24578681E-006
     3486.79273      0.76478189E-006
     3490.00777      0.22328422E-005
     3493.22281      0.61167384E-005
     3496.43785      0.15722558E-004
     3499.65289      0.37919963E-004
     3502.86793      0.85813186E-004
     3506.08296      0.18221393E-003
     3509.29800      0.36303671E-003
     3512.51304      0.67867356E-003
     3515.72808      0.11904543E-002
     3518.94312      0.19593227E-002
     3522.15816      0.30258028E-002
     3525.37320      0.43844658E-002
     3528.58824      0.59612066E-002
     3531.80328      0.76048925E-002
     3535.01832      0.91031858E-002
     3538.23336      0.10224337E-001
     3541.44840      0.10775026E-001
     3544.66344      0.10654742E-001
     3547.87848      0.98857342E-002
     3551.09352      0.86062976E-002
     3554.30856      0.70301600E-002
     3557.52360      0.53883461E-002
     3560.73864      0.38751380E-002
     3563.95368      0.26149313E-002
     3567.16872      0.16556739E-002
     3570.38375      0.98362774E-003
     3573.59879      0.54831249E-003
     3576.81383      0.28679193E-003
     3580.02887      0.14074959E-003
     3583.24391      0.64813993E-004
     3586.45895      0.28004758E-004
     3589.67399      0.11353671E-004
     3592.88903      0.43189900E-005
     3596.10407      0.15415922E-005
     3599.31911      0.51629538E-006
     3602.53415      0.16224391E-006
     3605.74919      0.47838766E-007
     3608.96423      0.13235275E-007
     3612.17927      0.34357961E-008
     3615.39431      0.83688005E-009
     3618.60935      0.19126719E-009
     3621.82439      0.41016552E-010
     3625.03943      0.82531406E-011
     3628.25447      0.15581912E-011
     3631.46951      0.27603471E-012
     3634.68454      0.45882603E-013
     3637.89958      0.71560576E-014
     3641.11462      0.10472275E-014
     3644.32966      0.14379694E-015
     3647.54470      0.18526769E-016
     3650.75974      0.22397069E-017
     3653.97478      0.25405565E-018
     3657.18982      0.27072991E-019
     3660.40486      0.30721576E-020
     3663.61990      0.41243290E-020
     3666.83494      0.37839783E-019
     3670.04998      0.34663609E-018
     3673.26502      0.29812036E-017
     3676.48006      0.24057683E-016
     3679.69510      0.18216219E-015
     3682.91014      0.12942112E-014
     3686.12518      0.86276986E-014
     3689.34022      0.53966974E-013
     3692.55526      0.31674159E-012
     3695.77030      0.17443226E-011
     3698.98533      0.90135171E-011
     3702.20037      0.43702762E-010
     3705.41541      0.19882566E-009
     3708.63045      0.84876473E-009
     3711.84549      0.33998261E-008
     3715.06053      0.12778643E-007
     3718.27557      0.45068891E-007
     3721.49061      0.14915587E-006
     3724.70565      0.46321717E-006
     3727.92069      0.13499643E-005
     3731.13573      0.36920681E-005
     3734.35077      0.94765123E-005
     3737.56581      0.22829017E-004
     3740.78085      0.51620600E-004
     3743.99589      0.10957337E-003
     3747.21093      0.21837210E-003
     3750.42597      0.40867977E-003
     3753.64101      0.71840928E-003
     3756.85605      0.11866014E-002
     3760.07109      0.18423169E-002
     3763.28612      0.26901979E-002
     3766.50116      0.36971049E-002
     3769.71620      0.47859754E-002
     3772.93124      0.58421512E-002
     3776.14628      0.67333388E-002
     3779.36132      0.73385266E-002
     3782.57636      0.75765433E-002
     3785.79140      0.74243117E-002
     3789.00644      0.69188992E-002
     3792.22148      0.61440760E-002
     3795.43652      0.52077197E-002
     3798.65156      0.42183973E-002
     3801.86660      0.32675887E-002
     3805.08164      0.24202163E-002
     3808.29668      0.17127672E-002
     3811.51172      0.11566302E-002
     3814.72676      0.74418492E-003
     3817.94180      0.45580241E-003
     3821.15684      0.26655393E-003
     3824.37188      0.15187847E-003
     3827.58691      0.91832467E-004
     3830.80195      0.73902509E-004
     3834.01699      0.94592036E-004
     3837.23203      0.15993641E-003
     3840.44707      0.28473741E-003
     3843.66211      0.48986960E-003
     3846.87715      0.79692302E-003
     3850.09219      0.12201125E-002
     3853.30723      0.17568541E-002
     3856.52227      0.23801307E-002
     3859.73731      0.30366401E-002
     3862.95235      0.36536666E-002
     3866.16739      0.41544300E-002
     3869.38243      0.44775543E-002
     3872.59747      0.45935259E-002
     3875.81251      0.45115411E-002
     3879.02755      0.42741712E-002
     3882.24259      0.39427603E-002
     3885.45763      0.35803015E-002
     3888.67267      0.32385626E-002
     3891.88770      0.29527448E-002
     3895.10274      0.27424361E-002
     3898.31778      0.26149322E-002
     3901.53282      0.25674503E-002
     3904.74786      0.25874164E-002
     3907.96290      0.26525932E-002
     3911.17794      0.27334753E-002
     3914.39298      0.27988628E-002
     3917.60802      0.28231392E-002
     3920.82306      0.27922810E-002
     3924.03810      0.27059927E-002
     3927.25314      0.25752476E-002
     3930.46818      0.24166829E-002
     3933.68322      0.22464976E-002
     3936.89826      0.20762705E-002
     3940.11330      0.19118253E-002
     3943.32834      0.17547705E-002
     3946.54338      0.16053346E-002
     3949.75842      0.14648902E-002
     3952.97346      0.13369937E-002
     3956.18849      0.12265861E-002
     3959.40353      0.11378635E-002
     3962.61857      0.10719526E-002
     3965.83361      0.10256497E-002
     3969.04865      0.99202039E-003
     3972.26369      0.96276732E-003
     3975.47873      0.93136319E-003
     3978.69377      0.89548437E-003
     3981.90881      0.85753995E-003
     3985.12385      0.82297184E-003
     3988.33889      0.79707696E-003
     3991.55393      0.78183139E-003
     3994.76897      0.77421258E-003
     3997.98401      0.76681099E-003
     4001.19905      0.75044989E-003
     4004.41409      0.71762335E-003
     4007.62913      0.66525456E-003
     4010.84417      0.59568447E-003
     4014.05921      0.51566936E-003
     4017.27425      0.43402519E-003
     4020.48928      0.35899519E-003
     4023.70432      0.29630193E-003
     4026.91936      0.24834975E-003
     4030.13440      0.21449443E-003
     4033.34944      0.19196150E-003
     4036.56448      0.17694740E-003
     4039.77952      0.16558552E-003
     4042.99456      0.15464522E-003
     4046.20960      0.14195063E-003
     4049.42464      0.12654189E-003
     4052.63968      0.10859970E-003
     4055.85472      0.89164610E-004
     4059.06976      0.69719731E-004
     4062.28480      0.51745294E-004
     4065.49984      0.36362562E-004
     4068.71488      0.24148018E-004
     4071.92992      0.15132655E-004
     4075.14496      0.89383765E-005
     4078.36000      0.49718904E-005
     4081.57504      0.26025254E-005
     4084.79007      0.12812489E-005
     4088.00511      0.59298189E-006
     4091.22015      0.25790642E-006
     4094.43519      0.10538290E-006
     4097.65023      0.40444969E-007
     4100.86527      0.14576862E-007
     4104.08031      0.49329110E-008
     4107.29535      0.15672179E-008
     4110.51039      0.46741171E-009
     4113.72543      0.13085171E-009
     4116.94047      0.34382848E-010
     4120.15551      0.84799710E-011
     4123.37055      0.19668444E-011
     4126.58559      0.45266091E-012
     4129.80063      0.23891153E-012
     4133.01567      0.83889999E-012
     4136.23071      0.41764177E-011
     4139.44575      0.19875647E-010
     4142.66079      0.88811432E-010
     4145.87583      0.37236437E-009
     4149.09086      0.14649039E-008
     4152.30590      0.54074386E-008
     4155.52094      0.18729038E-007
     4158.73598      0.60866842E-007
     4161.95102      0.18560407E-006
     4165.16606      0.53105026E-006
     4168.38110      0.14256903E-005
     4171.59614      0.35913370E-005
     4174.81118      0.84884533E-005
     4178.02622      0.18825321E-004
     4181.24126      0.39173973E-004
     4184.45630      0.76488172E-004
     4187.67134      0.14013040E-003
     4190.88638      0.24088617E-003
     4194.10142      0.38853736E-003
     4197.31646      0.58802410E-003
     4200.53150      0.83502386E-003
     4203.74654      0.11126128E-002
     4206.96158      0.13910113E-002
     4210.17662      0.16317690E-002
     4213.39165      0.17960902E-002
     4216.60669      0.18549790E-002
     4219.82173      0.17975926E-002
     4223.03677      0.16345002E-002
     4226.25181      0.13945051E-002
     4229.46685      0.11163404E-002
     4232.68189      0.83852229E-003
     4235.89693      0.59098165E-003
     4239.11197      0.39081821E-003
     4242.32701      0.24250295E-003
     4245.54205      0.14118894E-003
     4248.75709      0.77130426E-004
     4251.97213      0.39535953E-004
     4255.18717      0.19015166E-004
     4258.40221      0.85812280E-005
     4261.61725      0.36336257E-005
     4264.83229      0.14436847E-005
     4268.04733      0.53820278E-006
     4271.26237      0.18826125E-006
     4274.47741      0.61789883E-007
     4277.69244      0.19028967E-007
     4280.90748      0.54986299E-008
     4284.12252      0.14908542E-008
     4287.33756      0.37927767E-009
     4290.55260      0.90535897E-010
     4293.76764      0.20278030E-010
     4296.98268      0.42615945E-011
     4300.19772      0.84034943E-012
     4303.41276      0.15548522E-012
     4306.62780      0.26993534E-013
