      577.98080      0.32338938E-010
      578.16080      0.30299058E-010
      578.34080      0.28382333E-010
      578.52080      0.26581693E-010
      578.70080      0.24890451E-010
      578.88080      0.23302283E-010
      579.06080      0.21811208E-010
      579.24080      0.20411575E-010
      579.42080      0.19098042E-010
      579.60080      0.17865563E-010
      579.78080      0.16709371E-010
      579.96080      0.15624963E-010
      580.14080      0.14608088E-010
      580.32080      0.13654735E-010
      580.50080      0.12761116E-010
      580.68080      0.11923658E-010
      580.86080      0.11138991E-010
      581.04080      0.10403935E-010
      581.22080      0.97154938E-011
      581.40080      0.90708414E-011
      581.58080      0.84673150E-011
      581.76080      0.79024052E-011
      581.94080      0.73737481E-011
      582.12080      0.68791175E-011
      582.30080      0.64164170E-011
      582.48080      0.59836728E-011
      582.66080      0.55790275E-011
      582.84080      0.52007331E-011
      583.02080      0.48471452E-011
      583.20080      0.45167171E-011
      583.38080      0.42079941E-011
      583.56080      0.39196090E-011
      583.74080      0.36502764E-011
      583.92080      0.33987884E-011
      584.10080      0.31640103E-011
      584.28080      0.29448759E-011
      584.46080      0.27403845E-011
      584.64080      0.25495959E-011
      584.82080      0.23716281E-011
      585.00080      0.22056529E-011
      585.18080      0.20508936E-011
      585.36080      0.19066214E-011
      585.54080      0.17721529E-011
      585.72080      0.16468471E-011
      585.90080      0.15301033E-011
      586.08080      0.14213585E-011
      586.26080      0.13200850E-011
      586.44080      0.12257887E-011
      586.62080      0.11380065E-011
      586.80080      0.10563051E-011
      586.98080      0.98027847E-012
      587.16080      0.90954686E-012
      587.34080      0.84375479E-012
      587.52080      0.78256970E-012
      587.70080      0.72568050E-012
      587.88080      0.67279630E-012
      588.06080      0.62364513E-012
      588.24080      0.57797274E-012
      588.42080      0.53554153E-012
      588.60080      0.49612953E-012
      588.78080      0.45952935E-012
      588.96080      0.42554732E-012
      589.14080      0.39400263E-012
      589.32080      0.36472644E-012
      589.50080      0.33756123E-012
      589.68080      0.31235997E-012
      589.86080      0.28898553E-012
      590.04080      0.26731000E-012
      590.22080      0.24721410E-012
      590.40080      0.22858665E-012
      590.58080      0.21132402E-012
      590.76080      0.19532964E-012
      590.94080      0.18051353E-012
      591.12080      0.16679192E-012
      591.30080      0.15408677E-012
      591.48080      0.14232545E-012
      591.66080      0.13144035E-012
      591.84080      0.12136856E-012
      592.02080      0.11205157E-012
      592.20080      0.10343495E-012
      592.38080      0.95468103E-013
      592.56080      0.88103985E-013
      592.74080      0.81298889E-013
      592.92080      0.75012208E-013
      593.10080      0.69206229E-013
      593.28080      0.63845941E-013
      593.46080      0.58898846E-013
      593.64080      0.54334793E-013
      593.82080      0.50125820E-013
      594.00080      0.46246002E-013
      594.18080      0.42671313E-013
      594.36080      0.39379502E-013
      594.54080      0.36349966E-013
      594.72080      0.33563639E-013
      594.90080      0.31002894E-013
      595.08080      0.28651438E-013
      595.26080      0.26494224E-013
      595.44080      0.24517372E-013
      595.62080      0.22708082E-013
      595.80080      0.21054570E-013
      595.98080      0.19545997E-013
      596.16080      0.18172405E-013
      596.34080      0.16924665E-013
      596.52080      0.15794417E-013
      596.70080      0.14774028E-013
      596.88080      0.13856540E-013
      597.06080      0.13035635E-013
      597.24080      0.12305591E-013
      597.42080      0.11661249E-013
      597.60080      0.11097983E-013
      597.78080      0.10611670E-013
      597.96080      0.10198661E-013
      598.14080      0.98557600E-014
      598.32080      0.95802027E-014
      598.50080      0.93696353E-014
      598.68080      0.92220997E-014
      598.86080      0.91360174E-014
      599.04080      0.91101774E-014
      599.22080      0.91437254E-014
      599.40080      0.92361542E-014
      599.58080      0.93872975E-014
      599.76080      0.95973233E-014
      599.94080      0.98667312E-014
      600.12080      0.10196349E-013
      600.30080      0.10587335E-013
      600.48080      0.11041174E-013
      600.66080      0.11559684E-013
      600.84080      0.12145022E-013
      601.02080      0.12799682E-013
      601.20080      0.13526511E-013
      601.38080      0.14328711E-013
      601.56080      0.15209855E-013
      601.74080      0.16173892E-013
      601.92080      0.17225169E-013
      602.10080      0.18368436E-013
      602.28080      0.19608870E-013
      602.46080      0.20952092E-013
      602.64080      0.22404184E-013
      602.82080      0.23971711E-013
      603.00080      0.25661750E-013
      603.18080      0.27481905E-013
      603.36080      0.29440345E-013
      603.54080      0.31545827E-013
      603.72080      0.33807725E-013
      603.90080      0.36236071E-013
      604.08080      0.38841582E-013
      604.26080      0.41635704E-013
      604.44080      0.44630650E-013
      604.62080      0.47839439E-013
      604.80080      0.51275946E-013
      604.98080      0.54954950E-013
      605.16080      0.58892178E-013
      605.34080      0.63104368E-013
      605.52080      0.67609316E-013
      605.70080      0.72425943E-013
      605.88080      0.77574354E-013
      606.06080      0.83075905E-013
      606.24080      0.88953276E-013
      606.42080      0.95230539E-013
      606.60080      0.10193324E-012
      606.78080      0.10908849E-012
      606.96080      0.11672502E-012
      607.14080      0.12487331E-012
      607.32080      0.13356566E-012
      607.50080      0.14283630E-012
      607.68080      0.15272149E-012
      607.86080      0.16325964E-012
      608.04080      0.17449141E-012
      608.22080      0.18645984E-012
      608.40080      0.19921048E-012
      608.58080      0.21279154E-012
      608.76080      0.22725398E-012
      608.94080      0.24265172E-012
      609.12080      0.25904174E-012
      609.30080      0.27648429E-012
      609.48080      0.29504301E-012
      609.66080      0.31478517E-012
      609.84080      0.33578177E-012
      610.02080      0.35810781E-012
      610.20080      0.38184247E-012
      610.38080      0.40706931E-012
      610.56080      0.43387649E-012
      610.74080      0.46235701E-012
      610.92080      0.49260897E-012
      611.10080      0.52473580E-012
      611.28080      0.55884650E-012
      611.46080      0.59505598E-012
      611.64080      0.63348530E-012
      611.82080      0.67426197E-012
      612.00080      0.71752027E-012
      612.18080      0.76340160E-012
      612.36080      0.81205477E-012
      612.54080      0.86363640E-012
      612.72080      0.91831124E-012
      612.90080      0.97625260E-012
      613.08080      0.10376427E-011
      613.26080      0.11026732E-011
      613.44080      0.11715454E-011
      613.62080      0.12444709E-011
      613.80080      0.13216720E-011
      613.98080      0.14033821E-011
      614.16080      0.14898464E-011
      614.34080      0.15813223E-011
      614.52080      0.16780798E-011
      614.70080      0.17804021E-011
      614.88080      0.18885867E-011
      615.06080      0.20029452E-011
      615.24080      0.21238043E-011
      615.42080      0.22515067E-011
      615.60080      0.23864113E-011
      615.78080      0.25288942E-011
      615.96080      0.26793492E-011
      616.14080      0.28381888E-011
      616.32080      0.30058448E-011
      616.50080      0.31827691E-011
      616.68080      0.33694345E-011
      616.86080      0.35663356E-011
      617.04080      0.37739896E-011
      617.22080      0.39929374E-011
      617.40080      0.42237441E-011
      617.58080      0.44670005E-011
      617.76080      0.47233237E-011
      617.94080      0.49933582E-011
      618.12080      0.52777770E-011
      618.30080      0.55772827E-011
      618.48080      0.58926084E-011
      618.66080      0.62245191E-011
      618.84080      0.65738128E-011
      619.02080      0.69413216E-011
      619.20080      0.73279130E-011
      619.38080      0.77344911E-011
      619.56080      0.81619981E-011
      619.74080      0.86114153E-011
      619.92080      0.90837649E-011
      620.10080      0.95801110E-011
      620.28080      0.10101561E-010
      620.46080      0.10649268E-010
      620.64080      0.11224431E-010
      620.82080      0.11828296E-010
      621.00080      0.12462161E-010
      621.18080      0.13127373E-010
      621.36080      0.13825333E-010
      621.54080      0.14557496E-010
      621.72080      0.15325374E-010
      621.90080      0.16130535E-010
      622.08080      0.16974608E-010
      622.26080      0.17859284E-010
      622.44080      0.18786317E-010
      622.62080      0.19757525E-010
      622.80080      0.20774795E-010
      622.98080      0.21840082E-010
      623.16080      0.22955411E-010
      623.34080      0.24122882E-010
      623.52080      0.25344668E-010
      623.70080      0.26623021E-010
      623.88080      0.27960269E-010
      624.06080      0.29358826E-010
      624.24080      0.30821184E-010
      624.42080      0.32349923E-010
      624.60080      0.33947710E-010
      624.78080      0.35617303E-010
      624.96080      0.37361549E-010
      625.14080      0.39183391E-010
      625.32080      0.41085869E-010
      625.50080      0.43072118E-010
      625.68080      0.45145377E-010
      625.86080      0.47308987E-010
      626.04080      0.49566393E-010
      626.22080      0.51921147E-010
      626.40080      0.54376914E-010
      626.58080      0.56937465E-010
      626.76080      0.59606690E-010
      626.94080      0.62388593E-010
      627.12080      0.65287295E-010
      627.30080      0.68307040E-010
      627.48080      0.71452192E-010
      627.66080      0.74727241E-010
      627.84080      0.78136805E-010
      628.02080      0.81685628E-010
      628.20080      0.85378586E-010
      628.38080      0.89220688E-010
      628.56080      0.93217076E-010
      628.74080      0.97373032E-010
      628.92080      0.10169397E-009
      629.10080      0.10618546E-009
      629.28080      0.11085318E-009
      629.46080      0.11570299E-009
      629.64080      0.12074088E-009
      629.82080      0.12597297E-009
      630.00080      0.13140555E-009
      630.18080      0.13704505E-009
      630.36080      0.14289804E-009
      630.54080      0.14897127E-009
      630.72080      0.15527162E-009
      630.90080      0.16180612E-009
      631.08080      0.16858196E-009
      631.26080      0.17560649E-009
      631.44080      0.18288721E-009
      631.62080      0.19043177E-009
      631.80080      0.19824798E-009
      631.98080      0.20634381E-009
      632.16080      0.21472738E-009
      632.34080      0.22340697E-009
      632.52080      0.23239100E-009
      632.70080      0.24168805E-009
      632.88080      0.25130688E-009
      633.06080      0.26125636E-009
      633.24080      0.27154554E-009
      633.42080      0.28218361E-009
      633.60080      0.29317989E-009
      633.78080      0.30454389E-009
      633.96080      0.31628523E-009
      634.14080      0.32841367E-009
      634.32080      0.34093913E-009
      634.50080      0.35387165E-009
      634.68080      0.36722141E-009
      634.86080      0.38099873E-009
      635.04080      0.39521403E-009
      635.22080      0.40987789E-009
      635.40080      0.42500098E-009
      635.58080      0.44059410E-009
      635.76080      0.45666815E-009
      635.94080      0.47323414E-009
      636.12080      0.49030320E-009
      636.30080      0.50788652E-009
      636.48080      0.52599540E-009
      636.66080      0.54464122E-009
      636.84080      0.56383544E-009
      637.02080      0.58358960E-009
      637.20080      0.60391528E-009
      637.38080      0.62482413E-009
      637.56080      0.64632786E-009
      637.74080      0.66843819E-009
      637.92080      0.69116692E-009
      638.10080      0.71452583E-009
      638.28080      0.73852675E-009
      638.46080      0.76318148E-009
      638.64080      0.78850187E-009
      638.82080      0.81449970E-009
      639.00080      0.84118678E-009
      639.18080      0.86857484E-009
      639.36080      0.89667562E-009
      639.54080      0.92550076E-009
      639.72080      0.95506185E-009
      639.90080      0.98537042E-009
      640.08080      0.10164379E-008
      640.26080      0.10482756E-008
      640.44080      0.10808948E-008
      640.62080      0.11143065E-008
      640.80080      0.11485217E-008
      640.98080      0.11835512E-008
      641.16080      0.12194056E-008
      641.34080      0.12560954E-008
      641.52080      0.12936309E-008
      641.70080      0.13320222E-008
      641.88080      0.13712789E-008
      642.06080      0.14114109E-008
      642.24080      0.14524274E-008
      642.42080      0.14943376E-008
      642.60080      0.15371501E-008
      642.78080      0.15808737E-008
      642.96080      0.16255164E-008
      643.14080      0.16710861E-008
      643.32080      0.17175905E-008
      643.50080      0.17650366E-008
      643.68080      0.18134313E-008
      643.86080      0.18627810E-008
      644.04080      0.19130918E-008
      644.22080      0.19643692E-008
      644.40080      0.20166183E-008
      644.58080      0.20698441E-008
      644.76080      0.21240505E-008
      644.94080      0.21792415E-008
      645.12080      0.22354202E-008
      645.30080      0.22925895E-008
      645.48080      0.23507516E-008
      645.66080      0.24099080E-008
      645.84080      0.24700600E-008
      646.02080      0.25312080E-008
      646.20080      0.25933521E-008
      646.38080      0.26564915E-008
      646.56080      0.27206249E-008
      646.74080      0.27857505E-008
      646.92080      0.28518658E-008
      647.10080      0.29189674E-008
      647.28080      0.29870514E-008
      647.46080      0.30561134E-008
      647.64080      0.31261480E-008
      647.82080      0.31971492E-008
      648.00080      0.32691103E-008
      648.18080      0.33420240E-008
      648.36080      0.34158819E-008
      648.54080      0.34906751E-008
      648.72080      0.35663940E-008
      648.90080      0.36430280E-008
      649.08080      0.37205659E-008
      649.26080      0.37989957E-008
      649.44080      0.38783045E-008
      649.62080      0.39584787E-008
      649.80080      0.40395038E-008
      649.98080      0.41213645E-008
      650.16080      0.42040449E-008
      650.34080      0.42875279E-008
      650.52080      0.43717960E-008
      650.70080      0.44568304E-008
      650.88080      0.45426120E-008
      651.06080      0.46291204E-008
      651.24080      0.47163346E-008
      651.42080      0.48042328E-008
      651.60080      0.48927924E-008
      651.78080      0.49819898E-008
      651.96080      0.50718008E-008
      652.14080      0.51622001E-008
      652.32080      0.52531620E-008
      652.50080      0.53446596E-008
      652.68080      0.54366655E-008
      652.86080      0.55291514E-008
      653.04080      0.56220882E-008
      653.22080      0.57154460E-008
      653.40080      0.58091943E-008
      653.58080      0.59033017E-008
      653.76080      0.59977362E-008
      653.94080      0.60924651E-008
      654.12080      0.61874548E-008
      654.30080      0.62826712E-008
      654.48080      0.63780795E-008
      654.66080      0.64736442E-008
      654.84080      0.65693293E-008
      655.02080      0.66650979E-008
      655.20080      0.67609130E-008
      655.38080      0.68567365E-008
      655.56080      0.69525301E-008
      655.74080      0.70482548E-008
      655.92080      0.71438712E-008
      656.10080      0.72393395E-008
      656.28080      0.73346193E-008
      656.46080      0.74296697E-008
      656.64080      0.75244497E-008
      656.82080      0.76189177E-008
      657.00080      0.77130319E-008
      657.18080      0.78067500E-008
      657.36080      0.79000297E-008
      657.54080      0.79928282E-008
      657.72080      0.80851026E-008
      657.90080      0.81768098E-008
      658.08080      0.82679065E-008
      658.26080      0.83583494E-008
      658.44080      0.84480951E-008
      658.62080      0.85371000E-008
      658.80080      0.86253206E-008
      658.98080      0.87127133E-008
      659.16080      0.87992348E-008
      659.34080      0.88848417E-008
      659.52080      0.89694907E-008
      659.70080      0.90531388E-008
      659.88080      0.91357431E-008
      660.06080      0.92172608E-008
      660.24080      0.92976497E-008
      660.42080      0.93768677E-008
      660.60080      0.94548730E-008
      660.78080      0.95316242E-008
      660.96080      0.96070805E-008
      661.14080      0.96812013E-008
      661.32080      0.97539466E-008
      661.50080      0.98252770E-008
      661.68080      0.98951534E-008
      661.86080      0.99635376E-008
      662.04080      0.10030392E-007
      662.22080      0.10095679E-007
      662.40080      0.10159363E-007
      662.58080      0.10221408E-007
      662.76080      0.10281780E-007
      662.94080      0.10340443E-007
      663.12080      0.10397365E-007
      663.30080      0.10452514E-007
      663.48080      0.10505858E-007
      663.66080      0.10557366E-007
      663.84080      0.10607010E-007
      664.02080      0.10654759E-007
      664.20080      0.10700587E-007
      664.38080      0.10744467E-007
      664.56080      0.10786374E-007
      664.74080      0.10826283E-007
      664.92080      0.10864170E-007
      665.10080      0.10900014E-007
      665.28080      0.10933793E-007
      665.46080      0.10965488E-007
      665.64080      0.10995079E-007
      665.82080      0.11022550E-007
      666.00080      0.11047883E-007
      666.18080      0.11071065E-007
      666.36080      0.11092080E-007
      666.54080      0.11110918E-007
      666.72080      0.11127565E-007
      666.90080      0.11142014E-007
      667.08080      0.11154254E-007
      667.26080      0.11164278E-007
      667.44080      0.11172081E-007
      667.62080      0.11177658E-007
      667.80080      0.11181006E-007
      667.98080      0.11182122E-007
      668.16080      0.11181006E-007
      668.34080      0.11177658E-007
      668.52080      0.11172081E-007
      668.70080      0.11164278E-007
      668.88080      0.11154254E-007
      669.06080      0.11142014E-007
      669.24080      0.11127565E-007
      669.42080      0.11110918E-007
      669.60080      0.11092080E-007
      669.78080      0.11071065E-007
      669.96080      0.11047883E-007
      670.14080      0.11022550E-007
      670.32080      0.10995079E-007
      670.50080      0.10965488E-007
      670.68080      0.10933793E-007
      670.86080      0.10900014E-007
      671.04080      0.10864170E-007
      671.22080      0.10826283E-007
      671.40080      0.10786374E-007
      671.58080      0.10744467E-007
      671.76080      0.10700587E-007
      671.94080      0.10654759E-007
      672.12080      0.10607010E-007
      672.30080      0.10557366E-007
      672.48080      0.10505858E-007
      672.66080      0.10452514E-007
      672.84080      0.10397365E-007
      673.02080      0.10340443E-007
      673.20080      0.10281780E-007
      673.38080      0.10221408E-007
      673.56080      0.10159363E-007
      673.74080      0.10095679E-007
      673.92080      0.10030392E-007
      674.10080      0.99635376E-008
      674.28080      0.98951534E-008
      674.46080      0.98252770E-008
      674.64080      0.97539466E-008
      674.82080      0.96812013E-008
      675.00080      0.96070805E-008
      675.18080      0.95316242E-008
      675.36080      0.94548730E-008
      675.54080      0.93768677E-008
      675.72080      0.92976497E-008
      675.90080      0.92172608E-008
      676.08080      0.91357431E-008
      676.26080      0.90531388E-008
      676.44080      0.89694907E-008
      676.62080      0.88848417E-008
      676.80080      0.87992348E-008
      676.98080      0.87127133E-008
      677.16080      0.86253206E-008
      677.34080      0.85371000E-008
      677.52080      0.84480951E-008
      677.70080      0.83583494E-008
      677.88080      0.82679065E-008
      678.06080      0.81768098E-008
      678.24080      0.80851026E-008
      678.42080      0.79928282E-008
      678.60080      0.79000297E-008
      678.78080      0.78067500E-008
      678.96080      0.77130319E-008
      679.14080      0.76189177E-008
      679.32080      0.75244497E-008
      679.50080      0.74296697E-008
      679.68080      0.73346193E-008
      679.86080      0.72393395E-008
      680.04080      0.71438712E-008
      680.22080      0.70482548E-008
      680.40080      0.69525301E-008
      680.58080      0.68567365E-008
      680.76080      0.67609130E-008
      680.94080      0.66650979E-008
      681.12080      0.65693293E-008
      681.30080      0.64736442E-008
      681.48080      0.63780795E-008
      681.66080      0.62826712E-008
      681.84080      0.61874548E-008
      682.02080      0.60924651E-008
      682.20080      0.59977362E-008
      682.38080      0.59033017E-008
      682.56080      0.58091943E-008
      682.74080      0.57154460E-008
      682.92080      0.56220882E-008
      683.10080      0.55291514E-008
      683.28080      0.54366655E-008
      683.46080      0.53446596E-008
      683.64080      0.52531620E-008
      683.82080      0.51622001E-008
      684.00080      0.50718008E-008
      684.18080      0.49819898E-008
      684.36080      0.48927924E-008
      684.54080      0.48042328E-008
      684.72080      0.47163346E-008
      684.90080      0.46291204E-008
      685.08080      0.45426120E-008
      685.26080      0.44568304E-008
      685.44080      0.43717960E-008
      685.62080      0.42875279E-008
      685.80080      0.42040449E-008
      685.98080      0.41213645E-008
      686.16080      0.40395038E-008
      686.34080      0.39584787E-008
      686.52080      0.38783045E-008
      686.70080      0.37989957E-008
      686.88080      0.37205659E-008
      687.06080      0.36430280E-008
      687.24080      0.35663940E-008
      687.42080      0.34906751E-008
      687.60080      0.34158819E-008
      687.78080      0.33420240E-008
      687.96080      0.32691103E-008
      688.14080      0.31971492E-008
      688.32080      0.31261480E-008
      688.50080      0.30561134E-008
      688.68080      0.29870514E-008
      688.86080      0.29189674E-008
      689.04080      0.28518658E-008
      689.22080      0.27857505E-008
      689.40080      0.27206249E-008
      689.58080      0.26564915E-008
      689.76080      0.25933521E-008
      689.94080      0.25312080E-008
      690.12080      0.24700600E-008
      690.30080      0.24099080E-008
      690.48080      0.23507516E-008
      690.66080      0.22925895E-008
      690.84080      0.22354202E-008
      691.02080      0.21792415E-008
      691.20080      0.21240505E-008
      691.38080      0.20698441E-008
      691.56080      0.20166183E-008
      691.74080      0.19643692E-008
      691.92080      0.19130918E-008
      692.10080      0.18627810E-008
      692.28080      0.18134313E-008
      692.46080      0.17650366E-008
      692.64080      0.17175905E-008
      692.82080      0.16710861E-008
      693.00080      0.16255164E-008
      693.18080      0.15808737E-008
      693.36080      0.15371501E-008
      693.54080      0.14943376E-008
      693.72080      0.14524274E-008
      693.90080      0.14114109E-008
      694.08080      0.13712789E-008
      694.26080      0.13320222E-008
      694.44080      0.12936309E-008
      694.62080      0.12560954E-008
      694.80080      0.12194056E-008
      694.98080      0.11835512E-008
      695.16080      0.11485217E-008
      695.34080      0.11143065E-008
      695.52080      0.10808948E-008
      695.70080      0.10482756E-008
      695.88080      0.10164379E-008
      696.06080      0.98537042E-009
      696.24080      0.95506185E-009
      696.42080      0.92550076E-009
      696.60080      0.89667562E-009
      696.78080      0.86857484E-009
      696.96080      0.84118678E-009
      697.14080      0.81449970E-009
      697.32080      0.78850187E-009
      697.50080      0.76318148E-009
      697.68080      0.73852675E-009
      697.86080      0.71452583E-009
      698.04080      0.69116692E-009
      698.22080      0.66843819E-009
      698.40080      0.64632786E-009
      698.58080      0.62482413E-009
      698.76080      0.60391528E-009
      698.94080      0.58358960E-009
      699.12080      0.56383544E-009
      699.30080      0.54464122E-009
      699.48080      0.52599540E-009
      699.66080      0.50788652E-009
      699.84080      0.49030320E-009
      700.02080      0.47323414E-009
      700.20080      0.45666815E-009
      700.38080      0.44059410E-009
      700.56080      0.42500098E-009
      700.74080      0.40987789E-009
      700.92080      0.39521403E-009
      701.10080      0.38099873E-009
      701.28080      0.36722141E-009
      701.46080      0.35387165E-009
      701.64080      0.34093913E-009
      701.82080      0.32841367E-009
      702.00080      0.31628523E-009
      702.18080      0.30454389E-009
      702.36080      0.29317989E-009
      702.54080      0.28218361E-009
      702.72080      0.27154554E-009
      702.90080      0.26125636E-009
      703.08080      0.25130688E-009
      703.26080      0.24168805E-009
      703.44080      0.23239100E-009
      703.62080      0.22340697E-009
      703.80080      0.21472738E-009
      703.98080      0.20634381E-009
      704.16080      0.19824798E-009
      704.34080      0.19043177E-009
      704.52080      0.18288721E-009
      704.70080      0.17560649E-009
      704.88080      0.16858196E-009
      705.06080      0.16180612E-009
      705.24080      0.15527162E-009
      705.42080      0.14897127E-009
      705.60080      0.14289804E-009
      705.78080      0.13704505E-009
      705.96080      0.13140555E-009
      706.14080      0.12597297E-009
      706.32080      0.12074088E-009
      706.50080      0.11570299E-009
      706.68080      0.11085318E-009
      706.86080      0.10618546E-009
      707.04080      0.10169397E-009
      707.22080      0.97373032E-010
      707.40080      0.93217076E-010
      707.58080      0.89220688E-010
      707.76080      0.85378586E-010
      707.94080      0.81685628E-010
      708.12080      0.78136805E-010
      708.30080      0.74727241E-010
      708.48080      0.71452192E-010
      708.66080      0.68307040E-010
      708.84080      0.65287295E-010
      709.02080      0.62388593E-010
      709.20080      0.59606690E-010
      709.38080      0.56937465E-010
      709.56080      0.54376914E-010
      709.74080      0.51921147E-010
      709.92080      0.49566393E-010
      710.10080      0.47308987E-010
      710.28080      0.45145377E-010
      710.46080      0.43072118E-010
      710.64080      0.41085869E-010
      710.82080      0.39183391E-010
      711.00080      0.37361549E-010
      711.18080      0.35617303E-010
      711.36080      0.33947710E-010
      711.54080      0.32349923E-010
      711.72080      0.30821184E-010
      711.90080      0.29358826E-010
      712.08080      0.27960269E-010
      712.26080      0.26623021E-010
      712.44080      0.25344668E-010
      712.62080      0.24122882E-010
      712.80080      0.22955411E-010
      712.98080      0.21840082E-010
      713.16080      0.20774795E-010
      713.34080      0.19757525E-010
      713.52080      0.18786317E-010
      713.70080      0.17859284E-010
      713.88080      0.16974608E-010
      714.06080      0.16130535E-010
      714.24080      0.15325374E-010
      714.42080      0.14557496E-010
      714.60080      0.13825333E-010
      714.78080      0.13127373E-010
      714.96080      0.12462161E-010
      715.14080      0.11828296E-010
      715.32080      0.11224431E-010
      715.50080      0.10649268E-010
      715.68080      0.10101561E-010
      715.86080      0.95801109E-011
      716.04080      0.90837649E-011
      716.22080      0.86114153E-011
      716.40080      0.81619980E-011
      716.58080      0.77344910E-011
      716.76080      0.73279129E-011
      716.94080      0.69413215E-011
      717.12080      0.65738127E-011
      717.30080      0.62245190E-011
      717.48080      0.58926083E-011
      717.66080      0.55772825E-011
      717.84080      0.52777769E-011
      718.02080      0.49933581E-011
      718.20080      0.47233235E-011
      718.38080      0.44670003E-011
      718.56080      0.42237439E-011
      718.74080      0.39929371E-011
      718.92080      0.37739894E-011
      719.10080      0.35663353E-011
      719.28080      0.33694342E-011
      719.46080      0.31827688E-011
      719.64080      0.30058445E-011
      719.82080      0.28381884E-011
      720.00080      0.26793487E-011
      720.18080      0.25288936E-011
      720.36080      0.23864107E-011
      720.54080      0.22515061E-011
      720.72080      0.21238036E-011
      720.90080      0.20029444E-011
      721.08080      0.18885858E-011
      721.26080      0.17804012E-011
      721.44080      0.16780787E-011
      721.62080      0.15813211E-011
      721.80080      0.14898451E-011
      721.98080      0.14033806E-011
      722.16080      0.13216703E-011
      722.34080      0.12444691E-011
      722.52080      0.11715434E-011
      722.70080      0.11026710E-011
      722.88080      0.10376403E-011
      723.06080      0.97624987E-012
      723.24080      0.91830822E-012
      723.42080      0.86363305E-012
      723.60080      0.81205107E-012
      723.78080      0.76339750E-012
      723.96080      0.71751573E-012
      724.14080      0.67425694E-012
      724.32080      0.63347973E-012
      724.50080      0.59504982E-012
      724.68080      0.55883968E-012
      724.86080      0.52472825E-012
      725.04080      0.49260062E-012
      725.22080      0.46234778E-012
      725.40080      0.43386628E-012
      725.58080      0.40705802E-012
      725.76080      0.38183000E-012
      725.94080      0.35809403E-012
      726.12080      0.33576654E-012
      726.30080      0.31476834E-012
      726.48080      0.29502444E-012
      726.66080      0.27646377E-012
      726.84080      0.25901909E-012
      727.02080      0.24262672E-012
      727.20080      0.22722640E-012
      727.38080      0.21276111E-012
      727.56080      0.19917692E-012
      727.74080      0.18642282E-012
      727.92080      0.17445059E-012
      728.10080      0.16321464E-012
      728.28080      0.15267189E-012
      728.46080      0.14278164E-012
      728.64080      0.13350543E-012
      728.82080      0.12480697E-012
      729.00080      0.11665195E-012
      729.18080      0.10900803E-012
      729.36080      0.10184467E-012
      729.54080      0.95133045E-013
      729.72080      0.88845983E-013
      729.90080      0.82957853E-013
      730.08080      0.77444487E-013
      730.26080      0.72283109E-013
      730.44080      0.67452249E-013
      730.62080      0.62931684E-013
      730.80080      0.58702362E-013
      730.98080      0.54746341E-013
      731.16080      0.51046730E-013
      731.34080      0.47587628E-013
      731.52080      0.44354072E-013
      731.70080      0.41331982E-013
      731.88080      0.38508116E-013
      732.06080      0.35870020E-013
      732.24080      0.33405984E-013
      732.42080      0.31105001E-013
      732.60080      0.28956727E-013
      732.78080      0.26951444E-013
      732.96080      0.25080021E-013
      733.14080      0.23333885E-013
      733.32080      0.21704987E-013
      733.50080      0.20185769E-013
      733.68080      0.18769140E-013
      733.86080      0.17448446E-013
      734.04080      0.16217445E-013
      734.22080      0.15070283E-013
      734.40080      0.14001472E-013
      734.58080      0.13005867E-013
      734.76080      0.12078644E-013
      734.94080      0.11215287E-013
      735.12080      0.10411562E-013
      735.30080      0.96635056E-014
      735.48080      0.89674056E-014
      735.66080      0.83197873E-014
      735.84080      0.77173987E-014
      736.02080      0.71571968E-014
      736.20080      0.66363347E-014
      736.38080      0.61521499E-014
      736.56080      0.57021526E-014
      736.74080      0.52840153E-014
      736.92080      0.48955625E-014
      737.10080      0.45347614E-014
      737.28080      0.41997127E-014
      737.46080      0.38886426E-014
      737.64080      0.35998945E-014
      737.82080      0.33319220E-014
      738.00080      0.30832816E-014
      738.18080      0.28526261E-014
      738.36080      0.26386987E-014
      738.54080      0.24403273E-014
      738.72080      0.22564185E-014
      738.90080      0.20859530E-014
      739.08080      0.19279807E-014
      739.26080      0.17816163E-014
      739.44080      0.16460346E-014
      739.62080      0.15204671E-014
      739.80080      0.14041983E-014
      739.98080      0.12965615E-014
      740.16080      0.11969365E-014
      740.34080      0.11047460E-014
      740.52080      0.10194526E-014
      740.70080      0.94055658E-015
      740.88080      0.86759320E-015
      741.06080      0.80013018E-015
      741.24080      0.73776571E-015
      741.42080      0.68012633E-015
      741.60080      0.62686498E-015
      741.78080      0.57765926E-015
      741.96080      0.53220968E-015
      742.14080      0.49023814E-015
      742.32080      0.45148647E-015
      742.50080      0.41571498E-015
      742.68080      0.38270128E-015
      742.86080      0.35223902E-015
      743.04080      0.32413678E-015
      743.22080      0.29821705E-015
      743.40080      0.27431523E-015
      743.58080      0.25227876E-015
      743.76080      0.23196622E-015
      743.94080      0.21324660E-015
      744.12080      0.19599852E-015
      744.30080      0.18010956E-015
      744.48080      0.16547563E-015
      744.66080      0.15200036E-015
      744.84080      0.13959456E-015
      745.02080      0.12817570E-015
      745.20080      0.11766741E-015
      745.38080      0.10799906E-015
      745.56080      0.99105343E-016
      745.74080      0.90925871E-016
      745.92080      0.83404824E-016
      746.10080      0.76490620E-016
      746.28080      0.70135596E-016
      746.46080      0.64295726E-016
      746.64080      0.58930350E-016
      746.82080      0.54001925E-016
      747.00080      0.49475793E-016
      747.18080      0.45319968E-016
      747.36080      0.41504934E-016
      747.54080      0.38003462E-016
      747.72080      0.34790438E-016
      747.90080      0.31842704E-016
      748.08080      0.29138908E-016
      748.26080      0.26659373E-016
      748.44080      0.24385961E-016
      748.62080      0.22301965E-016
      748.80080      0.20391994E-016
      748.98080      0.18641873E-016
      749.16080      0.17038553E-016
      749.34080      0.15570020E-016
      749.52080      0.14225219E-016
      749.70080      0.12993975E-016
      749.88080      0.11866931E-016
      750.06080      0.10835478E-016
      750.24080      0.98917030E-017
      750.42080      0.90283286E-017
      750.60080      0.82386670E-017
      750.78080      0.75165724E-017
      750.96080      0.68563983E-017
      751.14080      0.62529584E-017
      751.32080      0.57014897E-017
      751.50080      0.51976192E-017
      751.68080      0.47373325E-017
      751.86080      0.43169457E-017
      752.04080      0.39330784E-017
      752.22080      0.35826297E-017
      752.40080      0.32627556E-017
      752.58080      0.29708483E-017
      752.76080      0.27045169E-017
      752.94080      0.24615703E-017
      753.12080      0.22400003E-017
      753.30080      0.20379673E-017
      753.48080      0.18537863E-017
      753.66080      0.16859140E-017
      753.84080      0.15329376E-017
      754.02080      0.13935637E-017
      754.20080      0.12666087E-017
      754.38080      0.11509897E-017
      754.56080      0.10457159E-017
      754.74080      0.94988116E-018
      754.92080      0.86265699E-018
      755.10080      0.78328592E-018
      755.28080      0.71107564E-018
      755.46080      0.64539349E-018
      755.64080      0.58566149E-018
      755.82080      0.53135168E-018
      756.00080      0.48198192E-018
      756.18080      0.43711201E-018
      756.36080      0.39634012E-018
      756.54080      0.35929952E-018
      756.72080      0.32565560E-018
      756.90080      0.29510309E-018
      757.08080      0.26736359E-018
      757.26080      0.24218324E-018
      757.44080      0.21933059E-018
      757.62080      0.19859469E-018
      757.80080      0.17978330E-018
      757.98080      0.16272129E-018
