      569.41450      0.64939178E-001
      573.14774      0.82148293E-001
      576.88098      0.10109929     
      580.61422      0.11987501     
      584.34746      0.13587469     
      588.08070      0.14627151     
      591.81394      0.14871113     
      595.54717      0.14206768     
      599.28041      0.12695506     
      603.01365      0.10570458     
      606.74689      0.81735036E-001
      610.48013      0.58556386E-001
      614.21337      0.38847668E-001
      617.94661      0.23984929E-001
      621.67985      0.14122368E-001
      625.41309      0.86473633E-002
      629.14633      0.67055010E-002
      632.87957      0.75499243E-002
      636.61281      0.10622010E-001
      640.34604      0.15417211E-001
      644.07928      0.21278772E-001
      647.81252      0.27281307E-001
      651.54576      0.32315655E-001
      655.27900      0.35376766E-001
      659.01224      0.35929714E-001
      662.74548      0.34156925E-001
      666.47872      0.30928138E-001
      670.21196      0.27472951E-001
      673.94520      0.24894199E-001
      677.67844      0.23744600E-001
      681.41168      0.23855125E-001
      685.14492      0.24477855E-001
      688.87815      0.24658590E-001
      692.61139      0.23656489E-001
      696.34463      0.21222488E-001
      700.07787      0.17633522E-001
      703.81111      0.13507518E-001
      707.54435      0.95232443E-002
      711.27759      0.61881459E-002
      715.01083      0.37388866E-002
      718.74407      0.21727495E-002
      722.47731      0.13487098E-002
      726.21055      0.10883650E-002
      729.94379      0.12356368E-002
      733.67702      0.16712801E-002
      737.41026      0.23020964E-002
      741.14350      0.30487825E-002
      744.87674      0.38451161E-002
      748.60998      0.46446539E-002
      752.34322      0.54208186E-002
      756.07646      0.61502098E-002
      759.80970      0.67853028E-002
      763.54294      0.72381662E-002
      767.27618      0.73960474E-002
      771.00942      0.71693306E-002
      774.74266      0.65468192E-002
      778.47590      0.56234590E-002
      782.20913      0.45803993E-002
      785.94237      0.36255687E-002
      789.67561      0.29240025E-002
      793.40885      0.25486493E-002
      797.14209      0.24680819E-002
      800.87533      0.25699485E-002
      804.60857      0.27072559E-002
      808.34181      0.27501535E-002
      812.07505      0.26270914E-002
      815.80829      0.23459688E-002
      819.54153      0.19988198E-002
      823.27477      0.17700218E-002
      827.00800      0.19801498E-002
      830.74124      0.31940865E-002
      834.47448      0.63906512E-002
      838.20772      0.13124954E-001
      841.94096      0.25527831E-001
      845.67420      0.45933998E-001
      849.40744      0.76003773E-001
      853.14068      0.11546752     
      856.87392      0.16100717     
      860.60716      0.20603974     
      864.34040      0.24197347     
      868.07364      0.26079258     
      871.80688      0.25795330     
      875.54011      0.23417259     
      879.27335      0.19516198     
      883.00659      0.14946755     
      886.73983      0.10557897     
      890.47307      0.69702919E-001
      894.20631      0.44992885E-001
      897.93955      0.32098707E-001
      901.67279      0.30265002E-001
      905.40603      0.38159179E-001
      909.13927      0.54026721E-001
      912.87251      0.75326600E-001
      916.60575      0.98379755E-001
      920.33898      0.11858093     
      924.07222      0.13136829     
      927.80546      0.13361350     
      931.53870      0.12472816     
      935.27194      0.10685586     
      939.00518      0.84012211E-001
      942.73842      0.60616980E-001
      946.47166      0.40137774E-001
      950.20490      0.24390419E-001
      953.93814      0.13601680E-001
      957.67138      0.69610826E-002
      961.40462      0.32696777E-002
      965.13786      0.14105165E-002
      968.87109      0.56238210E-003
      972.60433      0.21890759E-003
      976.33757      0.11783152E-003
      980.07081      0.16138544E-003
      983.80405      0.36644361E-003
      987.53729      0.84943665E-003
      991.27053      0.18299031E-002
      995.00377      0.36227299E-002
      998.73701      0.65828943E-002
     1002.47025      0.10977714E-001
     1006.20349      0.16800206E-001
     1009.93673      0.23595233E-001
     1013.66996      0.30411709E-001
     1017.40320      0.35971981E-001
     1021.13644      0.39047669E-001
     1024.86968      0.38898629E-001
     1028.60292      0.35562029E-001
     1032.33616      0.29838065E-001
     1036.06940      0.22980658E-001
     1039.80264      0.16258000E-001
     1043.53588      0.10595191E-001
     1047.26912      0.64317195E-002
     1051.00236      0.37913650E-002
     1054.73560      0.24635981E-002
     1058.46884      0.21777526E-002
     1062.20207      0.26966485E-002
     1065.93531      0.38199658E-002
     1069.66855      0.53349968E-002
     1073.40179      0.69705029E-002
     1077.13503      0.83987409E-002
     1080.86827      0.92981872E-002
     1084.60151      0.94497748E-002
     1088.33475      0.88143454E-002
     1092.06799      0.75457347E-002
     1095.80123      0.59299355E-002
     1099.53447      0.42824528E-002
     1103.26771      0.28557346E-002
     1107.00094      0.17963914E-002
     1110.73418      0.11606605E-002
     1114.46742      0.96807969E-003
     1118.20066      0.12605616E-002
     1121.93390      0.21357103E-002
     1125.66714      0.37325237E-002
     1129.40038      0.61627936E-002
     1133.13362      0.94057641E-002
     1136.86686      0.13214296E-001
     1140.60010      0.17100316E-001
     1144.33334      0.20450201E-001
     1148.06658      0.22757398E-001
     1151.79982      0.23876631E-001
     1155.53305      0.24156932E-001
     1159.26629      0.24344711E-001
     1162.99953      0.25259680E-001
     1166.73277      0.27377637E-001
     1170.46601      0.30527188E-001
     1174.19925      0.33872120E-001
     1177.93249      0.36215750E-001
     1181.66573      0.36495394E-001
     1185.39897      0.34229308E-001
     1189.13221      0.29702684E-001
     1192.86545      0.23823260E-001
     1196.59869      0.17750860E-001
     1200.33192      0.12500069E-001
     1204.06516      0.86845187E-002
     1207.79840      0.64587717E-002
     1211.53164      0.56083247E-002
     1215.26488      0.56996824E-002
     1218.99812      0.62262269E-002
     1222.73136      0.67264015E-002
     1226.46460      0.68709736E-002
     1230.19784      0.65129325E-002
     1233.93108      0.56882725E-002
     1237.66432      0.45657525E-002
     1241.39756      0.33649018E-002
     1245.13080      0.22762394E-002
     1248.86403      0.14131826E-002
     1252.59727      0.80518457E-003
     1256.33051      0.42102026E-003
     1260.06375      0.20203130E-003
     1263.79699      0.88969601E-004
     1267.53023      0.35956022E-004
     1271.26347      0.13335477E-004
     1274.99671      0.45389184E-005
     1278.72995      0.14177611E-005
     1282.46319      0.40640647E-006
     1286.19643      0.10691165E-006
     1289.92967      0.25810494E-007
     1293.66290      0.57183994E-008
     1297.39614      0.11626807E-008
     1301.12938      0.21697071E-009
     1304.86262      0.37367645E-010
     1308.59586      0.75990005E-011
     1312.32910      0.13875033E-010
     1316.06234      0.88626318E-010
     1319.79558      0.55169858E-009
     1323.52882      0.31555361E-008
     1327.26206      0.16563860E-007
     1330.99530      0.79791574E-007
     1334.72854      0.35274380E-006
     1338.46178      0.14310956E-005
     1342.19501      0.53282526E-005
     1345.92825      0.18205722E-004
     1349.66149      0.57087106E-004
     1353.39473      0.16427644E-003
     1357.12797      0.43383026E-003
     1360.86121      0.10514101E-002
     1364.59445      0.23384753E-002
     1368.32769      0.47731274E-002
     1372.06093      0.89409779E-002
     1375.79417      0.15370311E-001
     1379.52741      0.24249511E-001
     1383.26065      0.35112244E-001
     1386.99388      0.46662944E-001
     1390.72712      0.56922555E-001
     1394.46036      0.63748279E-001
     1398.19360      0.65562505E-001
     1401.92684      0.61955559E-001
     1405.66008      0.53846908E-001
     1409.39332      0.43115800E-001
     1413.12656      0.31900543E-001
     1416.85980      0.21920360E-001
     1420.59304      0.14105789E-001
     1424.32628      0.86100597E-002
     1428.05952      0.50755592E-002
     1431.79276      0.29578382E-002
     1435.52599      0.17631327E-002
     1439.25923      0.11569612E-002
     1442.99247      0.97558004E-003
     1446.72571      0.11914029E-002
     1450.45895      0.18641658E-002
     1454.19219      0.30831883E-002
     1457.92543      0.48958182E-002
     1461.65867      0.72288676E-002
     1465.39191      0.98323237E-002
     1469.12515      0.12286167E-001
     1472.85839      0.14093462E-001
     1476.59163      0.14837629E-001
     1480.32486      0.14336049E-001
     1484.05810      0.12711748E-001
     1487.79134      0.10344083E-001
     1491.52458      0.77250090E-002
     1495.25782      0.52950274E-002
     1498.99106      0.33325510E-002
     1502.72430      0.19291601E-002
     1506.45754      0.10345094E-002
     1510.19078      0.52877277E-003
     1513.92402      0.28449742E-003
     1517.65726      0.20020681E-003
     1521.39050      0.20758733E-003
     1525.12374      0.26360340E-003
     1528.85697      0.33907124E-003
     1532.59021      0.41085736E-003
     1536.32345      0.45990327E-003
     1540.05669      0.47358029E-003
     1543.78993      0.44916109E-003
     1547.52317      0.39570970E-003
     1551.25641      0.33402717E-003
     1554.98965      0.29711433E-003
     1558.72289      0.33510533E-003
     1562.45613      0.52730368E-003
     1566.18937      0.99924862E-003
     1569.92261      0.19354161E-002
     1573.65584      0.35711235E-002
     1577.38908      0.61462479E-002
     1581.12232      0.98154056E-002
     1584.85556      0.14536166E-001
     1588.58880      0.19987777E-001
     1592.32204      0.25583798E-001
     1596.05528      0.30610739E-001
     1599.78852      0.34455177E-001
     1603.52176      0.36814229E-001
     1607.25500      0.37773696E-001
     1610.98824      0.37706832E-001
     1614.72148      0.37055270E-001
     1618.45472      0.36124589E-001
     1622.18795      0.35007776E-001
     1625.92119      0.33658314E-001
     1629.65443      0.32041822E-001
     1633.38767      0.30262795E-001
     1637.12091      0.28596639E-001
     1640.85415      0.27416309E-001
     1644.58739      0.27047624E-001
     1648.32063      0.27608924E-001
     1652.05387      0.28899176E-001
     1655.78711      0.30394245E-001
     1659.52035      0.31379422E-001
     1663.25359      0.31184639E-001
     1666.98682      0.29426647E-001
     1670.72006      0.26146329E-001
     1674.45330      0.21780099E-001
     1678.18654      0.16992801E-001
     1681.91978      0.12467602E-001
     1685.65302      0.87557511E-002
     1689.38626      0.62402185E-002
     1693.11950      0.51984456E-002
     1696.85274      0.58965908E-002
     1700.58598      0.86288170E-002
     1704.31922      0.13635614E-001
     1708.05246      0.20895605E-001
     1711.78570      0.29873498E-001
     1715.51893      0.39381476E-001
     1719.25217      0.47709418E-001
     1722.98541      0.53063815E-001
     1726.71865      0.54169088E-001
     1730.45189      0.50748934E-001
     1734.18513      0.43632877E-001
     1737.91837      0.34427783E-001
     1741.65161      0.24929384E-001
     1745.38485      0.16566130E-001
     1749.11809      0.10102700E-001
     1752.85133      0.56540642E-002
     1756.58457      0.29039617E-002
     1760.31780      0.13687619E-002
     1764.05104      0.59206842E-003
     1767.78428      0.23503044E-003
     1771.51752      0.85625577E-004
     1775.25076      0.28647977E-004
     1778.98400      0.88882363E-005
     1782.71724      0.29186469E-005
     1786.45048      0.23632842E-005
     1790.18372      0.62719755E-005
     1793.91696      0.19969865E-004
     1797.65020      0.59605456E-004
     1801.38344      0.16350412E-003
     1805.11668      0.41164233E-003
     1808.84991      0.95108870E-003
     1812.58315      0.20166432E-002
     1816.31639      0.39241354E-002
     1820.04963      0.70075431E-002
     1823.78287      0.11484033E-001
     1827.51611      0.17271496E-001
     1831.24935      0.23838138E-001
     1834.98259      0.30194065E-001
     1838.71583      0.35097623E-001
     1842.44907      0.37440418E-001
     1846.18231      0.36653085E-001
     1849.91555      0.32929660E-001
     1853.64878      0.27150062E-001
     1857.38202      0.20542877E-001
     1861.11526      0.14264567E-001
     1864.84850      0.90899765E-002
     1868.58174      0.53158633E-002
     1872.31498      0.28529339E-002
     1876.04822      0.14051300E-002
     1879.78146      0.63510938E-003
     1883.51470      0.26344633E-003
     1887.24794      0.10030164E-003
     1890.98118      0.35118025E-004
     1894.71442      0.11604472E-004
     1898.44766      0.48147228E-005
     1902.18089      0.65061481E-005
     1905.91413      0.19372643E-004
     1909.64737      0.60008640E-004
     1913.38061      0.17227760E-003
     1917.11385      0.45421736E-003
     1920.84709      0.10990773E-002
     1924.58033      0.24406264E-002
     1928.31357      0.49737200E-002
     1932.04681      0.93018265E-002
     1935.78005      0.15964746E-001
     1939.51329      0.25145637E-001
     1943.24653      0.36347132E-001
     1946.97976      0.48215260E-001
     1950.71300      0.58695628E-001
     1954.44624      0.65574328E-001
     1958.17948      0.67230883E-001
     1961.91272      0.63257300E-001
     1965.64596      0.54620962E-001
     1969.37920      0.43282756E-001
     1973.11244      0.31475841E-001
     1976.84568      0.21006158E-001
     1980.57892      0.12865385E-001
     1984.31216      0.72311242E-002
     1988.04540      0.37298873E-002
     1991.77864      0.17656006E-002
     1995.51187      0.76700129E-003
     1999.24511      0.30577825E-003
     2002.97835      0.11187265E-003
     2006.71159      0.37561953E-004
     2010.44483      0.11573887E-004
     2014.17807      0.32727829E-005
     2017.91131      0.84930175E-006
     2021.64455      0.20226172E-006
     2025.37779      0.44205087E-007
     2029.11103      0.88662029E-008
     2032.84427      0.16319616E-008
     2036.57751      0.27566974E-009
     2040.31074      0.42734154E-010
     2044.04398      0.60795017E-011
     2047.77722      0.79372074E-012
     2051.51046      0.95098647E-013
     2055.24370      0.10456535E-013
     2058.97694      0.10551353E-014
     2062.71018      0.97709179E-016
     2066.44342      0.83036577E-017
     2070.17666      0.64760527E-018
     2073.90990      0.46350901E-019
     2077.64314      0.30444781E-020
     2081.37638      0.18351619E-021
     2085.10962      0.10151794E-022
     2088.84285      0.51536872E-024
     2092.57609      0.24010444E-025
     2096.30933      0.10265715E-026
     2100.04257      0.40279591E-028
     2103.77581      0.14504000E-029
     2107.50905      0.47928890E-031
     2111.24229      0.14534960E-032
     2114.97553      0.40451736E-034
     2118.70877      0.10331595E-035
     2122.44201      0.24216112E-037
     2126.17525      0.52089278E-039
     2129.90849      0.10282510E-040
     2133.64172      0.18627595E-042
     2137.37496      0.30968581E-044
     2141.10820      0.47249008E-046
     2144.84144      0.66156261E-048
     2148.57468      0.85007270E-050
     2152.30792      0.10024161E-051
     2156.04116      0.10847931E-053
     2159.77440      0.10773396E-055
     2163.50764      0.98189535E-058
     2167.24088      0.82126753E-060
     2170.97412      0.63039239E-062
     2174.70736      0.44406255E-064
     2178.44060      0.28706761E-066
     2182.17383      0.17030645E-068
     2185.90707      0.92722445E-071
     2189.64031      0.46328210E-073
     2193.37355      0.21242862E-075
     2197.10679      0.89389684E-078
     2200.84003      0.34519829E-080
     2204.57327      0.12233670E-082
     2208.30651      0.39787964E-085
     2212.03975      0.11875545E-087
     2215.77299      0.32528367E-090
     2219.50623      0.81766955E-093
     2223.23947      0.18862544E-095
     2226.97270      0.39932781E-098
     2230.70594      0.77582849E-101
     2234.43918      0.13832757E-103
     2238.17242      0.22633861E-106
     2241.90566      0.33987202E-109
     2245.63890      0.46835918E-112
     2249.37214      0.59231064E-115
     2253.10538      0.68742749E-118
     2256.83862      0.73216863E-121
     2260.57186       0.0000000     
     2264.30510       0.0000000     
     2268.03834       0.0000000     
     2271.77158       0.0000000     
     2275.50481       0.0000000     
     2279.23805       0.0000000     
     2282.97129       0.0000000     
     2286.70453       0.0000000     
     2290.43777       0.0000000     
     2294.17101       0.0000000     
     2297.90425       0.0000000     
     2301.63749       0.0000000     
     2305.37073       0.0000000     
     2309.10397       0.0000000     
     2312.83721       0.0000000     
     2316.57045       0.0000000     
     2320.30368       0.0000000     
     2324.03692       0.0000000     
     2327.77016       0.0000000     
     2331.50340       0.0000000     
     2335.23664       0.0000000     
     2338.96988       0.0000000     
     2342.70312       0.0000000     
     2346.43636       0.0000000     
     2350.16960       0.0000000     
     2353.90284       0.0000000     
     2357.63608       0.0000000     
     2361.36932       0.0000000     
     2365.10256       0.0000000     
     2368.83579       0.0000000     
     2372.56903       0.0000000     
     2376.30227       0.0000000     
     2380.03551       0.0000000     
     2383.76875       0.0000000     
     2387.50199       0.0000000     
     2391.23523       0.0000000     
     2394.96847       0.0000000     
     2398.70171       0.0000000     
     2402.43495       0.0000000     
     2406.16819       0.0000000     
     2409.90143       0.0000000     
     2413.63466       0.0000000     
     2417.36790       0.0000000     
     2421.10114       0.0000000     
     2424.83438       0.0000000     
     2428.56762       0.0000000     
     2432.30086       0.0000000     
     2436.03410       0.0000000     
     2439.76734       0.0000000     
     2443.50058       0.0000000     
     2447.23382       0.0000000     
     2450.96706       0.0000000     
     2454.70030       0.0000000     
     2458.43354       0.0000000     
     2462.16677       0.0000000     
     2465.90001       0.0000000     
     2469.63325       0.0000000     
     2473.36649       0.0000000     
     2477.09973       0.0000000     
     2480.83297       0.0000000     
     2484.56621       0.0000000     
     2488.29945       0.0000000     
     2492.03269       0.0000000     
     2495.76593       0.0000000     
     2499.49917       0.0000000     
     2503.23241       0.0000000     
     2506.96564       0.0000000     
     2510.69888       0.0000000     
     2514.43212       0.0000000     
     2518.16536       0.0000000     
     2521.89860       0.0000000     
     2525.63184       0.0000000     
     2529.36508       0.0000000     
     2533.09832       0.0000000     
     2536.83156       0.0000000     
     2540.56480      0.14026164E-118
     2544.29804      0.12551871E-115
     2548.03128      0.10308249E-112
     2551.76452      0.77690549E-110
     2555.49775      0.53735135E-107
     2559.23099      0.34107930E-104
     2562.96423      0.19868233E-101
     2566.69747      0.10621112E-098
     2570.43071      0.52105987E-096
     2574.16395      0.23459141E-093
     2577.89719      0.96926708E-091
     2581.63043      0.36752059E-088
     2585.36367      0.12788711E-085
     2589.09691      0.40839339E-083
     2592.83015      0.11968439E-080
     2596.56339      0.32188683E-078
     2600.29662      0.79446679E-076
     2604.02986      0.17995137E-073
     2607.76310      0.37406014E-071
     2611.49634      0.71356670E-069
     2615.22958      0.12492075E-066
     2618.96282      0.20069727E-064
     2622.69606      0.29590697E-062
     2626.42930      0.40038316E-060
     2630.16254      0.49716812E-058
     2633.89578      0.56654917E-056
     2637.62902      0.59248698E-054
     2641.36226      0.56862622E-052
     2645.09550      0.50082017E-050
     2648.82873      0.40480290E-048
     2652.56197      0.30027023E-046
     2656.29521      0.20440326E-044
     2660.02845      0.12769392E-042
     2663.76169      0.73208156E-041
     2667.49493      0.38517279E-039
     2671.22817      0.18597672E-037
     2674.96141      0.82407825E-036
     2678.69465      0.33510829E-034
     2682.42789      0.12505722E-032
     2686.16113      0.42829127E-031
     2689.89437      0.13460976E-029
     2693.62760      0.38825829E-028
     2697.36084      0.10277129E-026
     2701.09408      0.24964893E-025
     2704.82732      0.55653758E-024
     2708.56056      0.11385868E-022
     2712.29380      0.21376897E-021
     2716.02704      0.36832402E-020
     2719.76028      0.58240125E-019
     2723.49352      0.84512590E-018
     2727.22676      0.11254531E-016
     2730.96000      0.13754355E-015
     2734.69324      0.15426235E-014
     2738.42648      0.15877661E-013
     2742.15971      0.14997538E-012
     2745.89295      0.13000507E-011
     2749.62619      0.10342070E-010
     2753.35943      0.75502528E-010
     2757.09267      0.50585075E-009
     2760.82591      0.31102133E-008
     2764.55915      0.17549502E-007
     2768.29239      0.90875395E-007
     2772.02563      0.43185175E-006
     2775.75887      0.18833451E-005
     2779.49211      0.75375814E-005
     2783.22535      0.27684774E-004
     2786.95858      0.93316150E-004
     2790.69182      0.28865528E-003
     2794.42506      0.81942475E-003
     2798.15830      0.21347425E-002
     2801.89154      0.51037430E-002
     2805.62478      0.11197961E-001
     2809.35802      0.22547375E-001
     2813.09126      0.41663896E-001
     2816.82450      0.70653005E-001
     2820.55774      0.10995330     
     2824.29098      0.15703366     
     2828.02422      0.20581836     
     2831.75746      0.24756106     
     2835.49069      0.27326714     
     2839.22393      0.27682121     
     2842.95717      0.25734645     
     2846.69041      0.21955527     
     2850.42365      0.17190021     
     2854.15689      0.12351390     
     2857.89013      0.81444566E-001
     2861.62337      0.49285057E-001
     2865.35661      0.27370030E-001
     2869.08985      0.13948970E-001
     2872.82309      0.65240292E-002
     2876.55633      0.28002481E-002
     2880.28956      0.11030215E-002
     2884.02280      0.39872946E-003
     2887.75604      0.13227554E-003
     2891.48928      0.40270554E-004
     2895.22252      0.11251296E-004
     2898.95576      0.28848574E-005
     2902.68900      0.67881748E-006
     2906.42224      0.14658467E-006
     2910.15548      0.29048984E-007
     2913.88872      0.52829952E-008
     2917.62196      0.88173149E-009
     2921.35520      0.13505148E-009
     2925.08844      0.18983191E-010
     2928.82167      0.24487584E-011
     2932.55491      0.28988754E-012
     2936.28815      0.31493433E-013
     2940.02139      0.31399109E-014
     2943.75463      0.28729067E-015
     2947.48787      0.24123070E-016
     2951.22111      0.18588764E-017
     2954.95435      0.13145445E-018
     2958.68759      0.85311377E-020
     2962.42083      0.50809565E-021
     2966.15407      0.27770958E-022
     2969.88731      0.13929743E-023
     2973.62054      0.64121288E-025
     2977.35378      0.27087456E-026
     2981.08702      0.10501252E-027
     2984.82026      0.37361197E-029
     2988.55350      0.12198526E-030
     2992.28674      0.36551131E-032
     2996.01998      0.10050812E-033
     2999.75322      0.25363449E-035
     3003.48646      0.58738433E-037
     3007.21970      0.12483698E-038
     3010.95294      0.24348434E-040
     3014.68618      0.43581852E-042
     3018.41942      0.71589148E-044
     3022.15265      0.10791842E-045
     3025.88589      0.14929691E-047
     3029.61913      0.18954525E-049
     3033.35237      0.22084211E-051
     3037.08561      0.23613356E-053
     3040.81885      0.23170768E-055
     3044.55209      0.20865557E-057
     3048.28533      0.17243540E-059
     3052.01857      0.13077650E-061
     3055.75181      0.91020641E-064
     3059.48505      0.58137576E-066
     3063.21829      0.34078527E-068
     3066.95152      0.18332073E-070
     3070.68476      0.90500131E-073
     3074.41800      0.41000929E-075
     3078.15124      0.17046886E-077
     3081.88448      0.65043408E-080
     3085.61772      0.22775524E-082
     3089.35096      0.73188077E-085
     3093.08420      0.21587363E-087
     3096.81744      0.15439302E-088
     3100.55068      0.50660234E-086
     3104.28392      0.15854886E-083
     3108.01716      0.45537173E-081
     3111.75040      0.12002615E-078
     3115.48363      0.29033041E-076
     3119.21687      0.64448983E-074
     3122.95011      0.13129448E-071
     3126.68335      0.24546169E-069
     3130.41659      0.42114132E-067
     3134.14983      0.66309973E-065
     3137.88307      0.95815708E-063
     3141.61631      0.12705783E-060
     3145.34955      0.15462262E-058
     3149.08279      0.17268376E-056
     3152.81603      0.17698514E-054
     3156.54927      0.16646732E-052
     3160.28250      0.14369050E-050
     3164.01574      0.11382403E-048
     3167.74898      0.82745953E-047
     3171.48222      0.55203475E-045
     3175.21546      0.33798150E-043
     3178.94870      0.18990059E-041
     3182.68194      0.97918909E-040
     3186.41518      0.46335481E-038
     3190.14842      0.20121839E-036
     3193.88166      0.80191532E-035
     3197.61490      0.29328930E-033
     3201.34814      0.98439817E-032
     3205.08138      0.30321609E-030
     3208.81461      0.85711787E-029
     3212.54785      0.22234928E-027
     3216.28109      0.52934372E-026
     3220.01433      0.11565028E-024
     3223.74757      0.23187955E-023
     3227.48081      0.42666310E-022
     3231.21405      0.72046782E-021
     3234.94729      0.11164800E-019
     3238.68053      0.15877941E-018
     3242.41377      0.20722603E-017
     3246.14701      0.24819971E-016
     3249.88025      0.27281302E-015
     3253.61348      0.27519199E-014
     3257.34672      0.25474951E-013
     3261.07996      0.21642020E-012
     3264.81320      0.16872875E-011
     3268.54644      0.12072223E-010
     3272.27968      0.79266973E-010
     3276.01292      0.47764382E-009
     3279.74616      0.26413316E-008
     3283.47940      0.13404436E-007
     3287.21264      0.62428233E-007
     3290.94588      0.26682124E-006
     3294.67912      0.10465660E-005
     3298.41236      0.37672089E-005
     3302.14559      0.12444563E-004
     3305.87883      0.37726497E-004
     3309.61207      0.10495912E-003
     3313.34531      0.26797897E-003
     3317.07855      0.62789660E-003
     3320.81179      0.13501512E-002
     3324.54503      0.26643027E-002
     3328.27827      0.48249362E-002
     3332.01151      0.80187459E-002
     3335.74475      0.12230049E-001
     3339.47799      0.17118149E-001
     3343.21123      0.21988332E-001
     3346.94446      0.25919978E-001
     3350.67770      0.28040376E-001
     3354.41094      0.27838120E-001
     3358.14418      0.25363130E-001
     3361.87742      0.21206678E-001
     3365.61066      0.16272314E-001
     3369.34390      0.11458634E-001
     3373.07714      0.74049693E-002
     3376.81038      0.43915773E-002
     3380.54362      0.23901473E-002
     3384.27686      0.11938112E-002
     3388.01010      0.54720937E-003
     3391.74334      0.23018566E-003
     3395.47657      0.88860725E-004
     3399.20981      0.31480985E-004
     3402.94305      0.10235137E-004
     3406.67629      0.30538369E-005
     3410.40953      0.83618986E-006
     3414.14277      0.21012166E-006
     3417.87601      0.48455560E-007
     3421.60925      0.10254707E-007
     3425.34249      0.19916352E-008
     3429.07573      0.35497943E-009
     3432.80897      0.58063530E-010
     3436.54221      0.87158662E-011
     3440.27544      0.12006724E-011
     3444.00868      0.15179078E-012
     3447.74192      0.17610558E-013
     3451.47516      0.18750277E-014
     3455.20840      0.18320999E-015
     3458.94164      0.16428483E-016
     3462.67488      0.13519251E-017
     3466.40812      0.10209740E-018
     3470.14136      0.70759311E-020
     3473.87460      0.45004855E-021
     3477.60784      0.26268908E-022
     3481.34108      0.14071213E-023
     3485.07432      0.69171612E-025
     3488.80755      0.31205499E-026
     3492.54079      0.12919367E-027
     3496.27403      0.49086065E-029
     3500.00727      0.17115203E-030
     3503.74051      0.54766219E-032
     3507.47375      0.16082380E-033
     3511.20699      0.43340584E-035
     3514.94023      0.10718797E-036
     3518.67347      0.24327878E-038
     3522.40671      0.50672141E-040
     3526.13995      0.96859262E-042
     3529.87319      0.16991038E-043
     3533.60642      0.27353037E-045
     3537.33966      0.40410855E-047
     3541.07290      0.54789508E-049
     3544.80614      0.68171622E-051
     3548.53938      0.77842490E-053
     3552.27262      0.81571168E-055
     3556.00586      0.78444681E-057
     3559.73910      0.69230456E-059
     3563.47234      0.56070929E-061
     3567.20558      0.41675917E-063
     3570.93882      0.28427552E-065
     3574.67206      0.17795121E-067
     3578.40530      0.10504249E-069
     3582.13853      0.52441563E-069
     3585.87177      0.89478861E-067
     3589.60501      0.14025510E-064
     3593.33825      0.20175474E-062
     3597.07149      0.26633958E-060
     3600.80473      0.32266699E-058
     3604.53797      0.35874035E-056
     3608.27121      0.36602671E-054
     3612.00445      0.34273006E-052
     3615.73769      0.29450894E-050
     3619.47093      0.23224782E-048
     3623.20417      0.16807830E-046
     3626.93740      0.11162939E-044
     3630.67064      0.68038118E-043
     3634.40388      0.38056856E-041
     3638.13712      0.19535314E-039
     3641.87036      0.92026888E-038
     3645.60360      0.39784687E-036
     3649.33684      0.15784253E-034
     3653.07008      0.57469706E-033
     3656.80332      0.19202633E-031
     3660.53656      0.58882937E-030
     3664.26980      0.16570095E-028
     3668.00304      0.42792476E-027
     3671.73628      0.10141839E-025
     3675.46951      0.22058341E-024
     3679.20275      0.44028701E-023
     3682.93599      0.80650258E-022
     3686.66923      0.13557591E-020
     3690.40247      0.20915401E-019
     3694.13571      0.29611251E-018
     3697.86895      0.38472839E-017
     3701.60219      0.45873160E-016
     3705.33543      0.50196109E-015
     3709.06867      0.50406727E-014
     3712.80191      0.46453034E-013
     3716.53515      0.39286826E-012
     3720.26838      0.30492099E-011
     3724.00162      0.21718785E-010
     3727.73486      0.14196854E-009
     3731.46810      0.85164351E-009
     3735.20134      0.46885004E-008
     3738.93458      0.23687668E-007
     3742.66782      0.10983120E-006
     3746.40106      0.46735689E-006
     3750.13430      0.18251463E-005
     3753.86754      0.65415867E-005
     3757.60078      0.21518923E-004
     3761.33402      0.64973146E-004
     3765.06726      0.18007764E-003
     3768.80049      0.45819892E-003
     3772.53373      0.10705376E-002
     3776.26697      0.22973813E-002
     3780.00021      0.45304821E-002
     3783.73345      0.82154871E-002
     3787.46669      0.13713426E-001
     3791.19993      0.21103022E-001
     3794.93317      0.30005212E-001
     3798.66641      0.39544044E-001
     3802.39965      0.48516907E-001
     3806.13289      0.55731434E-001
     3809.86613      0.60348418E-001
     3813.59936      0.62050424E-001
     3817.33260      0.60969558E-001
     3821.06584      0.57473543E-001
     3824.79908      0.51989041E-001
     3828.53232      0.44970135E-001
     3832.26556      0.36970511E-001
     3835.99880      0.28688801E-001
     3839.73204      0.20898586E-001
     3843.46528      0.14292709E-001
     3847.19852      0.93532202E-002
     3850.93176      0.63410796E-002
     3854.66500      0.54117967E-002
     3858.39824      0.67761750E-002
     3862.13147      0.10790787E-001
     3865.86471      0.17890658E-001
     3869.59795      0.28352577E-001
     3873.33119      0.41976448E-001
     3877.06443      0.57852792E-001
     3880.79767      0.74389870E-001
     3884.53091      0.89667194E-001
     3888.26415      0.10199766     
     3891.99739      0.11043146     
     3895.73063      0.11494134     
     3899.46387      0.11621061     
     3903.19711      0.11518430     
     3906.93034      0.11266409     
     3910.66358      0.10914596     
     3914.39682      0.10489769     
     3918.13006      0.10012102     
     3921.86330      0.95045437E-001
     3925.59654      0.89912859E-001
     3929.32978      0.84909850E-001
     3933.06302      0.80112793E-001
     3936.79626      0.75465675E-001
     3940.52950      0.70783314E-001
     3944.26274      0.65786308E-001
     3947.99598      0.60186264E-001
     3951.72922      0.53813714E-001
     3955.46245      0.46735114E-001
     3959.19569      0.39289187E-001
     3962.92893      0.32009775E-001
     3966.66217      0.25465464E-001
     3970.39541      0.20089033E-001
     3974.12865      0.16067431E-001
     3977.86189      0.13325210E-001
     3981.59513      0.11589889E-001
     3985.32837      0.10500589E-001
     3989.06161      0.97180197E-002
     3992.79485      0.90058321E-002
     3996.52809      0.82679696E-002
     4000.26132      0.75384429E-002
     4003.99456      0.69305234E-002
     4007.72780      0.65635086E-002
     4011.46104      0.64935423E-002
     4015.19428      0.66746227E-002
     4018.92752      0.69646841E-002
     4022.66076      0.71733798E-002
     4026.39400      0.71305917E-002
     4030.12724      0.67457439E-002
     4033.86048      0.60327418E-002
     4037.59372      0.50925931E-002
     4041.32696      0.40666120E-002
     4045.06020      0.30854278E-002
     4048.79343      0.22360372E-002
     4052.52667      0.15547810E-002
     4056.25991      0.10394153E-002
     4059.99315      0.66726278E-003
     4063.72639      0.40953389E-003
     4067.45963      0.23878091E-003
     4071.19287      0.13134486E-003
     4074.92611      0.67726120E-004
     4078.65935      0.32564332E-004
     4082.39259      0.14542007E-004
     4086.12583      0.60136490E-005
     4089.85907      0.22982758E-005
     4093.59230      0.81062474E-006
     4097.32554      0.26363077E-006
     4101.05878      0.79008531E-007
     4104.79202      0.21811666E-007
     4108.52526      0.55454391E-008
     4112.25850      0.12982220E-008
     4115.99174      0.27984562E-009
     4119.72498      0.55741403E-010
     4123.45822      0.11887212E-010
     4127.19146      0.14703320E-010
     4130.92470      0.89172021E-010
     4134.65794      0.55815414E-009
     4138.39118      0.32152625E-008
     4142.12441      0.16998615E-007
     4145.85765      0.82474208E-007
     4149.59089      0.36722280E-006
     4153.32413      0.15005414E-005
     4157.05737      0.56269520E-005
     4160.79061      0.19364456E-004
     4164.52385      0.61156729E-004
     4168.25709      0.17725156E-003
     4171.99033      0.47145771E-003
     4175.72357      0.11508065E-002
     4179.45681      0.25779157E-002
     4183.19005      0.52995865E-002
     4186.92328      0.99982072E-002
     4190.65652      0.17310481E-001
     4194.38976      0.27504453E-001
     4198.12300      0.40105484E-001
     4201.85624      0.53667500E-001
     4205.58948      0.65906135E-001
     4209.32272      0.74275773E-001
     4213.05596      0.76820192E-001
     4216.78920      0.72913922E-001
     4220.52244      0.63511504E-001
     4224.25568      0.50769302E-001
     4227.98892      0.37244047E-001
     4231.72216      0.25073756E-001
     4235.45539      0.15491333E-001
     4239.18863      0.87834486E-002
     4242.92187      0.45703367E-002
     4246.65511      0.21824193E-002
     4250.38835      0.95639006E-003
     4254.12159      0.38462613E-003
     4257.85483      0.14195457E-003
     4261.58807      0.48080263E-004
     4265.32131      0.14944836E-004
     4269.05455      0.42630689E-005
     4272.78779      0.11159903E-005
     4276.52103      0.26810526E-006
     4280.25426      0.59109478E-007
     4283.98750      0.11959576E-007
     4287.72074      0.22206560E-008
     4291.45398      0.37840223E-009
     4295.18722      0.59174273E-010
     4298.92046      0.84921773E-011
     4302.65370      0.11184383E-011
