      581.61020      0.16956767E-003
      581.79020      0.17011697E-003
      581.97020      0.17063934E-003
      582.15020      0.17113455E-003
      582.33020      0.17160237E-003
      582.51020      0.17204262E-003
      582.69020      0.17245512E-003
      582.87020      0.17283969E-003
      583.05020      0.17319622E-003
      583.23020      0.17352458E-003
      583.41020      0.17382467E-003
      583.59020      0.17409643E-003
      583.77020      0.17433978E-003
      583.95020      0.17455469E-003
      584.13020      0.17474116E-003
      584.31020      0.17489918E-003
      584.49020      0.17502878E-003
      584.67020      0.17512999E-003
      584.85020      0.17520290E-003
      585.03020      0.17524757E-003
      585.21020      0.17526412E-003
      585.39020      0.17525267E-003
      585.57020      0.17521336E-003
      585.75020      0.17514635E-003
      585.93020      0.17505182E-003
      586.11020      0.17492998E-003
      586.29020      0.17478103E-003
      586.47020      0.17460522E-003
      586.65020      0.17440280E-003
      586.83020      0.17417404E-003
      587.01020      0.17391923E-003
      587.19020      0.17363867E-003
      587.37020      0.17333268E-003
      587.55020      0.17300160E-003
      587.73020      0.17264579E-003
      587.91020      0.17226560E-003
      588.09020      0.17186143E-003
      588.27020      0.17143366E-003
      588.45020      0.17098271E-003
      588.63020      0.17050900E-003
      588.81020      0.17001297E-003
      588.99020      0.16949506E-003
      589.17020      0.16895573E-003
      589.35020      0.16839546E-003
      589.53020      0.16781473E-003
      589.71020      0.16721402E-003
      589.89020      0.16659384E-003
      590.07020      0.16595470E-003
      590.25020      0.16529711E-003
      590.43020      0.16462160E-003
      590.61020      0.16392871E-003
      590.79020      0.16321897E-003
      590.97020      0.16249293E-003
      591.15020      0.16175114E-003
      591.33020      0.16099416E-003
      591.51020      0.16022254E-003
      591.69020      0.15943685E-003
      591.87020      0.15863766E-003
      592.05020      0.15782552E-003
      592.23020      0.15700103E-003
      592.41020      0.15616473E-003
      592.59020      0.15531722E-003
      592.77020      0.15445905E-003
      592.95020      0.15359081E-003
      593.13020      0.15271305E-003
      593.31020      0.15182636E-003
      593.49020      0.15093128E-003
      593.67020      0.15002840E-003
      593.85020      0.14911827E-003
      594.03020      0.14820144E-003
      594.21020      0.14727846E-003
      594.39020      0.14634988E-003
      594.57020      0.14541625E-003
      594.75020      0.14447809E-003
      594.93020      0.14353593E-003
      595.11020      0.14259029E-003
      595.29020      0.14164170E-003
      595.47020      0.14069064E-003
      595.65020      0.13973762E-003
      595.83020      0.13878313E-003
      596.01020      0.13782764E-003
      596.19020      0.13687163E-003
      596.37020      0.13591555E-003
      596.55020      0.13495985E-003
      596.73020      0.13400497E-003
      596.91020      0.13305133E-003
      597.09020      0.13209936E-003
      597.27020      0.13114945E-003
      597.45020      0.13020200E-003
      597.63020      0.12925739E-003
      597.81020      0.12831598E-003
      597.99020      0.12737813E-003
      598.17020      0.12644418E-003
      598.35020      0.12551446E-003
      598.53020      0.12458929E-003
      598.71020      0.12366896E-003
      598.89020      0.12275378E-003
      599.07020      0.12184400E-003
      599.25020      0.12093991E-003
      599.43020      0.12004173E-003
      599.61020      0.11914972E-003
      599.79020      0.11826408E-003
      599.97020      0.11738503E-003
      600.15020      0.11651275E-003
      600.33020      0.11564744E-003
      600.51020      0.11478925E-003
      600.69020      0.11393834E-003
      600.87020      0.11309484E-003
      601.05020      0.11225888E-003
      601.23020      0.11143057E-003
      601.41020      0.11061002E-003
      601.59020      0.10979730E-003
      601.77020      0.10899249E-003
      601.95020      0.10819564E-003
      602.13020      0.10740681E-003
      602.31020      0.10662603E-003
      602.49020      0.10585332E-003
      602.67020      0.10508869E-003
      602.85020      0.10433215E-003
      603.03020      0.10358367E-003
      603.21020      0.10284324E-003
      603.39020      0.10211082E-003
      603.57020      0.10138636E-003
      603.75020      0.10066981E-003
      603.93020      0.99961103E-004
      604.11020      0.99260164E-004
      604.29020      0.98566908E-004
      604.47020      0.97881241E-004
      604.65020      0.97203060E-004
      604.83020      0.96532254E-004
      605.01020      0.95868704E-004
      605.19020      0.95212284E-004
      605.37020      0.94562859E-004
      605.55020      0.93920289E-004
      605.73020      0.93284426E-004
      605.91020      0.92655117E-004
      606.09020      0.92032201E-004
      606.27020      0.91415515E-004
      606.45020      0.90804887E-004
      606.63020      0.90200145E-004
      606.81020      0.89601107E-004
      606.99020      0.89007593E-004
      607.17020      0.88419415E-004
      607.35020      0.87836384E-004
      607.53020      0.87258307E-004
      607.71020      0.86684991E-004
      607.89020      0.86116238E-004
      608.07020      0.85551849E-004
      608.25020      0.84991627E-004
      608.43020      0.84435369E-004
      608.61020      0.83882874E-004
      608.79020      0.83333942E-004
      608.97020      0.82788371E-004
      609.15020      0.82245960E-004
      609.33020      0.81706510E-004
      609.51020      0.81169821E-004
      609.69020      0.80635696E-004
      609.87020      0.80103939E-004
      610.05020      0.79574356E-004
      610.23020      0.79046757E-004
      610.41020      0.78520952E-004
      610.59020      0.77996756E-004
      610.77020      0.77473986E-004
      610.95020      0.76952463E-004
      611.13020      0.76432010E-004
      611.31020      0.75912458E-004
      611.49020      0.75393637E-004
      611.67020      0.74875385E-004
      611.85020      0.74357543E-004
      612.03020      0.73839957E-004
      612.21020      0.73322479E-004
      612.39020      0.72804963E-004
      612.57020      0.72287273E-004
      612.75020      0.71769274E-004
      612.93020      0.71250839E-004
      613.11020      0.70731845E-004
      613.29020      0.70212178E-004
      613.47020      0.69691726E-004
      613.65020      0.69170386E-004
      613.83020      0.68648059E-004
      614.01020      0.68124653E-004
      614.19020      0.67600083E-004
      614.37020      0.67074269E-004
      614.55020      0.66547139E-004
      614.73020      0.66018625E-004
      614.91020      0.65488668E-004
      615.09020      0.64957213E-004
      615.27020      0.64424213E-004
      615.45020      0.63889627E-004
      615.63020      0.63353420E-004
      615.81020      0.62815564E-004
      615.99020      0.62276037E-004
      616.17020      0.61734822E-004
      616.35020      0.61191911E-004
      616.53020      0.60647299E-004
      616.71020      0.60100991E-004
      616.89020      0.59552993E-004
      617.07020      0.59003321E-004
      617.25020      0.58451995E-004
      617.43020      0.57899042E-004
      617.61020      0.57344492E-004
      617.79020      0.56788383E-004
      617.97020      0.56230757E-004
      618.15020      0.55671662E-004
      618.33020      0.55111152E-004
      618.51020      0.54549283E-004
      618.69020      0.53986119E-004
      618.87020      0.53421726E-004
      619.05020      0.52856177E-004
      619.23020      0.52289547E-004
      619.41020      0.51721917E-004
      619.59020      0.51153371E-004
      619.77020      0.50583997E-004
      619.95020      0.50013888E-004
      620.13020      0.49443138E-004
      620.31020      0.48871846E-004
      620.49020      0.48300114E-004
      620.67020      0.47728047E-004
      620.85020      0.47155753E-004
      621.03020      0.46583341E-004
      621.21020      0.46010925E-004
      621.39020      0.45438619E-004
      621.57020      0.44866540E-004
      621.75020      0.44294807E-004
      621.93020      0.43723540E-004
      622.11020      0.43152862E-004
      622.29020      0.42582895E-004
      622.47020      0.42013765E-004
      622.65020      0.41445596E-004
      622.83020      0.40878516E-004
      623.01020      0.40312650E-004
      623.19020      0.39748126E-004
      623.37020      0.39185071E-004
      623.55020      0.38623614E-004
      623.73020      0.38063882E-004
      623.91020      0.37506003E-004
      624.09020      0.36950102E-004
      624.27020      0.36396308E-004
      624.45020      0.35844745E-004
      624.63020      0.35295538E-004
      624.81020      0.34748812E-004
      624.99020      0.34204690E-004
      625.17020      0.33663292E-004
      625.35020      0.33124740E-004
      625.53020      0.32589152E-004
      625.71020      0.32056645E-004
      625.89020      0.31527334E-004
      626.07020      0.31001333E-004
      626.25020      0.30478754E-004
      626.43020      0.29959705E-004
      626.61020      0.29444295E-004
      626.79020      0.28932627E-004
      626.97020      0.28424805E-004
      627.15020      0.27920928E-004
      627.33020      0.27421095E-004
      627.51020      0.26925400E-004
      627.69020      0.26433935E-004
      627.87020      0.25946791E-004
      628.05020      0.25464054E-004
      628.23020      0.24985807E-004
      628.41020      0.24512133E-004
      628.59020      0.24043109E-004
      628.77020      0.23578809E-004
      628.95020      0.23119307E-004
      629.13020      0.22664671E-004
      629.31020      0.22214968E-004
      629.49020      0.21770259E-004
      629.67020      0.21330605E-004
      629.85020      0.20896062E-004
      630.03020      0.20466683E-004
      630.21020      0.20042520E-004
      630.39020      0.19623618E-004
      630.57020      0.19210023E-004
      630.75020      0.18801774E-004
      630.93020      0.18398909E-004
      631.11020      0.18001464E-004
      631.29020      0.17609469E-004
      631.47020      0.17222953E-004
      631.65020      0.16841941E-004
      631.83020      0.16466456E-004
      632.01020      0.16096516E-004
      632.19020      0.15732140E-004
      632.37020      0.15373339E-004
      632.55020      0.15020124E-004
      632.73020      0.14672505E-004
      632.91020      0.14330484E-004
      633.09020      0.13994065E-004
      633.27020      0.13663247E-004
      633.45020      0.13338028E-004
      633.63020      0.13018402E-004
      633.81020      0.12704360E-004
      633.99020      0.12395892E-004
      634.17020      0.12092985E-004
      634.35020      0.11795623E-004
      634.53020      0.11503790E-004
      634.71020      0.11217466E-004
      634.89020      0.10936627E-004
      635.07020      0.10661251E-004
      635.25020      0.10391312E-004
      635.43020      0.10126781E-004
      635.61020      0.98676285E-005
      635.79020      0.96138229E-005
      635.97020      0.93653308E-005
      636.15020      0.91221172E-005
      636.33020      0.88841452E-005
      636.51020      0.86513769E-005
      636.69020      0.84237724E-005
      636.87020      0.82012907E-005
      637.05020      0.79838895E-005
      637.23020      0.77715251E-005
      637.41020      0.75641527E-005
      637.59020      0.73617264E-005
      637.77020      0.71641991E-005
      637.95020      0.69715229E-005
      638.13020      0.67836489E-005
      638.31020      0.66005273E-005
      638.49020      0.64221076E-005
      638.67020      0.62483386E-005
      638.85020      0.60791682E-005
      639.03020      0.59145441E-005
      639.21020      0.57544130E-005
      639.39020      0.55987215E-005
      639.57020      0.54474155E-005
      639.75020      0.53004407E-005
      639.93020      0.51577423E-005
      640.11020      0.50192655E-005
      640.29020      0.48849550E-005
      640.47020      0.47547555E-005
      640.65020      0.46286116E-005
      640.83020      0.45064677E-005
      641.01020      0.43882684E-005
      641.19020      0.42739580E-005
      641.37020      0.41634811E-005
      641.55020      0.40567824E-005
      641.73020      0.39538067E-005
      641.91020      0.38544988E-005
      642.09020      0.37588041E-005
      642.27020      0.36666678E-005
      642.45020      0.35780358E-005
      642.63020      0.34928540E-005
      642.81020      0.34110688E-005
      642.99020      0.33326269E-005
      643.17020      0.32574754E-005
      643.35020      0.31855619E-005
      643.53020      0.31168343E-005
      643.71020      0.30512410E-005
      643.89020      0.29887311E-005
      644.07020      0.29292538E-005
      644.25020      0.28727590E-005
      644.43020      0.28191973E-005
      644.61020      0.27685196E-005
      644.79020      0.27206774E-005
      644.97020      0.26756228E-005
      645.15020      0.26333085E-005
      645.33020      0.25936877E-005
      645.51020      0.25567142E-005
      645.69020      0.25223423E-005
      645.87020      0.24905271E-005
      646.05020      0.24612242E-005
      646.23020      0.24343896E-005
      646.41020      0.24099802E-005
      646.59020      0.23879532E-005
      646.77020      0.23682666E-005
      646.95020      0.23508788E-005
      647.13020      0.23357490E-005
      647.31020      0.23228367E-005
      647.49020      0.23121021E-005
      647.67020      0.23035060E-005
      647.85020      0.22970096E-005
      648.03020      0.22925748E-005
      648.21020      0.22901639E-005
      648.39020      0.22897398E-005
      648.57020      0.22912656E-005
      648.75020      0.22947054E-005
      648.93020      0.23000234E-005
      649.11020      0.23071842E-005
      649.29020      0.23161533E-005
      649.47020      0.23268960E-005
      649.65020      0.23393785E-005
      649.83020      0.23535672E-005
      650.01020      0.23694289E-005
      650.19020      0.23869308E-005
      650.37020      0.24060403E-005
      650.55020      0.24267254E-005
      650.73020      0.24489541E-005
      650.91020      0.24726950E-005
      651.09020      0.24979166E-005
      651.27020      0.25245881E-005
      651.45020      0.25526786E-005
      651.63020      0.25821576E-005
      651.81020      0.26129947E-005
      651.99020      0.26451598E-005
      652.17020      0.26786228E-005
      652.35020      0.27133540E-005
      652.53020      0.27493236E-005
      652.71020      0.27865021E-005
      652.89020      0.28248600E-005
      653.07020      0.28643679E-005
      653.25020      0.29049964E-005
      653.43020      0.29467164E-005
      653.61020      0.29894986E-005
      653.79020      0.30333139E-005
      653.97020      0.30781330E-005
      654.15020      0.31239267E-005
      654.33020      0.31706660E-005
      654.51020      0.32183216E-005
      654.69020      0.32668641E-005
      654.87020      0.33162645E-005
      655.05020      0.33664932E-005
      655.23020      0.34175208E-005
      655.41020      0.34693179E-005
      655.59020      0.35218549E-005
      655.77020      0.35751020E-005
      655.95020      0.36290295E-005
      656.13020      0.36836075E-005
      656.31020      0.37388059E-005
      656.49020      0.37945946E-005
      656.67020      0.38509434E-005
      656.85020      0.39078219E-005
      657.03020      0.39651995E-005
      657.21020      0.40230455E-005
      657.39020      0.40813293E-005
      657.57020      0.41400198E-005
      657.75020      0.41990860E-005
      657.93020      0.42584967E-005
      658.11020      0.43182205E-005
      658.29020      0.43782261E-005
      658.47020      0.44384817E-005
      658.65020      0.44989558E-005
      658.83020      0.45596164E-005
      659.01020      0.46204317E-005
      659.19020      0.46813695E-005
      659.37020      0.47423978E-005
      659.55020      0.48034842E-005
      659.73020      0.48645965E-005
      659.91020      0.49257024E-005
      660.09020      0.49867693E-005
      660.27020      0.50477647E-005
      660.45020      0.51086561E-005
      660.63020      0.51694109E-005
      660.81020      0.52299966E-005
      660.99020      0.52903806E-005
      661.17020      0.53505302E-005
      661.35020      0.54104130E-005
      661.53020      0.54699964E-005
      661.71020      0.55292480E-005
      661.89020      0.55881355E-005
      662.07020      0.56466265E-005
      662.25020      0.57046888E-005
      662.43020      0.57622905E-005
      662.61020      0.58193997E-005
      662.79020      0.58759845E-005
      662.97020      0.59320135E-005
      663.15020      0.59874553E-005
      663.33020      0.60422787E-005
      663.51020      0.60964529E-005
      663.69020      0.61499472E-005
      663.87020      0.62027312E-005
      664.05020      0.62547749E-005
      664.23020      0.63060486E-005
      664.41020      0.63565229E-005
      664.59020      0.64061687E-005
      664.77020      0.64549573E-005
      664.95020      0.65028605E-005
      665.13020      0.65498506E-005
      665.31020      0.65959000E-005
      665.49020      0.66409819E-005
      665.67020      0.66850698E-005
      665.85020      0.67281378E-005
      666.03020      0.67701604E-005
      666.21020      0.68111129E-005
      666.39020      0.68509709E-005
      666.57020      0.68897107E-005
      666.75020      0.69273091E-005
      666.93020      0.69637437E-005
      667.11020      0.69989927E-005
      667.29020      0.70330347E-005
      667.47020      0.70658493E-005
      667.65020      0.70974167E-005
      667.83020      0.71277177E-005
      668.01020      0.71567339E-005
      668.19020      0.71844476E-005
      668.37020      0.72108419E-005
      668.55020      0.72359008E-005
      668.73020      0.72596087E-005
      668.91020      0.72819513E-005
      669.09020      0.73029146E-005
      669.27020      0.73224857E-005
      669.45020      0.73406526E-005
      669.63020      0.73574040E-005
      669.81020      0.73727294E-005
      669.99020      0.73866192E-005
      670.17020      0.73990649E-005
      670.35020      0.74100585E-005
      670.53020      0.74195932E-005
      670.71020      0.74276628E-005
      670.89020      0.74342622E-005
      671.07020      0.74393871E-005
      671.25020      0.74430342E-005
      671.43020      0.74452009E-005
      671.61020      0.74458858E-005
      671.79020      0.74450881E-005
      671.97020      0.74428081E-005
      672.15020      0.74390469E-005
      672.33020      0.74338065E-005
      672.51020      0.74270899E-005
      672.69020      0.74189009E-005
      672.87020      0.74092442E-005
      673.05020      0.73981254E-005
      673.23020      0.73855510E-005
      673.41020      0.73715283E-005
      673.59020      0.73560656E-005
      673.77020      0.73391718E-005
      673.95020      0.73208569E-005
      674.13020      0.73011316E-005
      674.31020      0.72800074E-005
      674.49020      0.72574968E-005
      674.67020      0.72336129E-005
      674.85020      0.72083697E-005
      675.03020      0.71817818E-005
      675.21020      0.71538647E-005
      675.39020      0.71246348E-005
      675.57020      0.70941088E-005
      675.75020      0.70623045E-005
      675.93020      0.70292401E-005
      676.11020      0.69949348E-005
      676.29020      0.69594081E-005
      676.47020      0.69226804E-005
      676.65020      0.68847726E-005
      676.83020      0.68457061E-005
      677.01020      0.68055032E-005
      677.19020      0.67641864E-005
      677.37020      0.67217788E-005
      677.55020      0.66783042E-005
      677.73020      0.66337868E-005
      677.91020      0.65882512E-005
      678.09020      0.65417224E-005
      678.27020      0.64942259E-005
      678.45020      0.64457877E-005
      678.63020      0.63964340E-005
      678.81020      0.63461915E-005
      678.99020      0.62950870E-005
      679.17020      0.62431479E-005
      679.35020      0.61904015E-005
      679.53020      0.61368758E-005
      679.71020      0.60825987E-005
      679.89020      0.60275984E-005
      680.07020      0.59719033E-005
      680.25020      0.59155420E-005
      680.43020      0.58585430E-005
      680.61020      0.58009353E-005
      680.79020      0.57427476E-005
      680.97020      0.56840088E-005
      681.15020      0.56247480E-005
      681.33020      0.55649941E-005
      681.51020      0.55047760E-005
      681.69020      0.54441227E-005
      681.87020      0.53830631E-005
      682.05020      0.53216259E-005
      682.23020      0.52598399E-005
      682.41020      0.51977336E-005
      682.59020      0.51353353E-005
      682.77020      0.50726735E-005
      682.95020      0.50097761E-005
      683.13020      0.49466711E-005
      683.31020      0.48833860E-005
      683.49020      0.48199484E-005
      683.67020      0.47563852E-005
      683.85020      0.46927234E-005
      684.03020      0.46289896E-005
      684.21020      0.45652100E-005
      684.39020      0.45014105E-005
      684.57020      0.44376166E-005
      684.75020      0.43738536E-005
      684.93020      0.43101464E-005
      685.11020      0.42465192E-005
      685.29020      0.41829963E-005
      685.47020      0.41196011E-005
      685.65020      0.40563569E-005
      685.83020      0.39932863E-005
      686.01020      0.39304118E-005
      686.19020      0.38677550E-005
      686.37020      0.38053374E-005
      686.55020      0.37431798E-005
      686.73020      0.36813025E-005
      686.91020      0.36197254E-005
      687.09020      0.35584679E-005
      687.27020      0.34975488E-005
      687.45020      0.34369864E-005
      687.63020      0.33767986E-005
      687.81020      0.33170025E-005
      687.99020      0.32576149E-005
      688.17020      0.31986520E-005
      688.35020      0.31401294E-005
      688.53020      0.30820622E-005
      688.71020      0.30244650E-005
      688.89020      0.29673518E-005
      689.07020      0.29107359E-005
      689.25020      0.28546303E-005
      689.43020      0.27990474E-005
      689.61020      0.27439989E-005
      689.79020      0.26894961E-005
      689.97020      0.26355496E-005
      690.15020      0.25821698E-005
      690.33020      0.25293661E-005
      690.51020      0.24771476E-005
      690.69020      0.24255229E-005
      690.87020      0.23745001E-005
      691.05020      0.23240866E-005
      691.23020      0.22742893E-005
      691.41020      0.22251148E-005
      691.59020      0.21765690E-005
      691.77020      0.21286574E-005
      691.95020      0.20813849E-005
      692.13020      0.20347559E-005
      692.31020      0.19887746E-005
      692.49020      0.19434443E-005
      692.67020      0.18987681E-005
      692.85020      0.18547487E-005
      693.03020      0.18113882E-005
      693.21020      0.17686882E-005
      693.39020      0.17266501E-005
      693.57020      0.16852747E-005
      693.75020      0.16445624E-005
      693.93020      0.16045133E-005
      694.11020      0.15651270E-005
      694.29020      0.15264028E-005
      694.47020      0.14883396E-005
      694.65020      0.14509358E-005
      694.83020      0.14141898E-005
      695.01020      0.13780992E-005
      695.19020      0.13426616E-005
      695.37020      0.13078741E-005
      695.55020      0.12737337E-005
      695.73020      0.12402369E-005
      695.91020      0.12073799E-005
      696.09020      0.11751588E-005
      696.27020      0.11435692E-005
      696.45020      0.11126067E-005
      696.63020      0.10822664E-005
      696.81020      0.10525434E-005
      696.99020      0.10234323E-005
      697.17020      0.99492777E-006
      697.35020      0.96702406E-006
      697.53020      0.93971533E-006
      697.71020      0.91299553E-006
      697.89020      0.88685841E-006
      698.07020      0.86129759E-006
      698.25020      0.83630651E-006
      698.43020      0.81187847E-006
      698.61020      0.78800664E-006
      698.79020      0.76468405E-006
      698.97020      0.74190362E-006
      699.15020      0.71965816E-006
      699.33020      0.69794037E-006
      699.51020      0.67674287E-006
      699.69020      0.65605819E-006
      699.87020      0.63587879E-006
      700.05020      0.61619705E-006
      700.23020      0.59700532E-006
      700.41020      0.57829586E-006
      700.59020      0.56006093E-006
      700.77020      0.54229271E-006
      700.95020      0.52498339E-006
      701.13020      0.50812512E-006
      701.31020      0.49171003E-006
      701.49020      0.47573026E-006
      701.67020      0.46017793E-006
      701.85020      0.44504517E-006
      702.03020      0.43032414E-006
      702.21020      0.41600699E-006
      702.39020      0.40208591E-006
      702.57020      0.38855310E-006
      702.75020      0.37540081E-006
      702.93020      0.36262133E-006
      703.11020      0.35020697E-006
      703.29020      0.33815010E-006
      703.47020      0.32644315E-006
      703.65020      0.31507860E-006
      703.83020      0.30404899E-006
      704.01020      0.29334691E-006
      704.19020      0.28296503E-006
      704.37020      0.27289610E-006
      704.55020      0.26313293E-006
      704.73020      0.25366839E-006
      704.91020      0.24449548E-006
      705.09020      0.23560722E-006
      705.27020      0.22699677E-006
      705.45020      0.21865734E-006
      705.63020      0.21058224E-006
      705.81020      0.20276488E-006
      705.99020      0.19519875E-006
      706.17020      0.18787743E-006
      706.35020      0.18079462E-006
      706.53020      0.17394410E-006
      706.71020      0.16731975E-006
      706.89020      0.16091555E-006
      707.07020      0.15472559E-006
      707.25020      0.14874403E-006
      707.43020      0.14296518E-006
      707.61020      0.13738341E-006
      707.79020      0.13199322E-006
      707.97020      0.12678919E-006
      708.15020      0.12176604E-006
      708.33020      0.11691854E-006
      708.51020      0.11224162E-006
      708.69020      0.10773028E-006
      708.87020      0.10337962E-006
      709.05020      0.99184857E-007
      709.23020      0.95141309E-007
      709.41020      0.91244391E-007
      709.59020      0.87489621E-007
      709.77020      0.83872617E-007
      709.95020      0.80389099E-007
      710.13020      0.77034883E-007
      710.31020      0.73805886E-007
      710.49020      0.70698121E-007
      710.67020      0.67707698E-007
      710.85020      0.64830822E-007
      711.03020      0.62063793E-007
      711.21020      0.59403003E-007
      711.39020      0.56844938E-007
      711.57020      0.54386172E-007
      711.75020      0.52023371E-007
      711.93020      0.49753288E-007
      712.11020      0.47572765E-007
      712.29020      0.45478727E-007
      712.47020      0.43468185E-007
      712.65020      0.41538234E-007
      712.83020      0.39686047E-007
      713.01020      0.37908881E-007
      713.19020      0.36204070E-007
      713.37020      0.34569024E-007
      713.55020      0.33001232E-007
      713.73020      0.31498254E-007
      713.91020      0.30057726E-007
      714.09020      0.28677353E-007
      714.27020      0.27354911E-007
      714.45020      0.26088245E-007
      714.63020      0.24875265E-007
      714.81020      0.23713948E-007
      714.99020      0.22602336E-007
      715.17020      0.21538531E-007
      715.35020      0.20520699E-007
      715.53020      0.19547063E-007
      715.71020      0.18615907E-007
      715.89020      0.17725568E-007
      716.07020      0.16874443E-007
      716.25020      0.16060979E-007
      716.43020      0.15283679E-007
      716.61020      0.14541095E-007
      716.79020      0.13831828E-007
      716.97020      0.13154532E-007
      717.15020      0.12507902E-007
      717.33020      0.11890685E-007
      717.51020      0.11301669E-007
      717.69020      0.10739686E-007
      717.87020      0.10203611E-007
      718.05020      0.96923598E-008
      718.23020      0.92048867E-008
      718.41020      0.87401859E-008
      718.59020      0.82972886E-008
      718.77020      0.78752623E-008
      718.95020      0.74732095E-008
      719.13020      0.70902671E-008
      719.31020      0.67256046E-008
      719.49020      0.63784239E-008
      719.67020      0.60479574E-008
      719.85020      0.57334677E-008
      720.03020      0.54342464E-008
      720.21020      0.51496128E-008
      720.39020      0.48789137E-008
      720.57020      0.46215217E-008
      720.75020      0.43768349E-008
      720.93020      0.41442757E-008
      721.11020      0.39232900E-008
      721.29020      0.37133466E-008
      721.47020      0.35139361E-008
      721.65020      0.33245705E-008
      721.83020      0.31447819E-008
      722.01020      0.29741223E-008
      722.19020      0.28121625E-008
      722.37020      0.26584917E-008
      722.55020      0.25127166E-008
      722.73020      0.23744608E-008
      722.91020      0.22433644E-008
      723.09020      0.21190828E-008
      723.27020      0.20012869E-008
      723.45020      0.18896617E-008
      723.63020      0.17839065E-008
      723.81020      0.16837337E-008
      723.99020      0.15888688E-008
      724.17020      0.14990494E-008
      724.35020      0.14140253E-008
      724.53020      0.13335574E-008
      724.71020      0.12574177E-008
      724.89020      0.11853885E-008
      725.07020      0.11172623E-008
      725.25020      0.10528413E-008
      725.43020      0.99193670E-009
      725.61020      0.93436878E-009
      725.79020      0.87996617E-009
      725.97020      0.82856568E-009
      726.15020      0.78001186E-009
      726.33020      0.73415672E-009
      726.51020      0.69085937E-009
      726.69020      0.64998574E-009
      726.87020      0.61140827E-009
      727.05020      0.57500562E-009
      727.23020      0.54066241E-009
      727.41020      0.50826894E-009
      727.59020      0.47772092E-009
      727.77020      0.44891928E-009
      727.95020      0.42176988E-009
      728.13020      0.39618330E-009
      728.31020      0.37207464E-009
      728.49020      0.34936330E-009
      728.67020      0.32797278E-009
      728.85020      0.30783047E-009
      729.03020      0.28886753E-009
      729.21020      0.27101864E-009
      729.39020      0.25422186E-009
      729.57020      0.23841848E-009
      729.75020      0.22355287E-009
      729.93020      0.20957230E-009
      730.11020      0.19642684E-009
      730.29020      0.18406918E-009
      730.47020      0.17245453E-009
      730.65020      0.16154052E-009
      730.83020      0.15128700E-009
      731.01020      0.14165603E-009
      731.19020      0.13261170E-009
      731.37020      0.12412004E-009
      731.55020      0.11614895E-009
      731.73020      0.10866807E-009
      731.91020      0.10164872E-009
      732.09020      0.95063806E-010
      732.27020      0.88887722E-010
      732.45020      0.83096295E-010
      732.63020      0.77666699E-010
      732.81020      0.72577389E-010
      732.99020      0.67808031E-010
      733.17020      0.63339442E-010
      733.35020      0.59153526E-010
      733.53020      0.55233217E-010
      733.71020      0.51562427E-010
      733.89020      0.48125988E-010
      734.07020      0.44909609E-010
      734.25020      0.41899823E-010
      734.43020      0.39083947E-010
      734.61020      0.36450034E-010
      734.79020      0.33986838E-010
      734.97020      0.31683773E-010
      735.15020      0.29530876E-010
      735.33020      0.27518773E-010
      735.51020      0.25638648E-010
      735.69020      0.23882207E-010
      735.87020      0.22241655E-010
      736.05020      0.20709664E-010
      736.23020      0.19279347E-010
      736.41020      0.17944232E-010
      736.59020      0.16698241E-010
      736.77020      0.15535667E-010
      736.95020      0.14451149E-010
      737.13020      0.13439656E-010
      737.31020      0.12496466E-010
      737.49020      0.11617150E-010
      737.67020      0.10797551E-010
      737.85020      0.10033773E-010
      738.03020      0.93221599E-011
      738.21020      0.86592871E-011
      738.39020      0.80419438E-011
      738.57020      0.74671217E-011
      738.75020      0.69320029E-011
      738.93020      0.64339479E-011
      739.11020      0.59704855E-011
      739.29020      0.55393022E-011
      739.47020      0.51382328E-011
      739.65020      0.47652512E-011
      739.83020      0.44184619E-011
      740.01020      0.40960924E-011
      740.19020      0.37964849E-011
      740.37020      0.35180897E-011
      740.55020      0.32594584E-011
      740.73020      0.30192375E-011
      740.91020      0.27961626E-011
      741.09020      0.25890526E-011
      741.27020      0.23968045E-011
      741.45020      0.22183888E-011
      741.63020      0.20528444E-011
      741.81020      0.18992743E-011
      741.99020      0.17568418E-011
      742.17020      0.16247663E-011
      742.35020      0.15023201E-011
      742.53020      0.13888245E-011
      742.71020      0.12836468E-011
      742.89020      0.11861975E-011
      743.07020      0.10959274E-011
      743.25020      0.10123248E-011
      743.43020      0.93491315E-012
      743.61020      0.86324875E-012
      743.79020      0.79691859E-012
      743.97020      0.73553824E-012
      744.15020      0.67875003E-012
      744.33020      0.62622120E-012
      744.51020      0.57764228E-012
      744.69020      0.53272550E-012
      744.87020      0.49120333E-012
      745.05020      0.45282711E-012
      745.23020      0.41736579E-012
      745.41020      0.38460469E-012
      745.59020      0.35434442E-012
      745.77020      0.32639984E-012
      745.95020      0.30059903E-012
      746.13020      0.27678243E-012
      746.31020      0.25480196E-012
      746.49020      0.23452023E-012
      746.67020      0.21580980E-012
      746.85020      0.19855248E-012
      747.03020      0.18263868E-012
      747.21020      0.16796683E-012
      747.39020      0.15444277E-012
      747.57020      0.14197927E-012
      747.75020      0.13049553E-012
      747.93020      0.11991668E-012
      748.11020      0.11017343E-012
      748.29020      0.10120162E-012
      748.47020      0.92941855E-013
      748.65020      0.85339192E-013
      748.83020      0.78342787E-013
      749.01020      0.71905616E-013
      749.19020      0.65984192E-013
      749.37020      0.60538312E-013
      749.55020      0.55530810E-013
      749.73020      0.50927343E-013
      749.91020      0.46696177E-013
      750.09020      0.42808000E-013
      750.27020      0.39235741E-013
      750.45020      0.35954403E-013
      750.63020      0.32940911E-013
      750.81020      0.30173968E-013
      750.99020      0.27633924E-013
      751.17020      0.25302649E-013
      751.35020      0.23163423E-013
      751.53020      0.21200826E-013
      751.71020      0.19400643E-013
      751.89020      0.17749771E-013
      752.07020      0.16236137E-013
      752.25020      0.14848616E-013
      752.43020      0.13576960E-013
      752.61020      0.12411732E-013
      752.79020      0.11344244E-013
      752.97020      0.10366497E-013
      753.15020      0.94711298E-014
      753.33020      0.86513696E-014
      753.51020      0.79009851E-014
      753.69020      0.72142456E-014
      753.87020      0.65858814E-014
      754.05020      0.60110480E-014
      754.23020      0.54852924E-014
      754.41020      0.50045229E-014
      754.59020      0.45649800E-014
      754.77020      0.41632106E-014
      754.95020      0.37960435E-014
      755.13020      0.34605672E-014
      755.31020      0.31541090E-014
      755.49020      0.28742161E-014
      755.67020      0.26186378E-014
      755.85020      0.23853096E-014
      756.03020      0.21723379E-014
      756.21020      0.19779864E-014
      756.39020      0.18006634E-014
      756.57020      0.16389099E-014
      756.75020      0.14913889E-014
      756.93020      0.13568757E-014
      757.11020      0.12342482E-014
      757.29020      0.11224791E-014
      757.47020      0.10206276E-014
      757.65020      0.92783266E-015
      757.83020      0.84330624E-015
      758.01020      0.76632726E-015
      758.19020      0.69623611E-015
      758.37020      0.63242949E-015
      758.55020      0.57435576E-015
      758.73020      0.52151062E-015
      758.91020      0.47343312E-015
      759.09020      0.42970204E-015
      759.27020      0.38993256E-015
      759.45020      0.35377317E-015
      759.63020      0.32090286E-015
      759.81020      0.29102854E-015
      759.99020      0.26388267E-015
      760.17020      0.23922110E-015
      760.35020      0.21682102E-015
      760.53020      0.19647921E-015
      760.71020      0.17801029E-015
      760.89020      0.16124525E-015
      761.07020      0.14602998E-015
      761.25020      0.13222405E-015
      761.43020      0.11969946E-015
      761.61020      0.10833960E-015
