     2203.29290      0.35802791E-001
     2203.47290      0.36029200E-001
     2203.65290      0.36249804E-001
     2203.83290      0.36464478E-001
     2204.01290      0.36673102E-001
     2204.19290      0.36875558E-001
     2204.37290      0.37071730E-001
     2204.55290      0.37261506E-001
     2204.73290      0.37444778E-001
     2204.91290      0.37621441E-001
     2205.09290      0.37791392E-001
     2205.27290      0.37954534E-001
     2205.45290      0.38110771E-001
     2205.63290      0.38260012E-001
     2205.81290      0.38402172E-001
     2205.99290      0.38537166E-001
     2206.17290      0.38664915E-001
     2206.35290      0.38785344E-001
     2206.53290      0.38898382E-001
     2206.71290      0.39003963E-001
     2206.89290      0.39102023E-001
     2207.07290      0.39192506E-001
     2207.25290      0.39275357E-001
     2207.43290      0.39350527E-001
     2207.61290      0.39417971E-001
     2207.79290      0.39477649E-001
     2207.97290      0.39529525E-001
     2208.15290      0.39573569E-001
     2208.33290      0.39609754E-001
     2208.51290      0.39638059E-001
     2208.69290      0.39658466E-001
     2208.87290      0.39670963E-001
     2209.05290      0.39675543E-001
     2209.23290      0.39672204E-001
     2209.41290      0.39660946E-001
     2209.59290      0.39641778E-001
     2209.77290      0.39614710E-001
     2209.95290      0.39579758E-001
     2210.13290      0.39536944E-001
     2210.31290      0.39486292E-001
     2210.49290      0.39427834E-001
     2210.67290      0.39361604E-001
     2210.85290      0.39287642E-001
     2211.03290      0.39205992E-001
     2211.21290      0.39116701E-001
     2211.39290      0.39019824E-001
     2211.57290      0.38915417E-001
     2211.75290      0.38803543E-001
     2211.93290      0.38684267E-001
     2212.11290      0.38557660E-001
     2212.29290      0.38423796E-001
     2212.47290      0.38282754E-001
     2212.65290      0.38134616E-001
     2212.83290      0.37979469E-001
     2213.01290      0.37817403E-001
     2213.19290      0.37648513E-001
     2213.37290      0.37472895E-001
     2213.55290      0.37290651E-001
     2213.73290      0.37101887E-001
     2213.91290      0.36906709E-001
     2214.09290      0.36705231E-001
     2214.27290      0.36497565E-001
     2214.45290      0.36283831E-001
     2214.63290      0.36064148E-001
     2214.81290      0.35838641E-001
     2214.99290      0.35607434E-001
     2215.17290      0.35370658E-001
     2215.35290      0.35128442E-001
     2215.53290      0.34880922E-001
     2215.71290      0.34628232E-001
     2215.89290      0.34370511E-001
     2216.07290      0.34107898E-001
     2216.25290      0.33840536E-001
     2216.43290      0.33568568E-001
     2216.61290      0.33292138E-001
     2216.79290      0.33011395E-001
     2216.97290      0.32726485E-001
     2217.15290      0.32437558E-001
     2217.33290      0.32144765E-001
     2217.51290      0.31848256E-001
     2217.69290      0.31548183E-001
     2217.87290      0.31244700E-001
     2218.05290      0.30937960E-001
     2218.23290      0.30628116E-001
     2218.41290      0.30315323E-001
     2218.59290      0.29999735E-001
     2218.77290      0.29681507E-001
     2218.95290      0.29360792E-001
     2219.13290      0.29037746E-001
     2219.31290      0.28712522E-001
     2219.49290      0.28385273E-001
     2219.67290      0.28056153E-001
     2219.85290      0.27725313E-001
     2220.03290      0.27392907E-001
     2220.21290      0.27059083E-001
     2220.39290      0.26723992E-001
     2220.57290      0.26387782E-001
     2220.75290      0.26050602E-001
     2220.93290      0.25712596E-001
     2221.11290      0.25373910E-001
     2221.29290      0.25034688E-001
     2221.47290      0.24695070E-001
     2221.65290      0.24355197E-001
     2221.83290      0.24015207E-001
     2222.01290      0.23675237E-001
     2222.19290      0.23335421E-001
     2222.37290      0.22995891E-001
     2222.55290      0.22656779E-001
     2222.73290      0.22318211E-001
     2222.91290      0.21980314E-001
     2223.09290      0.21643213E-001
     2223.27290      0.21307027E-001
     2223.45290      0.20971877E-001
     2223.63290      0.20637879E-001
     2223.81290      0.20305146E-001
     2223.99290      0.19973790E-001
     2224.17290      0.19643919E-001
     2224.35290      0.19315641E-001
     2224.53290      0.18989057E-001
     2224.71290      0.18664270E-001
     2224.89290      0.18341376E-001
     2225.07290      0.18020470E-001
     2225.25290      0.17701646E-001
     2225.43290      0.17384991E-001
     2225.61290      0.17070594E-001
     2225.79290      0.16758537E-001
     2225.97290      0.16448900E-001
     2226.15290      0.16141763E-001
     2226.33290      0.15837199E-001
     2226.51290      0.15535280E-001
     2226.69290      0.15236076E-001
     2226.87290      0.14939653E-001
     2227.05290      0.14646073E-001
     2227.23290      0.14355397E-001
     2227.41290      0.14067682E-001
     2227.59290      0.13782983E-001
     2227.77290      0.13501351E-001
     2227.95290      0.13222834E-001
     2228.13290      0.12947479E-001
     2228.31290      0.12675328E-001
     2228.49290      0.12406423E-001
     2228.67290      0.12140799E-001
     2228.85290      0.11878492E-001
     2229.03290      0.11619534E-001
     2229.21290      0.11363955E-001
     2229.39290      0.11111780E-001
     2229.57290      0.10863034E-001
     2229.75290      0.10617739E-001
     2229.93290      0.10375913E-001
     2230.11290      0.10137573E-001
     2230.29290      0.99027328E-002
     2230.47290      0.96714046E-002
     2230.65290      0.94435976E-002
     2230.83290      0.92193187E-002
     2231.01290      0.89985729E-002
     2231.19290      0.87813627E-002
     2231.37290      0.85676886E-002
     2231.55290      0.83575489E-002
     2231.73290      0.81509401E-002
     2231.91290      0.79478565E-002
     2232.09290      0.77482905E-002
     2232.27290      0.75522326E-002
     2232.45290      0.73596716E-002
     2232.63290      0.71705945E-002
     2232.81290      0.69849865E-002
     2232.99290      0.68028312E-002
     2233.17290      0.66241106E-002
     2233.35290      0.64488052E-002
     2233.53290      0.62768939E-002
     2233.71290      0.61083544E-002
     2233.89290      0.59431628E-002
     2234.07290      0.57812940E-002
     2234.25290      0.56227216E-002
     2234.43290      0.54674180E-002
     2234.61290      0.53153546E-002
     2234.79290      0.51665015E-002
     2234.97290      0.50208279E-002
     2235.15290      0.48783020E-002
     2235.33290      0.47388911E-002
     2235.51290      0.46025615E-002
     2235.69290      0.44692789E-002
     2235.87290      0.43390081E-002
     2236.05290      0.42117131E-002
     2236.23290      0.40873576E-002
     2236.41290      0.39659042E-002
     2236.59290      0.38473153E-002
     2236.77290      0.37315528E-002
     2236.95290      0.36185778E-002
     2237.13290      0.35083514E-002
     2237.31290      0.34008341E-002
     2237.49290      0.32959862E-002
     2237.67290      0.31937674E-002
     2237.85290      0.30941377E-002
     2238.03290      0.29970565E-002
     2238.21290      0.29024832E-002
     2238.39290      0.28103770E-002
     2238.57290      0.27206973E-002
     2238.75290      0.26334031E-002
     2238.93290      0.25484536E-002
     2239.11290      0.24658082E-002
     2239.29290      0.23854261E-002
     2239.47290      0.23072667E-002
     2239.65290      0.22312897E-002
     2239.83290      0.21574548E-002
     2240.01290      0.20857220E-002
     2240.19290      0.20160515E-002
     2240.37290      0.19484039E-002
     2240.55290      0.18827400E-002
     2240.73290      0.18190209E-002
     2240.91290      0.17572081E-002
     2241.09290      0.16972635E-002
     2241.27290      0.16391495E-002
     2241.45290      0.15828288E-002
     2241.63290      0.15282646E-002
     2241.81290      0.14754205E-002
     2241.99290      0.14242608E-002
     2242.17290      0.13747502E-002
     2242.35290      0.13268539E-002
     2242.53290      0.12805377E-002
     2242.71290      0.12357681E-002
     2242.89290      0.11925120E-002
     2243.07290      0.11507371E-002
     2243.25290      0.11104115E-002
     2243.43290      0.10715042E-002
     2243.61290      0.10339848E-002
     2243.79290      0.99782332E-003
     2243.97290      0.96299083E-003
     2244.15290      0.92945888E-003
     2244.33290      0.89719981E-003
     2244.51290      0.86618665E-003
     2244.69290      0.83639319E-003
     2244.87290      0.80779395E-003
     2245.05290      0.78036421E-003
     2245.23290      0.75408001E-003
     2245.41290      0.72891819E-003
     2245.59290      0.70485633E-003
     2245.77290      0.68187284E-003
     2245.95290      0.65994690E-003
     2246.13290      0.63905852E-003
     2246.31290      0.61918851E-003
     2246.49290      0.60031851E-003
     2246.67290      0.58243096E-003
     2246.85290      0.56550918E-003
     2247.03290      0.54953729E-003
     2247.21290      0.53450028E-003
     2247.39290      0.52038397E-003
     2247.57290      0.50717506E-003
     2247.75290      0.49486109E-003
     2247.93290      0.48343048E-003
     2248.11290      0.47287253E-003
     2248.29290      0.46317739E-003
     2248.47290      0.45433612E-003
     2248.65290      0.44634065E-003
     2248.83290      0.43918380E-003
     2249.01290      0.43285930E-003
     2249.19290      0.42736177E-003
     2249.37290      0.42268674E-003
     2249.55290      0.41883062E-003
     2249.73290      0.41579078E-003
     2249.91290      0.41356547E-003
     2250.09290      0.41215388E-003
     2250.27290      0.41155611E-003
     2250.45290      0.41177320E-003
     2250.63290      0.41280712E-003
     2250.81290      0.41466079E-003
     2250.99290      0.41733804E-003
     2251.17290      0.42084369E-003
     2251.35290      0.42518346E-003
     2251.53290      0.43036406E-003
     2251.71290      0.43639314E-003
     2251.89290      0.44327932E-003
     2252.07290      0.45103219E-003
     2252.25290      0.45966228E-003
     2252.43290      0.46918113E-003
     2252.61290      0.47960124E-003
     2252.79290      0.49093608E-003
     2252.97290      0.50320012E-003
     2253.15290      0.51640881E-003
     2253.33290      0.53057858E-003
     2253.51290      0.54572688E-003
     2253.69290      0.56187213E-003
     2253.87290      0.57903376E-003
     2254.05290      0.59723219E-003
     2254.23290      0.61648888E-003
     2254.41290      0.63682624E-003
     2254.59290      0.65826774E-003
     2254.77290      0.68083783E-003
     2254.95290      0.70456199E-003
     2255.13290      0.72946668E-003
     2255.31290      0.75557942E-003
     2255.49290      0.78292869E-003
     2255.67290      0.81154403E-003
     2255.85290      0.84145597E-003
     2256.03290      0.87269605E-003
     2256.21290      0.90529683E-003
     2256.39290      0.93929186E-003
     2256.57290      0.97471572E-003
     2256.75290      0.10116040E-002
     2256.93290      0.10499932E-002
     2257.11290      0.10899209E-002
     2257.29290      0.11314257E-002
     2257.47290      0.11745471E-002
     2257.65290      0.12193256E-002
     2257.83290      0.12658027E-002
     2258.01290      0.13140209E-002
     2258.19290      0.13640234E-002
     2258.37290      0.14158547E-002
     2258.55290      0.14695601E-002
     2258.73290      0.15251856E-002
     2258.91290      0.15827784E-002
     2259.09290      0.16423865E-002
     2259.27290      0.17040588E-002
     2259.45290      0.17678448E-002
     2259.63290      0.18337954E-002
     2259.81290      0.19019617E-002
     2259.99290      0.19723961E-002
     2260.17290      0.20451514E-002
     2260.35290      0.21202816E-002
     2260.53290      0.21978410E-002
     2260.71290      0.22778849E-002
     2260.89290      0.23604691E-002
     2261.07290      0.24456503E-002
     2261.25290      0.25334857E-002
     2261.43290      0.26240330E-002
     2261.61290      0.27173506E-002
     2261.79290      0.28134976E-002
     2261.97290      0.29125332E-002
     2262.15290      0.30145175E-002
     2262.33290      0.31195107E-002
     2262.51290      0.32275735E-002
     2262.69290      0.33387672E-002
     2262.87290      0.34531530E-002
     2263.05290      0.35707927E-002
     2263.23290      0.36917481E-002
     2263.41290      0.38160813E-002
     2263.59290      0.39438545E-002
     2263.77290      0.40751299E-002
     2263.95290      0.42099700E-002
     2264.13290      0.43484369E-002
     2264.31290      0.44905928E-002
     2264.49290      0.46364998E-002
     2264.67290      0.47862198E-002
     2264.85290      0.49398144E-002
     2265.03290      0.50973448E-002
     2265.21290      0.52588719E-002
     2265.39290      0.54244563E-002
     2265.57290      0.55941579E-002
     2265.75290      0.57680360E-002
     2265.93290      0.59461495E-002
     2266.11290      0.61285563E-002
     2266.29290      0.63153136E-002
     2266.47290      0.65064779E-002
     2266.65290      0.67021046E-002
     2266.83290      0.69022481E-002
     2267.01290      0.71069618E-002
     2267.19290      0.73162980E-002
     2267.37290      0.75303075E-002
     2267.55290      0.77490400E-002
     2267.73290      0.79725438E-002
     2267.91290      0.82008657E-002
     2268.09290      0.84340509E-002
     2268.27290      0.86721429E-002
     2268.45290      0.89151835E-002
     2268.63290      0.91632130E-002
     2268.81290      0.94162693E-002
     2268.99290      0.96743886E-002
     2269.17290      0.99376051E-002
     2269.35290      0.10205951E-001
     2269.53290      0.10479455E-001
     2269.71290      0.10758146E-001
     2269.89290      0.11042048E-001
     2270.07290      0.11331184E-001
     2270.25290      0.11625573E-001
     2270.43290      0.11925234E-001
     2270.61290      0.12230180E-001
     2270.79290      0.12540423E-001
     2270.97290      0.12855973E-001
     2271.15290      0.13176835E-001
     2271.33290      0.13503011E-001
     2271.51290      0.13834502E-001
     2271.69290      0.14171303E-001
     2271.87290      0.14513409E-001
     2272.05290      0.14860808E-001
     2272.23290      0.15213487E-001
     2272.41290      0.15571429E-001
     2272.59290      0.15934612E-001
     2272.77290      0.16303013E-001
     2272.95290      0.16676604E-001
     2273.13290      0.17055351E-001
     2273.31290      0.17439219E-001
     2273.49290      0.17828170E-001
     2273.67290      0.18222158E-001
     2273.85290      0.18621136E-001
     2274.03290      0.19025052E-001
     2274.21290      0.19433851E-001
     2274.39290      0.19847472E-001
     2274.57290      0.20265851E-001
     2274.75290      0.20688919E-001
     2274.93290      0.21116604E-001
     2275.11290      0.21548829E-001
     2275.29290      0.21985512E-001
     2275.47290      0.22426567E-001
     2275.65290      0.22871905E-001
     2275.83290      0.23321430E-001
     2276.01290      0.23775044E-001
     2276.19290      0.24232644E-001
     2276.37290      0.24694121E-001
     2276.55290      0.25159364E-001
     2276.73290      0.25628255E-001
     2276.91290      0.26100675E-001
     2277.09290      0.26576498E-001
     2277.27290      0.27055593E-001
     2277.45290      0.27537828E-001
     2277.63290      0.28023063E-001
     2277.81290      0.28511157E-001
     2277.99290      0.29001961E-001
     2278.17290      0.29495327E-001
     2278.35290      0.29991098E-001
     2278.53290      0.30489115E-001
     2278.71290      0.30989215E-001
     2278.89290      0.31491231E-001
     2279.07290      0.31994992E-001
     2279.25290      0.32500323E-001
     2279.43290      0.33007046E-001
     2279.61290      0.33514978E-001
     2279.79290      0.34023934E-001
     2279.97290      0.34533724E-001
     2280.15290      0.35044156E-001
     2280.33290      0.35555035E-001
     2280.51290      0.36066160E-001
     2280.69290      0.36577331E-001
     2280.87290      0.37088343E-001
     2281.05290      0.37598987E-001
     2281.23290      0.38109053E-001
     2281.41290      0.38618329E-001
     2281.59290      0.39126600E-001
     2281.77290      0.39633647E-001
     2281.95290      0.40139252E-001
     2282.13290      0.40643192E-001
     2282.31290      0.41145245E-001
     2282.49290      0.41645185E-001
     2282.67290      0.42142786E-001
     2282.85290      0.42637820E-001
     2283.03290      0.43130058E-001
     2283.21290      0.43619271E-001
     2283.39290      0.44105228E-001
     2283.57290      0.44587696E-001
     2283.75290      0.45066445E-001
     2283.93290      0.45541242E-001
     2284.11290      0.46011856E-001
     2284.29290      0.46478053E-001
     2284.47290      0.46939603E-001
     2284.65290      0.47396274E-001
     2284.83290      0.47847834E-001
     2285.01290      0.48294056E-001
     2285.19290      0.48734709E-001
     2285.37290      0.49169566E-001
     2285.55290      0.49598401E-001
     2285.73290      0.50020990E-001
     2285.91290      0.50437110E-001
     2286.09290      0.50846541E-001
     2286.27290      0.51249063E-001
     2286.45290      0.51644461E-001
     2286.63290      0.52032521E-001
     2286.81290      0.52413034E-001
     2286.99290      0.52785790E-001
     2287.17290      0.53150587E-001
     2287.35290      0.53507221E-001
     2287.53290      0.53855497E-001
     2287.71290      0.54195220E-001
     2287.89290      0.54526200E-001
     2288.07290      0.54848251E-001
     2288.25290      0.55161191E-001
     2288.43290      0.55464844E-001
     2288.61290      0.55759036E-001
     2288.79290      0.56043599E-001
     2288.97290      0.56318371E-001
     2289.15290      0.56583194E-001
     2289.33290      0.56837914E-001
     2289.51290      0.57082385E-001
     2289.69290      0.57316464E-001
     2289.87290      0.57540015E-001
     2290.05290      0.57752909E-001
     2290.23290      0.57955019E-001
     2290.41290      0.58146228E-001
     2290.59290      0.58326423E-001
     2290.77290      0.58495499E-001
     2290.95290      0.58653354E-001
     2291.13290      0.58799896E-001
     2291.31290      0.58935038E-001
     2291.49290      0.59058700E-001
     2291.67290      0.59170808E-001
     2291.85290      0.59271296E-001
     2292.03290      0.59360103E-001
     2292.21290      0.59437177E-001
     2292.39290      0.59502472E-001
     2292.57290      0.59555948E-001
     2292.75290      0.59597574E-001
     2292.93290      0.59627325E-001
     2293.11290      0.59645182E-001
     2293.29290      0.59651136E-001
     2293.47290      0.59645182E-001
     2293.65290      0.59627325E-001
     2293.83290      0.59597574E-001
     2294.01290      0.59555948E-001
     2294.19290      0.59502472E-001
     2294.37290      0.59437177E-001
     2294.55290      0.59360103E-001
     2294.73290      0.59271296E-001
     2294.91290      0.59170808E-001
     2295.09290      0.59058700E-001
     2295.27290      0.58935038E-001
     2295.45290      0.58799896E-001
     2295.63290      0.58653354E-001
     2295.81290      0.58495498E-001
     2295.99290      0.58326423E-001
     2296.17290      0.58146228E-001
     2296.35290      0.57955019E-001
     2296.53290      0.57752909E-001
     2296.71290      0.57540015E-001
     2296.89290      0.57316464E-001
     2297.07290      0.57082385E-001
     2297.25290      0.56837914E-001
     2297.43290      0.56583194E-001
     2297.61290      0.56318371E-001
     2297.79290      0.56043599E-001
     2297.97290      0.55759036E-001
     2298.15290      0.55464844E-001
     2298.33290      0.55161191E-001
     2298.51290      0.54848251E-001
     2298.69290      0.54526200E-001
     2298.87290      0.54195220E-001
     2299.05290      0.53855497E-001
     2299.23290      0.53507221E-001
     2299.41290      0.53150586E-001
     2299.59290      0.52785790E-001
     2299.77290      0.52413033E-001
     2299.95290      0.52032521E-001
     2300.13290      0.51644460E-001
     2300.31290      0.51249062E-001
     2300.49290      0.50846540E-001
     2300.67290      0.50437110E-001
     2300.85290      0.50020990E-001
     2301.03290      0.49598401E-001
     2301.21290      0.49169566E-001
     2301.39290      0.48734708E-001
     2301.57290      0.48294055E-001
     2301.75290      0.47847834E-001
     2301.93290      0.47396273E-001
     2302.11290      0.46939602E-001
     2302.29290      0.46478052E-001
     2302.47290      0.46011855E-001
     2302.65290      0.45541241E-001
     2302.83290      0.45066444E-001
     2303.01290      0.44587695E-001
     2303.19290      0.44105226E-001
     2303.37290      0.43619269E-001
     2303.55290      0.43130057E-001
     2303.73290      0.42637818E-001
     2303.91290      0.42142784E-001
     2304.09290      0.41645182E-001
     2304.27290      0.41145242E-001
     2304.45290      0.40643189E-001
     2304.63290      0.40139249E-001
     2304.81290      0.39633644E-001
     2304.99290      0.39126596E-001
     2305.17290      0.38618325E-001
     2305.35290      0.38109049E-001
     2305.53290      0.37598982E-001
     2305.71290      0.37088338E-001
     2305.89290      0.36577326E-001
     2306.07290      0.36066155E-001
     2306.25290      0.35555028E-001
     2306.43290      0.35044149E-001
     2306.61290      0.34533717E-001
     2306.79290      0.34023926E-001
     2306.97290      0.33514969E-001
     2307.15290      0.33007036E-001
     2307.33290      0.32500313E-001
     2307.51290      0.31994981E-001
     2307.69290      0.31491219E-001
     2307.87290      0.30989202E-001
     2308.05290      0.30489101E-001
     2308.23290      0.29991083E-001
     2308.41290      0.29495311E-001
     2308.59290      0.29001944E-001
     2308.77290      0.28511138E-001
     2308.95290      0.28023043E-001
     2309.13290      0.27537806E-001
     2309.31290      0.27055569E-001
     2309.49290      0.26576472E-001
     2309.67290      0.26100648E-001
     2309.85290      0.25628226E-001
     2310.03290      0.25159332E-001
     2310.21290      0.24694087E-001
     2310.39290      0.24232607E-001
     2310.57290      0.23775004E-001
     2310.75290      0.23321387E-001
     2310.93290      0.22871859E-001
     2311.11290      0.22426517E-001
     2311.29290      0.21985458E-001
     2311.47290      0.21548771E-001
     2311.65290      0.21116542E-001
     2311.83290      0.20688852E-001
     2312.01290      0.20265779E-001
     2312.19290      0.19847394E-001
     2312.37290      0.19433767E-001
     2312.55290      0.19024962E-001
     2312.73290      0.18621039E-001
     2312.91290      0.18222054E-001
     2313.09290      0.17828059E-001
     2313.27290      0.17439100E-001
     2313.45290      0.17055223E-001
     2313.63290      0.16676466E-001
     2313.81290      0.16302866E-001
     2313.99290      0.15934454E-001
     2314.17290      0.15571259E-001
     2314.35290      0.15213305E-001
     2314.53290      0.14860613E-001
     2314.71290      0.14513200E-001
     2314.89290      0.14171079E-001
     2315.07290      0.13834261E-001
     2315.25290      0.13502753E-001
     2315.43290      0.13176558E-001
     2315.61290      0.12855677E-001
     2315.79290      0.12540107E-001
     2315.97290      0.12229841E-001
     2316.15290      0.11924871E-001
     2316.33290      0.11625184E-001
     2316.51290      0.11330768E-001
     2316.69290      0.11041603E-001
     2316.87290      0.10757670E-001
     2317.05290      0.10478946E-001
     2317.23290      0.10205406E-001
     2317.41290      0.99370230E-002
     2317.59290      0.96737664E-002
     2317.77290      0.94156044E-002
     2317.95290      0.91625026E-002
     2318.13290      0.89144247E-002
     2318.31290      0.86713325E-002
     2318.49290      0.84331856E-002
     2318.67290      0.81999420E-002
     2318.85290      0.79715579E-002
     2319.03290      0.77479879E-002
     2319.21290      0.75291850E-002
     2319.39290      0.73151006E-002
     2319.57290      0.71056848E-002
     2319.75290      0.69008865E-002
     2319.93290      0.67006530E-002
     2320.11290      0.65049308E-002
     2320.29290      0.63136649E-002
     2320.47290      0.61267998E-002
     2320.65290      0.59442785E-002
     2320.83290      0.57660434E-002
     2321.01290      0.55920362E-002
     2321.19290      0.54221976E-002
     2321.37290      0.52564679E-002
     2321.55290      0.50947865E-002
     2321.73290      0.49370926E-002
     2321.91290      0.47833246E-002
     2322.09290      0.46334208E-002
     2322.27290      0.44873189E-002
     2322.45290      0.43449564E-002
     2322.63290      0.42062707E-002
     2322.81290      0.40711989E-002
     2322.99290      0.39396780E-002
     2323.17290      0.38116448E-002
     2323.35290      0.36870365E-002
     2323.53290      0.35657899E-002
     2323.71290      0.34478421E-002
     2323.89290      0.33331303E-002
     2324.07290      0.32215918E-002
     2324.25290      0.31131643E-002
     2324.43290      0.30077855E-002
     2324.61290      0.29053938E-002
     2324.79290      0.28059274E-002
     2324.97290      0.27093254E-002
     2325.15290      0.26155271E-002
     2325.33290      0.25244720E-002
     2325.51290      0.24361006E-002
     2325.69290      0.23503534E-002
     2325.87290      0.22671718E-002
     2326.05290      0.21864975E-002
     2326.23290      0.21082730E-002
     2326.41290      0.20324413E-002
     2326.59290      0.19589461E-002
     2326.77290      0.18877317E-002
     2326.95290      0.18187430E-002
     2327.13290      0.17519258E-002
     2327.31290      0.16872265E-002
     2327.49290      0.16245923E-002
     2327.67290      0.15639709E-002
     2327.85290      0.15053111E-002
     2328.03290      0.14485623E-002
     2328.21290      0.13936745E-002
     2328.39290      0.13405989E-002
     2328.57290      0.12892872E-002
     2328.75290      0.12396920E-002
     2328.93290      0.11917666E-002
     2329.11290      0.11454653E-002
     2329.29290      0.11007430E-002
     2329.47290      0.10575557E-002
     2329.65290      0.10158601E-002
     2329.83290      0.97561355E-003
     2330.01290      0.93677449E-003
     2330.19290      0.89930207E-003
     2330.37290      0.86315628E-003
     2330.55290      0.82829794E-003
     2330.73290      0.79468868E-003
     2330.91290      0.76229098E-003
     2331.09290      0.73106810E-003
     2331.27290      0.70098414E-003
     2331.45290      0.67200399E-003
     2331.63290      0.64409335E-003
     2331.81290      0.61721871E-003
     2331.99290      0.59134735E-003
     2332.17290      0.56644732E-003
     2332.35290      0.54248746E-003
     2332.53290      0.51943737E-003
     2332.71290      0.49726738E-003
     2332.89290      0.47594861E-003
     2333.07290      0.45545288E-003
     2333.25290      0.43575276E-003
     2333.43290      0.41682153E-003
     2333.61290      0.39863318E-003
     2333.79290      0.38116240E-003
     2333.97290      0.36438455E-003
     2334.15290      0.34827570E-003
     2334.33290      0.33281254E-003
     2334.51290      0.31797246E-003
     2334.69290      0.30373345E-003
     2334.87290      0.29007416E-003
     2335.05290      0.27697385E-003
     2335.23290      0.26441239E-003
     2335.41290      0.25237024E-003
     2335.59290      0.24082844E-003
     2335.77290      0.22976862E-003
     2335.95290      0.21917296E-003
     2336.13290      0.20902417E-003
     2336.31290      0.19930554E-003
     2336.49290      0.19000084E-003
     2336.67290      0.18109438E-003
     2336.85290      0.17257097E-003
     2337.03290      0.16441590E-003
     2337.21290      0.15661494E-003
     2337.39290      0.14915432E-003
     2337.57290      0.14202076E-003
     2337.75290      0.13520137E-003
     2337.93290      0.12868374E-003
     2338.11290      0.12245586E-003
     2338.29290      0.11650612E-003
     2338.47290      0.11082334E-003
     2338.65290      0.10539671E-003
     2338.83290      0.10021579E-003
     2339.01290      0.95270522E-004
     2339.19290      0.90551208E-004
     2339.37290      0.86048491E-004
     2339.55290      0.81753352E-004
     2339.73290      0.77657103E-004
     2339.91290      0.73751372E-004
     2340.09290      0.70028097E-004
     2340.27290      0.66479517E-004
     2340.45290      0.63098158E-004
     2340.63290      0.59876832E-004
     2340.81290      0.56808621E-004
     2340.99290      0.53886874E-004
     2341.17290      0.51105193E-004
     2341.35290      0.48457430E-004
     2341.53290      0.45937677E-004
     2341.71290      0.43540256E-004
     2341.89290      0.41259716E-004
     2342.07290      0.39090821E-004
     2342.25290      0.37028546E-004
     2342.43290      0.35068067E-004
     2342.61290      0.33204756E-004
     2342.79290      0.31434175E-004
     2342.97290      0.29752067E-004
     2343.15290      0.28154351E-004
     2343.33290      0.26637116E-004
     2343.51290      0.25196614E-004
     2343.69290      0.23829256E-004
     2343.87290      0.22531602E-004
     2344.05290      0.21300361E-004
     2344.23290      0.20132382E-004
     2344.41290      0.19024650E-004
     2344.59290      0.17974279E-004
     2344.77290      0.16978510E-004
     2344.95290      0.16034706E-004
     2345.13290      0.15140343E-004
     2345.31290      0.14293011E-004
     2345.49290      0.13490407E-004
     2345.67290      0.12730331E-004
     2345.85290      0.12010680E-004
     2346.03290      0.11329451E-004
     2346.21290      0.10684726E-004
     2346.39290      0.10074679E-004
     2346.57290      0.94975670E-005
     2346.75290      0.89517267E-005
     2346.93290      0.84355725E-005
     2347.11290      0.79475930E-005
     2347.29290      0.74863473E-005
     2347.47290      0.70504629E-005
     2347.65290      0.66386320E-005
     2347.83290      0.62496092E-005
     2348.01290      0.58822088E-005
     2348.19290      0.55353018E-005
     2348.37290      0.52078142E-005
     2348.55290      0.48987239E-005
     2348.73290      0.46070587E-005
     2348.91290      0.43318941E-005
     2349.09290      0.40723512E-005
     2349.27290      0.38275945E-005
     2349.45290      0.35968300E-005
     2349.63290      0.33793036E-005
     2349.81290      0.31742989E-005
     2349.99290      0.29811356E-005
     2350.17290      0.27991678E-005
     2350.35290      0.26277827E-005
     2350.53290      0.24663986E-005
     2350.71290      0.23144638E-005
     2350.89290      0.21714549E-005
     2351.07290      0.20368758E-005
     2351.25290      0.19102560E-005
     2351.43290      0.17911498E-005
     2351.61290      0.16791347E-005
     2351.79290      0.15738107E-005
     2351.97290      0.14747986E-005
     2352.15290      0.13817398E-005
     2352.33290      0.12942946E-005
     2352.51290      0.12121414E-005
     2352.69290      0.11349762E-005
     2352.87290      0.10625112E-005
     2353.05290      0.99447430E-006
     2353.23290      0.93060832E-006
     2353.41290      0.87067004E-006
     2353.59290      0.81442965E-006
     2353.77290      0.76167000E-006
     2353.95290      0.71218600E-006
     2354.13290      0.66578394E-006
     2354.31290      0.62228095E-006
     2354.49290      0.58150439E-006
     2354.67290      0.54329135E-006
     2354.85290      0.50748813E-006
     2355.03290      0.47394974E-006
     2355.21290      0.44253945E-006
     2355.39290      0.41312835E-006
     2355.57290      0.38559493E-006
     2355.75290      0.35982466E-006
     2355.93290      0.33570967E-006
     2356.11290      0.31314831E-006
     2356.29290      0.29204488E-006
     2356.47290      0.27230927E-006
     2356.65290      0.25385665E-006
     2356.83290      0.23660722E-006
     2357.01290      0.22048585E-006
     2357.19290      0.20542191E-006
     2357.37290      0.19134896E-006
     2357.55290      0.17820454E-006
     2357.73290      0.16592992E-006
     2357.91290      0.15446994E-006
     2358.09290      0.14377273E-006
     2358.27290      0.13378961E-006
     2358.45290      0.12447483E-006
     2358.63290      0.11578546E-006
     2358.81290      0.10768118E-006
     2358.99290      0.10012416E-006
     2359.17290      0.93078901E-007
     2359.35290      0.86512115E-007
     2359.53290      0.80392570E-007
     2359.71290      0.74690988E-007
     2359.89290      0.69379920E-007
     2360.07290      0.64433643E-007
     2360.25290      0.59828056E-007
     2360.43290      0.55540577E-007
     2360.61290      0.51550062E-007
     2360.79290      0.47836710E-007
     2360.97290      0.44381984E-007
     2361.15290      0.41168537E-007
     2361.33290      0.38180134E-007
     2361.51290      0.35401590E-007
     2361.69290      0.32818702E-007
     2361.87290      0.30418187E-007
     2362.05290      0.28187630E-007
     2362.23290      0.26115425E-007
     2362.41290      0.24190728E-007
     2362.59290      0.22403407E-007
     2362.77290      0.20744001E-007
     2362.95290      0.19203672E-007
     2363.13290      0.17774170E-007
     2363.31290      0.16447795E-007
     2363.49290      0.15217361E-007
     2363.67290      0.14076163E-007
     2363.85290      0.13017949E-007
     2364.03290      0.12036886E-007
     2364.21290      0.11127536E-007
     2364.39290      0.10284832E-007
     2364.57290      0.95040490E-008
     2364.75290      0.87807871E-008
     2364.93290      0.81109465E-008
     2365.11290      0.74907090E-008
     2365.29290      0.69165197E-008
     2365.47290      0.63850693E-008
     2365.65290      0.58932778E-008
     2365.83290      0.54382794E-008
     2366.01290      0.50174080E-008
     2366.19290      0.46281842E-008
     2366.37290      0.42683020E-008
     2366.55290      0.39356182E-008
     2366.73290      0.36281404E-008
     2366.91290      0.33440172E-008
     2367.09290      0.30815288E-008
     2367.27290      0.28390776E-008
     2367.45290      0.26151800E-008
     2367.63290      0.24084588E-008
     2367.81290      0.22176355E-008
     2367.99290      0.20415236E-008
     2368.17290      0.18790224E-008
     2368.35290      0.17291107E-008
     2368.53290      0.15908417E-008
     2368.71290      0.14633372E-008
     2368.89290      0.13457834E-008
     2369.07290      0.12374260E-008
     2369.25290      0.11375660E-008
     2369.43290      0.10455560E-008
     2369.61290      0.96079615E-009
     2369.79290      0.88273131E-009
     2369.97290      0.81084737E-009
     2370.15290      0.74466852E-009
     2370.33290      0.68375447E-009
     2370.51290      0.62769789E-009
     2370.69290      0.57612201E-009
     2370.87290      0.52867839E-009
     2371.05290      0.48504492E-009
     2371.23290      0.44492383E-009
     2371.41290      0.40803994E-009
     2371.59290      0.37413900E-009
     2371.77290      0.34298616E-009
     2371.95290      0.31436451E-009
     2372.13290      0.28807378E-009
     2372.31290      0.26392909E-009
     2372.49290      0.24175980E-009
     2372.67290      0.22140846E-009
     2372.85290      0.20272983E-009
     2373.03290      0.18558992E-009
     2373.21290      0.16986521E-009
     2373.39290      0.15544178E-009
     2373.57290      0.14221468E-009
     2373.75290      0.13008714E-009
     2373.93290      0.11897004E-009
     2374.11290      0.10878128E-009
     2374.29290      0.99445250E-010
     2374.47290      0.90892324E-010
     2374.65290      0.83058422E-010
     2374.83290      0.75884565E-010
     2375.01290      0.69316483E-010
     2375.19290      0.63304254E-010
     2375.37290      0.57801962E-010
     2375.55290      0.52767384E-010
     2375.73290      0.48161705E-010
     2375.91290      0.43949247E-010
     2376.09290      0.40097227E-010
     2376.27290      0.36575522E-010
     2376.45290      0.33356466E-010
     2376.63290      0.30414651E-010
     2376.81290      0.27726749E-010
     2376.99290      0.25271345E-010
     2377.17290      0.23028788E-010
     2377.35290      0.20981044E-010
     2377.53290      0.19111572E-010
     2377.71290      0.17405201E-010
     2377.89290      0.15848018E-010
     2378.07290      0.14427271E-010
     2378.25290      0.13131270E-010
     2378.43290      0.11949303E-010
     2378.61290      0.10871556E-010
     2378.79290      0.98890406E-011
     2378.97290      0.89935242E-011
     2379.15290      0.81774700E-011
     2379.33290      0.74339787E-011
     2379.51290      0.67567363E-011
     2379.69290      0.61399655E-011
     2379.87290      0.55783813E-011
     2380.05290      0.50671501E-011
     2380.23290      0.46018519E-011
     2380.41290      0.41784462E-011
     2380.59290      0.37932397E-011
     2380.77290      0.34428577E-011
     2380.95290      0.31242168E-011
     2381.13290      0.28345006E-011
     2381.31290      0.25711371E-011
     2381.49290      0.23317782E-011
     2381.67290      0.21142802E-011
     2381.85290      0.19166867E-011
     2382.03290      0.17372129E-011
     2382.21290      0.15742302E-011
     2382.39290      0.14262536E-011
     2382.57290      0.12919288E-011
     2382.75290      0.11700211E-011
     2382.93290      0.10594052E-011
     2383.11290      0.95905573E-012
     2383.29290      0.86803827E-012
