      488.69780      0.12418264E-002
      488.87780      0.12201912E-002
      489.05780      0.11987015E-002
      489.23780      0.11773629E-002
      489.41780      0.11561805E-002
      489.59780      0.11351595E-002
      489.77780      0.11143048E-002
      489.95780      0.10936212E-002
      490.13780      0.10731132E-002
      490.31780      0.10527853E-002
      490.49780      0.10326417E-002
      490.67780      0.10126865E-002
      490.85780      0.99292355E-003
      491.03780      0.97335663E-003
      491.21780      0.95398927E-003
      491.39780      0.93482487E-003
      491.57780      0.91586660E-003
      491.75780      0.89711752E-003
      491.93780      0.87858048E-003
      492.11780      0.86025816E-003
      492.29780      0.84215308E-003
      492.47780      0.82426759E-003
      492.65780      0.80660387E-003
      492.83780      0.78916392E-003
      493.01780      0.77194959E-003
      493.19780      0.75496256E-003
      493.37780      0.73820436E-003
      493.55780      0.72167635E-003
      493.73780      0.70537971E-003
      493.91780      0.68931552E-003
      494.09780      0.67348464E-003
      494.27780      0.65788784E-003
      494.45780      0.64252570E-003
      494.63780      0.62739867E-003
      494.81780      0.61250706E-003
      494.99780      0.59785103E-003
      495.17780      0.58343062E-003
      495.35780      0.56924572E-003
      495.53780      0.55529609E-003
      495.71780      0.54158138E-003
      495.89780      0.52810108E-003
      496.07780      0.51485460E-003
      496.25780      0.50184121E-003
      496.43780      0.48906005E-003
      496.61780      0.47651019E-003
      496.79780      0.46419055E-003
      496.97780      0.45209996E-003
      497.15780      0.44023717E-003
      497.33780      0.42860081E-003
      497.51780      0.41718941E-003
      497.69780      0.40600142E-003
      497.87780      0.39503521E-003
      498.05780      0.38428905E-003
      498.23780      0.37376114E-003
      498.41780      0.36344960E-003
      498.59780      0.35335248E-003
      498.77780      0.34346776E-003
      498.95780      0.33379334E-003
      499.13780      0.32432708E-003
      499.31780      0.31506675E-003
      499.49780      0.30601010E-003
      499.67780      0.29715479E-003
      499.85780      0.28849847E-003
      500.03780      0.28003870E-003
      500.21780      0.27177302E-003
      500.39780      0.26369894E-003
      500.57780      0.25581391E-003
      500.75780      0.24811536E-003
      500.93780      0.24060068E-003
      501.11780      0.23326723E-003
      501.29780      0.22611237E-003
      501.47780      0.21913339E-003
      501.65780      0.21232761E-003
      501.83780      0.20569230E-003
      502.01780      0.19922472E-003
      502.19780      0.19292214E-003
      502.37780      0.18678178E-003
      502.55780      0.18080090E-003
      502.73780      0.17497671E-003
      502.91780      0.16930645E-003
      503.09780      0.16378735E-003
      503.27780      0.15841664E-003
      503.45780      0.15319154E-003
      503.63780      0.14810930E-003
      503.81780      0.14316718E-003
      503.99780      0.13836241E-003
      504.17780      0.13369228E-003
      504.35780      0.12915406E-003
      504.53780      0.12474505E-003
      504.71780      0.12046256E-003
      504.89780      0.11630393E-003
      505.07780      0.11226651E-003
      505.25780      0.10834766E-003
      505.43780      0.10454477E-003
      505.61780      0.10085528E-003
      505.79780      0.97276608E-004
      505.97780      0.93806232E-004
      506.15780      0.90441643E-004
      506.33780      0.87180362E-004
      506.51780      0.84019940E-004
      506.69780      0.80957954E-004
      506.87780      0.77992017E-004
      507.05780      0.75119767E-004
      507.23780      0.72338879E-004
      507.41780      0.69647056E-004
      507.59780      0.67042038E-004
      507.77780      0.64521596E-004
      507.95780      0.62083535E-004
      508.13780      0.59725696E-004
      508.31780      0.57445953E-004
      508.49780      0.55242218E-004
      508.67780      0.53112435E-004
      508.85780      0.51054586E-004
      509.03780      0.49066689E-004
      509.21780      0.47146796E-004
      509.39780      0.45292998E-004
      509.57780      0.43503419E-004
      509.75780      0.41776222E-004
      509.93780      0.40109605E-004
      510.11780      0.38501804E-004
      510.29780      0.36951087E-004
      510.47780      0.35455764E-004
      510.65780      0.34014175E-004
      510.83780      0.32624700E-004
      511.01780      0.31285753E-004
      511.19780      0.29995783E-004
      511.37780      0.28753275E-004
      511.55780      0.27556749E-004
      511.73780      0.26404759E-004
      511.91780      0.25295893E-004
      512.09780      0.24228773E-004
      512.27780      0.23202056E-004
      512.45780      0.22214430E-004
      512.63780      0.21264618E-004
      512.81780      0.20351374E-004
      512.99780      0.19473485E-004
      513.17780      0.18629769E-004
      513.35780      0.17819075E-004
      513.53780      0.17040283E-004
      513.71780      0.16292303E-004
      513.89780      0.15574076E-004
      514.07780      0.14884571E-004
      514.25780      0.14222786E-004
      514.43780      0.13587747E-004
      514.61780      0.12978510E-004
      514.79780      0.12394155E-004
      514.97780      0.11833792E-004
      515.15780      0.11296555E-004
      515.33780      0.10781605E-004
      515.51780      0.10288128E-004
      515.69780      0.98153351E-005
      515.87780      0.93624613E-005
      516.05780      0.89287656E-005
      516.23780      0.85135300E-005
      516.41780      0.81160596E-005
      516.59780      0.77356814E-005
      516.77780      0.73717445E-005
      516.95780      0.70236189E-005
      517.13780      0.66906955E-005
      517.31780      0.63723855E-005
      517.49780      0.60681199E-005
      517.67780      0.57773487E-005
      517.85780      0.54995409E-005
      518.03780      0.52341839E-005
      518.21780      0.49807828E-005
      518.39780      0.47388601E-005
      518.57780      0.45079553E-005
      518.75780      0.42876244E-005
      518.93780      0.40774394E-005
      519.11780      0.38769879E-005
      519.29780      0.36858728E-005
      519.47780      0.35037116E-005
      519.65780      0.33301363E-005
      519.83780      0.31647928E-005
      520.01780      0.30073406E-005
      520.19780      0.28574523E-005
      520.37780      0.27148134E-005
      520.55780      0.25791218E-005
      520.73780      0.24500873E-005
      520.91780      0.23274317E-005
      521.09780      0.22108880E-005
      521.27780      0.21002002E-005
      521.45780      0.19951232E-005
      521.63780      0.18954220E-005
      521.81780      0.18008720E-005
      521.99780      0.17112581E-005
      522.17780      0.16263750E-005
      522.35780      0.15460263E-005
      522.53780      0.14700247E-005
      522.71780      0.13981916E-005
      522.89780      0.13303567E-005
      523.07780      0.12663580E-005
      523.25780      0.12060412E-005
      523.43780      0.11492601E-005
      523.61780      0.10958755E-005
      523.79780      0.10457559E-005
      523.97780      0.99877647E-006
      524.15780      0.95481954E-006
      524.33780      0.91377398E-006
      524.51780      0.87553517E-006
      524.69780      0.84000481E-006
      524.87780      0.80709077E-006
      525.05780      0.77670692E-006
      525.23780      0.74877297E-006
      525.41780      0.72321437E-006
      525.59780      0.69996212E-006
      525.77780      0.67895270E-006
      525.95780      0.66012792E-006
      526.13780      0.64343482E-006
      526.31780      0.62882557E-006
      526.49780      0.61625738E-006
      526.67780      0.60569238E-006
      526.85780      0.59709761E-006
      527.03780      0.59044485E-006
      527.21780      0.58571065E-006
      527.39780      0.58287619E-006
      527.57780      0.58192729E-006
      527.75780      0.58285432E-006
      527.93780      0.58565220E-006
      528.11780      0.59032032E-006
      528.29780      0.59686256E-006
      528.47780      0.60528725E-006
      528.65780      0.61560715E-006
      528.83780      0.62783946E-006
      529.01780      0.64200580E-006
      529.19780      0.65813224E-006
      529.37780      0.67624929E-006
      529.55780      0.69639194E-006
      529.73780      0.71859964E-006
      529.91780      0.74291640E-006
      530.09780      0.76939075E-006
      530.27780      0.79807585E-006
      530.45780      0.82902946E-006
      530.63780      0.86231407E-006
      530.81780      0.89799692E-006
      530.99780      0.93615005E-006
      531.17780      0.97685038E-006
      531.35780      0.10201798E-005
      531.53780      0.10662253E-005
      531.71780      0.11150788E-005
      531.89780      0.11668376E-005
      532.07780      0.12216043E-005
      532.25780      0.12794869E-005
      532.43780      0.13405987E-005
      532.61780      0.14050589E-005
      532.79780      0.14729922E-005
      532.97780      0.15445293E-005
      533.15780      0.16198068E-005
      533.33780      0.16989673E-005
      533.51780      0.17821598E-005
      533.69780      0.18695394E-005
      533.87780      0.19612679E-005
      534.05780      0.20575136E-005
      534.23780      0.21584516E-005
      534.41780      0.22642639E-005
      534.59780      0.23751397E-005
      534.77780      0.24912752E-005
      534.95780      0.26128740E-005
      535.13780      0.27401475E-005
      535.31780      0.28733144E-005
      535.49780      0.30126015E-005
      535.67780      0.31582436E-005
      535.85780      0.33104836E-005
      536.03780      0.34695729E-005
      536.21780      0.36357713E-005
      536.39780      0.38093474E-005
      536.57780      0.39905785E-005
      536.75780      0.41797512E-005
      536.93780      0.43771612E-005
      537.11780      0.45831135E-005
      537.29780      0.47979228E-005
      537.47780      0.50219135E-005
      537.65780      0.52554201E-005
      537.83780      0.54987868E-005
      538.01780      0.57523686E-005
      538.19780      0.60165304E-005
      538.37780      0.62916481E-005
      538.55780      0.65781081E-005
      538.73780      0.68763081E-005
      538.91780      0.71866565E-005
      539.09780      0.75095733E-005
      539.27780      0.78454896E-005
      539.45780      0.81948483E-005
      539.63780      0.85581040E-005
      539.81780      0.89357230E-005
      539.99780      0.93281837E-005
      540.17780      0.97359767E-005
      540.35780      0.10159605E-004
      540.53780      0.10599583E-004
      540.71780      0.11056439E-004
      540.89780      0.11530712E-004
      541.07780      0.12022957E-004
      541.25780      0.12533738E-004
      541.43780      0.13063634E-004
      541.61780      0.13613236E-004
      541.79780      0.14183148E-004
      541.97780      0.14773989E-004
      542.15780      0.15386388E-004
      542.33780      0.16020988E-004
      542.51780      0.16678447E-004
      542.69780      0.17359435E-004
      542.87780      0.18064633E-004
      543.05780      0.18794738E-004
      543.23780      0.19550458E-004
      543.41780      0.20332516E-004
      543.59780      0.21141647E-004
      543.77780      0.21978597E-004
      543.95780      0.22844127E-004
      544.13780      0.23739010E-004
      544.31780      0.24664031E-004
      544.49780      0.25619988E-004
      544.67780      0.26607691E-004
      544.85780      0.27627961E-004
      545.03780      0.28681632E-004
      545.21780      0.29769549E-004
      545.39780      0.30892568E-004
      545.57780      0.32051557E-004
      545.75780      0.33247392E-004
      545.93780      0.34480964E-004
      546.11780      0.35753169E-004
      546.29780      0.37064916E-004
      546.47780      0.38417123E-004
      546.65780      0.39810715E-004
      546.83780      0.41246628E-004
      547.01780      0.42725804E-004
      547.19780      0.44249193E-004
      547.37780      0.45817753E-004
      547.55780      0.47432448E-004
      547.73780      0.49094248E-004
      547.91780      0.50804127E-004
      548.09780      0.52563066E-004
      548.27780      0.54372048E-004
      548.45780      0.56232063E-004
      548.63780      0.58144099E-004
      548.81780      0.60109150E-004
      548.99780      0.62128209E-004
      549.17780      0.64202271E-004
      549.35780      0.66332330E-004
      549.53780      0.68519380E-004
      549.71780      0.70764412E-004
      549.89780      0.73068416E-004
      550.07780      0.75432375E-004
      550.25780      0.77857271E-004
      550.43780      0.80344080E-004
      550.61780      0.82893770E-004
      550.79780      0.85507302E-004
      550.97780      0.88185630E-004
      551.15780      0.90929697E-004
      551.33780      0.93740437E-004
      551.51780      0.96618770E-004
      551.69780      0.99565606E-004
      551.87780      0.10258184E-003
      552.05780      0.10566835E-003
      552.23780      0.10882600E-003
      552.41780      0.11205564E-003
      552.59780      0.11535810E-003
      552.77780      0.11873418E-003
      552.95780      0.12218467E-003
      553.13780      0.12571033E-003
      553.31780      0.12931192E-003
      553.49780      0.13299013E-003
      553.67780      0.13674568E-003
      553.85780      0.14057921E-003
      554.03780      0.14449136E-003
      554.21780      0.14848274E-003
      554.39780      0.15255391E-003
      554.57780      0.15670543E-003
      554.75780      0.16093780E-003
      554.93780      0.16525148E-003
      555.11780      0.16964691E-003
      555.29780      0.17412450E-003
      555.47780      0.17868458E-003
      555.65780      0.18332749E-003
      555.83780      0.18805350E-003
      556.01780      0.19286284E-003
      556.19780      0.19775568E-003
      556.37780      0.20273219E-003
      556.55780      0.20779244E-003
      556.73780      0.21293648E-003
      556.91780      0.21816432E-003
      557.09780      0.22347589E-003
      557.27780      0.22887108E-003
      557.45780      0.23434973E-003
      557.63780      0.23991164E-003
      557.81780      0.24555653E-003
      557.99780      0.25128406E-003
      558.17780      0.25709386E-003
      558.35780      0.26298548E-003
      558.53780      0.26895842E-003
      558.71780      0.27501211E-003
      558.89780      0.28114593E-003
      559.07780      0.28735918E-003
      559.25780      0.29365112E-003
      559.43780      0.30002093E-003
      559.61780      0.30646773E-003
      559.79780      0.31299056E-003
      559.97780      0.31958842E-003
      560.15780      0.32626023E-003
      560.33780      0.33300484E-003
      560.51780      0.33982103E-003
      560.69780      0.34670753E-003
      560.87780      0.35366297E-003
      561.05780      0.36068593E-003
      561.23780      0.36777493E-003
      561.41780      0.37492841E-003
      561.59780      0.38214474E-003
      561.77780      0.38942221E-003
      561.95780      0.39675906E-003
      562.13780      0.40415345E-003
      562.31780      0.41160347E-003
      562.49780      0.41910716E-003
      562.67780      0.42666245E-003
      562.85780      0.43426725E-003
      563.03780      0.44191937E-003
      563.21780      0.44961655E-003
      563.39780      0.45735650E-003
      563.57780      0.46513682E-003
      563.75780      0.47295508E-003
      563.93780      0.48080875E-003
      564.11780      0.48869528E-003
      564.29780      0.49661201E-003
      564.47780      0.50455626E-003
      564.65780      0.51252528E-003
      564.83780      0.52051623E-003
      565.01780      0.52852626E-003
      565.19780      0.53655243E-003
      565.37780      0.54459176E-003
      565.55780      0.55264121E-003
      565.73780      0.56069770E-003
      565.91780      0.56875809E-003
      566.09780      0.57681919E-003
      566.27780      0.58487777E-003
      566.45780      0.59293056E-003
      566.63780      0.60097424E-003
      566.81780      0.60900546E-003
      566.99780      0.61702081E-003
      567.17780      0.62501688E-003
      567.35780      0.63299020E-003
      567.53780      0.64093727E-003
      567.71780      0.64885457E-003
      567.89780      0.65673856E-003
      568.07780      0.66458566E-003
      568.25780      0.67239228E-003
      568.43780      0.68015481E-003
      568.61780      0.68786963E-003
      568.79780      0.69553309E-003
      568.97780      0.70314155E-003
      569.15780      0.71069136E-003
      569.33780      0.71817884E-003
      569.51780      0.72560035E-003
      569.69780      0.73295222E-003
      569.87780      0.74023080E-003
      570.05780      0.74743243E-003
      570.23780      0.75455348E-003
      570.41780      0.76159033E-003
      570.59780      0.76853936E-003
      570.77780      0.77539700E-003
      570.95780      0.78215967E-003
      571.13780      0.78882384E-003
      571.31780      0.79538599E-003
      571.49780      0.80184265E-003
      571.67780      0.80819037E-003
      571.85780      0.81442574E-003
      572.03780      0.82054540E-003
      572.21780      0.82654602E-003
      572.39780      0.83242434E-003
      572.57780      0.83817713E-003
      572.75780      0.84380121E-003
      572.93780      0.84929347E-003
      573.11780      0.85465085E-003
      573.29780      0.85987035E-003
      573.47780      0.86494905E-003
      573.65780      0.86988408E-003
      573.83780      0.87467263E-003
      574.01780      0.87931200E-003
      574.19780      0.88379953E-003
      574.37780      0.88813264E-003
      574.55780      0.89230885E-003
      574.73780      0.89632576E-003
      574.91780      0.90018103E-003
      575.09780      0.90387242E-003
      575.27780      0.90739780E-003
      575.45780      0.91075509E-003
      575.63780      0.91394234E-003
      575.81780      0.91695768E-003
      575.99780      0.91979934E-003
      576.17780      0.92246563E-003
      576.35780      0.92495499E-003
      576.53780      0.92726594E-003
      576.71780      0.92939711E-003
      576.89780      0.93134724E-003
      577.07780      0.93311517E-003
      577.25780      0.93469985E-003
      577.43780      0.93610032E-003
      577.61780      0.93731577E-003
      577.79780      0.93834546E-003
      577.97780      0.93918877E-003
      578.15780      0.93984520E-003
      578.33780      0.94031436E-003
      578.51780      0.94059597E-003
      578.69780      0.94068986E-003
      578.87780      0.94059597E-003
      579.05780      0.94031436E-003
      579.23780      0.93984520E-003
      579.41780      0.93918877E-003
      579.59780      0.93834546E-003
      579.77780      0.93731577E-003
      579.95780      0.93610032E-003
      580.13780      0.93469985E-003
      580.31780      0.93311517E-003
      580.49780      0.93134724E-003
      580.67780      0.92939711E-003
      580.85780      0.92726594E-003
      581.03780      0.92495499E-003
      581.21780      0.92246563E-003
      581.39780      0.91979934E-003
      581.57780      0.91695768E-003
      581.75780      0.91394234E-003
      581.93780      0.91075509E-003
      582.11780      0.90739780E-003
      582.29780      0.90387242E-003
      582.47780      0.90018103E-003
      582.65780      0.89632576E-003
      582.83780      0.89230885E-003
      583.01780      0.88813264E-003
      583.19780      0.88379953E-003
      583.37780      0.87931200E-003
      583.55780      0.87467263E-003
      583.73780      0.86988408E-003
      583.91780      0.86494905E-003
      584.09780      0.85987035E-003
      584.27780      0.85465085E-003
      584.45780      0.84929347E-003
      584.63780      0.84380121E-003
      584.81780      0.83817713E-003
      584.99780      0.83242434E-003
      585.17780      0.82654602E-003
      585.35780      0.82054540E-003
      585.53780      0.81442574E-003
      585.71780      0.80819037E-003
      585.89780      0.80184265E-003
      586.07780      0.79538599E-003
      586.25780      0.78882384E-003
      586.43780      0.78215967E-003
      586.61780      0.77539700E-003
      586.79780      0.76853936E-003
      586.97780      0.76159033E-003
      587.15780      0.75455348E-003
      587.33780      0.74743243E-003
      587.51780      0.74023080E-003
      587.69780      0.73295222E-003
      587.87780      0.72560035E-003
      588.05780      0.71817884E-003
      588.23780      0.71069136E-003
      588.41780      0.70314155E-003
      588.59780      0.69553309E-003
      588.77780      0.68786963E-003
      588.95780      0.68015481E-003
      589.13780      0.67239228E-003
      589.31780      0.66458566E-003
      589.49780      0.65673856E-003
      589.67780      0.64885457E-003
      589.85780      0.64093727E-003
      590.03780      0.63299020E-003
      590.21780      0.62501688E-003
      590.39780      0.61702081E-003
      590.57780      0.60900546E-003
      590.75780      0.60097424E-003
      590.93780      0.59293056E-003
      591.11780      0.58487777E-003
      591.29780      0.57681919E-003
      591.47780      0.56875809E-003
      591.65780      0.56069770E-003
      591.83780      0.55264121E-003
      592.01780      0.54459176E-003
      592.19780      0.53655243E-003
      592.37780      0.52852626E-003
      592.55780      0.52051623E-003
      592.73780      0.51252528E-003
      592.91780      0.50455626E-003
      593.09780      0.49661201E-003
      593.27780      0.48869528E-003
      593.45780      0.48080875E-003
      593.63780      0.47295508E-003
      593.81780      0.46513682E-003
      593.99780      0.45735650E-003
      594.17780      0.44961655E-003
      594.35780      0.44191937E-003
      594.53780      0.43426725E-003
      594.71780      0.42666245E-003
      594.89780      0.41910716E-003
      595.07780      0.41160347E-003
      595.25780      0.40415345E-003
      595.43780      0.39675906E-003
      595.61780      0.38942221E-003
      595.79780      0.38214474E-003
      595.97780      0.37492841E-003
      596.15780      0.36777493E-003
      596.33780      0.36068593E-003
      596.51780      0.35366297E-003
      596.69780      0.34670753E-003
      596.87780      0.33982103E-003
      597.05780      0.33300484E-003
      597.23780      0.32626023E-003
      597.41780      0.31958842E-003
      597.59780      0.31299056E-003
      597.77780      0.30646773E-003
      597.95780      0.30002093E-003
      598.13780      0.29365112E-003
      598.31780      0.28735918E-003
      598.49780      0.28114593E-003
      598.67780      0.27501211E-003
      598.85780      0.26895842E-003
      599.03780      0.26298548E-003
      599.21780      0.25709386E-003
      599.39780      0.25128406E-003
      599.57780      0.24555652E-003
      599.75780      0.23991164E-003
      599.93780      0.23434973E-003
      600.11780      0.22887108E-003
      600.29780      0.22347588E-003
      600.47780      0.21816432E-003
      600.65780      0.21293648E-003
      600.83780      0.20779244E-003
      601.01780      0.20273219E-003
      601.19780      0.19775568E-003
      601.37780      0.19286283E-003
      601.55780      0.18805350E-003
      601.73780      0.18332749E-003
      601.91780      0.17868458E-003
      602.09780      0.17412449E-003
      602.27780      0.16964691E-003
      602.45780      0.16525148E-003
      602.63780      0.16093779E-003
      602.81780      0.15670543E-003
      602.99780      0.15255391E-003
      603.17780      0.14848273E-003
      603.35780      0.14449135E-003
      603.53780      0.14057920E-003
      603.71780      0.13674567E-003
      603.89780      0.13299013E-003
      604.07780      0.12931191E-003
      604.25780      0.12571033E-003
      604.43780      0.12218466E-003
      604.61780      0.11873417E-003
      604.79780      0.11535809E-003
      604.97780      0.11205563E-003
      605.15780      0.10882599E-003
      605.33780      0.10566834E-003
      605.51780      0.10258183E-003
      605.69780      0.99565591E-004
      605.87780      0.96618754E-004
      606.05780      0.93740419E-004
      606.23780      0.90929678E-004
      606.41780      0.88185610E-004
      606.59780      0.85507280E-004
      606.77780      0.82893745E-004
      606.95780      0.80344054E-004
      607.13780      0.77857243E-004
      607.31780      0.75432344E-004
      607.49780      0.73068381E-004
      607.67780      0.70764375E-004
      607.85780      0.68519340E-004
      608.03780      0.66332286E-004
      608.21780      0.64202223E-004
      608.39780      0.62128157E-004
      608.57780      0.60109093E-004
      608.75780      0.58144037E-004
      608.93780      0.56231996E-004
      609.11780      0.54371976E-004
      609.29780      0.52562987E-004
      609.47780      0.50804041E-004
      609.65780      0.49094154E-004
      609.83780      0.47432347E-004
      610.01780      0.45817643E-004
      610.19780      0.44249074E-004
      610.37780      0.42725674E-004
      610.55780      0.41246487E-004
      610.73780      0.39810562E-004
      610.91780      0.38416957E-004
      611.09780      0.37064736E-004
      611.27780      0.35752974E-004
      611.45780      0.34480752E-004
      611.63780      0.33247163E-004
      611.81780      0.32051308E-004
      611.99780      0.30892299E-004
      612.17780      0.29769258E-004
      612.35780      0.28681317E-004
      612.53780      0.27627619E-004
      612.71780      0.26607321E-004
      612.89780      0.25619588E-004
      613.07780      0.24663598E-004
      613.25780      0.23738541E-004
      613.43780      0.22843619E-004
      613.61780      0.21978048E-004
      613.79780      0.21141053E-004
      613.97780      0.20331875E-004
      614.15780      0.19549765E-004
      614.33780      0.18793988E-004
      614.51780      0.18063823E-004
      614.69780      0.17358560E-004
      614.87780      0.16677502E-004
      615.05780      0.16019968E-004
      615.23780      0.15385286E-004
      615.41780      0.14772800E-004
      615.59780      0.14181865E-004
      615.77780      0.13611851E-004
      615.95780      0.13062140E-004
      616.13780      0.12532127E-004
      616.31780      0.12021219E-004
      616.49780      0.11528839E-004
      616.67780      0.11054419E-004
      616.85780      0.10597407E-004
      617.03780      0.10157260E-004
      617.21780      0.97334506E-005
      617.39780      0.93254629E-005
      617.57780      0.89327931E-005
      617.75780      0.85549495E-005
      617.93780      0.81914528E-005
      618.11780      0.78418353E-005
      618.29780      0.75056413E-005
      618.47780      0.71824266E-005
      618.65780      0.68717585E-005
      618.83780      0.65732158E-005
      619.01780      0.62863881E-005
      619.19780      0.60108764E-005
      619.37780      0.57462922E-005
      619.55780      0.54922578E-005
      619.73780      0.52484061E-005
      619.91780      0.50143801E-005
      620.09780      0.47898330E-005
      620.27780      0.45744280E-005
      620.45780      0.43678380E-005
      620.63780      0.41697455E-005
      620.81780      0.39798425E-005
      620.99780      0.37978300E-005
      621.17780      0.36234183E-005
      621.35780      0.34563261E-005
      621.53780      0.32962813E-005
      621.71780      0.31430198E-005
      621.89780      0.29962860E-005
      622.07780      0.28558325E-005
      622.25780      0.27214195E-005
      622.43780      0.25928151E-005
      622.61780      0.24697951E-005
      622.79780      0.23521423E-005
      622.97780      0.22396470E-005
      623.15780      0.21321063E-005
      623.33780      0.20293242E-005
      623.51780      0.19311113E-005
      623.69780      0.18372849E-005
      623.87780      0.17476682E-005
      624.05780      0.16620910E-005
      624.23780      0.15803886E-005
      624.41780      0.15024025E-005
      624.59780      0.14279796E-005
      624.77780      0.13569724E-005
      624.95780      0.12892387E-005
      625.13780      0.12246414E-005
      625.31780      0.11630486E-005
      625.49780      0.11043331E-005
      625.67780      0.10483724E-005
      625.85780      0.99504891E-006
      626.03780      0.94424906E-006
      626.21780      0.89586382E-006
      626.39780      0.84978828E-006
      626.57780      0.80592157E-006
      626.75780      0.76416673E-006
      626.93780      0.72443058E-006
      627.11780      0.68662360E-006
      627.29780      0.65065981E-006
      627.47780      0.61645665E-006
      627.65780      0.58393486E-006
      627.83780      0.55301838E-006
      628.01780      0.52363424E-006
      628.19780      0.49571243E-006
      628.37780      0.46918583E-006
      628.55780      0.44399008E-006
      628.73780      0.42006350E-006
      628.91780      0.39734700E-006
      629.09780      0.37578395E-006
      629.27780      0.35532013E-006
      629.45780      0.33590364E-006
      629.63780      0.31748478E-006
      629.81780      0.30001600E-006
      629.99780      0.28345180E-006
      630.17780      0.26774868E-006
      630.35780      0.25286501E-006
      630.53780      0.23876104E-006
      630.71780      0.22539874E-006
      630.89780      0.21274179E-006
      631.07780      0.20075549E-006
      631.25780      0.18940671E-006
      631.43780      0.17866381E-006
      631.61780      0.16849660E-006
      631.79780      0.15887625E-006
      631.97780      0.14977527E-006
      632.15780      0.14116745E-006
      632.33780      0.13302777E-006
      632.51780      0.12533240E-006
      632.69780      0.11805862E-006
      632.87780      0.11118479E-006
      633.05780      0.10469028E-006
      633.23780      0.98555442E-007
      633.41780      0.92761589E-007
      633.59780      0.87290917E-007
      633.77780      0.82126484E-007
      633.95780      0.77252174E-007
      634.13780      0.72652656E-007
      634.31780      0.68313350E-007
      634.49780      0.64220395E-007
      634.67780      0.60360616E-007
      634.85780      0.56721494E-007
      635.03780      0.53291134E-007
      635.21780      0.50058239E-007
      635.39780      0.47012081E-007
      635.57780      0.44142475E-007
      635.75780      0.41439757E-007
      635.93780      0.38894753E-007
      636.11780      0.36498762E-007
      636.29780      0.34243533E-007
      636.47780      0.32121239E-007
      636.65780      0.30124463E-007
      636.83780      0.28246175E-007
      637.01780      0.26479714E-007
      637.19780      0.24818769E-007
      637.37780      0.23257363E-007
      637.55780      0.21789839E-007
      637.73780      0.20410840E-007
      637.91780      0.19115296E-007
      638.09780      0.17898411E-007
      638.27780      0.16755649E-007
      638.45780      0.15682717E-007
      638.63780      0.14675560E-007
      638.81780      0.13730342E-007
      638.99780      0.12843439E-007
      639.17780      0.12011427E-007
      639.35780      0.11231071E-007
      639.53780      0.10499317E-007
      639.71780      0.98132814E-008
      639.89780      0.91702409E-008
      640.07780      0.85676268E-008
      640.25780      0.80030151E-008
      640.43780      0.74741195E-008
      640.61780      0.69787838E-008
      640.79780      0.65149749E-008
      640.97780      0.60807768E-008
      641.15780      0.56743834E-008
      641.33780      0.52940933E-008
      641.51780      0.49383039E-008
      641.69780      0.46055059E-008
      641.87780      0.42942781E-008
      642.05780      0.40032831E-008
      642.23780      0.37312619E-008
      642.41780      0.34770303E-008
      642.59780      0.32394741E-008
      642.77780      0.30175457E-008
      642.95780      0.28102600E-008
      643.13780      0.26166911E-008
      643.31780      0.24359688E-008
      643.49780      0.22672754E-008
      643.67780      0.21098430E-008
      643.85780      0.19629503E-008
      644.03780      0.18259201E-008
      644.21780      0.16981167E-008
      644.39780      0.15789436E-008
      644.57780      0.14678409E-008
      644.75780      0.13642837E-008
      644.93780      0.12677793E-008
      645.11780      0.11778662E-008
      645.29780      0.10941114E-008
      645.47780      0.10161093E-008
      645.65780      0.94347986E-009
      645.83780      0.87586695E-009
      646.01780      0.81293710E-009
      646.19780      0.75437806E-009
      646.37780      0.69989753E-009
      646.55780      0.64922193E-009
      646.73780      0.60209525E-009
      646.91780      0.55827801E-009
      647.09780      0.51754623E-009
      647.27780      0.47969045E-009
      647.45780      0.44451488E-009
      647.63780      0.41183651E-009
      647.81780      0.38148431E-009
      647.99780      0.35329852E-009
      648.17780      0.32712992E-009
      648.35780      0.30283915E-009
      648.53780      0.28029611E-009
      648.71780      0.25937937E-009
      648.89780      0.23997560E-009
      649.07780      0.22197908E-009
      649.25780      0.20529119E-009
      649.43780      0.18981996E-009
      649.61780      0.17547965E-009
      649.79780      0.16219032E-009
      649.97780      0.14987749E-009
      650.15780      0.13847175E-009
      650.33780      0.12790846E-009
      650.51780      0.11812741E-009
      650.69780      0.10907252E-009
      650.87780      0.10069163E-009
      651.05780      0.92936146E-010
      651.23780      0.85760887E-010
      651.41780      0.79123806E-010
      651.59780      0.72985801E-010
      651.77780      0.67310512E-010
      651.95780      0.62064135E-010
      652.13780      0.57215254E-010
      652.31780      0.52734672E-010
      652.49780      0.48595267E-010
      652.67780      0.44771847E-010
      652.85780      0.41241014E-010
      653.03780      0.37981051E-010
      653.21780      0.34971794E-010
      653.39780      0.32194535E-010
      653.57780      0.29631914E-010
      653.75780      0.27267829E-010
      653.93780      0.25087345E-010
      654.11780      0.23076618E-010
      654.29780      0.21222812E-010
      654.47780      0.19514031E-010
      654.65780      0.17939253E-010
      654.83780      0.16488268E-010
      655.01780      0.15151618E-010
      655.19780      0.13920546E-010
      655.37780      0.12786947E-010
      655.55780      0.11743316E-010
      655.73780      0.10782710E-010
      655.91780      0.98987058E-011
      656.09780      0.90853615E-011
      656.27780      0.83371825E-011
      656.45780      0.76490889E-011
      656.63780      0.70163850E-011
      656.81780      0.64347313E-011
      656.99780      0.59001184E-011
      657.17780      0.54088426E-011
      657.35780      0.49574833E-011
      657.53780      0.45428823E-011
      657.71780      0.41621239E-011
      657.89780      0.38125174E-011
      658.07780      0.34915797E-011
      658.25780      0.31970203E-011
      658.43780      0.29267265E-011
      658.61780      0.26787499E-011
      658.79780      0.24512947E-011
      658.97780      0.22427051E-011
      659.15780      0.20514556E-011
      659.33780      0.18761406E-011
      659.51780      0.17154653E-011
      659.69780      0.15682373E-011
      659.87780      0.14333589E-011
      660.05780      0.13098194E-011
      660.23780      0.11966887E-011
      660.41780      0.10931110E-011
      660.59780      0.99829902E-012
      660.77780      0.91152865E-012
      660.95780      0.83213408E-012
      661.13780      0.75950318E-012
      661.31780      0.69307333E-012
      661.49780      0.63232752E-012
      661.67780      0.57679074E-012
      661.85780      0.52602669E-012
      662.03780      0.47963469E-012
      662.21780      0.43724686E-012
      662.39780      0.39852549E-012
      662.57780      0.36316068E-012
      662.75780      0.33086806E-012
      662.93780      0.30138675E-012
      663.11780      0.27447752E-012
      663.29780      0.24992098E-012
      663.47780      0.22751600E-012
      663.65780      0.20707825E-012
      663.83780      0.18843879E-012
      664.01780      0.17144288E-012
      664.19780      0.15594875E-012
      664.37780      0.14182659E-012
      664.55780      0.12895753E-012
      664.73780      0.11723278E-012
      664.91780      0.10655276E-012
      665.09780      0.96826376E-013
      665.27780      0.87970274E-013
      665.45780      0.79908230E-013
      665.63780      0.72570545E-013
      665.81780      0.65893498E-013
      665.99780      0.59818847E-013
      666.17780      0.54293373E-013
      666.35780      0.49268451E-013
      666.53780      0.44699668E-013
      666.71780      0.40546464E-013
      666.89780      0.36771808E-013
      667.07780      0.33341895E-013
      667.25780      0.30225875E-013
      667.43780      0.27395598E-013
      667.61780      0.24825385E-013
      667.79780      0.22491815E-013
      667.97780      0.20373532E-013
      668.15780      0.18451065E-013
      668.33780      0.16706669E-013
      668.51780      0.15124171E-013
      668.69780      0.13688839E-013
