      427.50060      0.49506375     
      427.68060      0.48860402     
      427.86060      0.48236141     
      428.04060      0.47633785     
      428.22060      0.47053525     
      428.40060      0.46495551     
      428.58060      0.45960052     
      428.76060      0.45447216     
      428.94060      0.44957230     
      429.12060      0.44490283     
      429.30060      0.44046560     
      429.48060      0.43626248     
      429.66060      0.43229535     
      429.84060      0.42856608     
      430.02060      0.42507656     
      430.20060      0.42182866     
      430.38060      0.41882430     
      430.56060      0.41606539     
      430.74060      0.41355384     
      430.92060      0.41129159     
      431.10060      0.40928060     
      431.28060      0.40752283     
      431.46060      0.40602028     
      431.64060      0.40477495     
      431.82060      0.40378885     
      432.00060      0.40306405     
      432.18060      0.40260261     
      432.36060      0.40240661     
      432.54060      0.40247816     
      432.72060      0.40281940     
      432.90060      0.40343248     
      433.08060      0.40431957     
      433.26060      0.40548287     
      433.44060      0.40692461     
      433.62060      0.40864701     
      433.80060      0.41065235     
      433.98060      0.41294290     
      434.16060      0.41552095     
      434.34060      0.41838883     
      434.52060      0.42154887     
      434.70060      0.42500341     
      434.88060      0.42875481     
      435.06060      0.43280545     
      435.24060      0.43715771     
      435.42060      0.44181398     
      435.60060      0.44677665     
      435.78060      0.45204813     
      435.96060      0.45763081     
      436.14060      0.46352710     
      436.32060      0.46973938     
      436.50060      0.47627006     
      436.68060      0.48312151     
      436.86060      0.49029608     
      437.04060      0.49779615     
      437.22060      0.50562402     
      437.40060      0.51378201     
      437.58060      0.52227240     
      437.76060      0.53109744     
      437.94060      0.54025934     
      438.12060      0.54976028     
      438.30060      0.55960238     
      438.48060      0.56978775     
      438.66060      0.58031841     
      438.84060      0.59119634     
      439.02060      0.60242346     
      439.20060      0.61400163     
      439.38060      0.62593263     
      439.56060      0.63821817     
      439.74060      0.65085988     
      439.92060      0.66385931     
      440.10060      0.67721792     
      440.28060      0.69093708     
      440.46060      0.70501804     
      440.64060      0.71946197     
      440.82060      0.73426992     
      441.00060      0.74944283     
      441.18060      0.76498151     
      441.36060      0.78088665     
      441.54060      0.79715882     
      441.72060      0.81379844     
      441.90060      0.83080579     
      442.08060      0.84818102     
      442.26060      0.86592412     
      442.44060      0.88403491     
      442.62060      0.90251306     
      442.80060      0.92135809     
      442.98060      0.94056932     
      443.16060      0.96014591     
      443.34060      0.98008683     
      443.52060       1.0003909     
      443.70060       1.0210566     
      443.88060       1.0420825     
      444.06060       1.0634668     
      444.24060       1.0852074     
      444.42060       1.1073021     
      444.60060       1.1297485     
      444.78060       1.1525439     
      444.96060       1.1756857     
      445.14060       1.1991705     
      445.32060       1.2229952     
      445.50060       1.2471562     
      445.68060       1.2716498     
      445.86060       1.2964718     
      446.04060       1.3216182     
      446.22060       1.3470844     
      446.40060       1.3728657     
      446.58060       1.3989572     
      446.76060       1.4253535     
      446.94060       1.4520493     
      447.12060       1.4790388     
      447.30060       1.5063161     
      447.48060       1.5338749     
      447.66060       1.5617088     
      447.84060       1.5898111     
      448.02060       1.6181748     
      448.20060       1.6467926     
      448.38060       1.6756571     
      448.56060       1.7047606     
      448.74060       1.7340951     
      448.92060       1.7636524     
      449.10060       1.7934239     
      449.28060       1.8234010     
      449.46060       1.8535748     
      449.64060       1.8839360     
      449.82060       1.9144752     
      450.00060       1.9451828     
      450.18060       1.9760488     
      450.36060       2.0070632     
      450.54060       2.0382156     
      450.72060       2.0694954     
      450.90060       2.1008919     
      451.08060       2.1323941     
      451.26060       2.1639909     
      451.44060       2.1956708     
      451.62060       2.2274223     
      451.80060       2.2592338     
      451.98060       2.2910932     
      452.16060       2.3229884     
      452.34060       2.3549073     
      452.52060       2.3868374     
      452.70060       2.4187661     
      452.88060       2.4506808     
      453.06060       2.4825687     
      453.24060       2.5144168     
      453.42060       2.5462120     
      453.60060       2.5779412     
      453.78060       2.6095912     
      453.96060       2.6411485     
      454.14060       2.6725998     
      454.32060       2.7039315     
      454.50060       2.7351301     
      454.68060       2.7661821     
      454.86060       2.7970738     
      455.04060       2.8277915     
      455.22060       2.8583215     
      455.40060       2.8886503     
      455.58060       2.9187640     
      455.76060       2.9486491     
      455.94060       2.9782920     
      456.12060       3.0076789     
      456.30060       3.0367965     
      456.48060       3.0656312     
      456.66060       3.0941696     
      456.84060       3.1223984     
      457.02060       3.1503044     
      457.20060       3.1778744     
      457.38060       3.2050954     
      457.56060       3.2319547     
      457.74060       3.2584394     
      457.92060       3.2845370     
      458.10060       3.3102350     
      458.28060       3.3355212     
      458.46060       3.3603835     
      458.64060       3.3848102     
      458.82060       3.4087894     
      459.00060       3.4323099     
      459.18060       3.4553602     
      459.36060       3.4779296     
      459.54060       3.5000072     
      459.72060       3.5215826     
      459.90060       3.5426455     
      460.08060       3.5631860     
      460.26060       3.5831946     
      460.44060       3.6026617     
      460.62060       3.6215783     
      460.80060       3.6399358     
      460.98060       3.6577256     
      461.16060       3.6749396     
      461.34060       3.6915702     
      461.52060       3.7076098     
      461.70060       3.7230514     
      461.88060       3.7378881     
      462.06060       3.7521138     
      462.24060       3.7657223     
      462.42060       3.7787080     
      462.60060       3.7910656     
      462.78060       3.8027902     
      462.96060       3.8138774     
      463.14060       3.8243230     
      463.32060       3.8341233     
      463.50060       3.8432750     
      463.68060       3.8517750     
      463.86060       3.8596210     
      464.04060       3.8668106     
      464.22060       3.8733423     
      464.40060       3.8792146     
      464.58060       3.8844266     
      464.76060       3.8889778     
      464.94060       3.8928680     
      465.12060       3.8960976     
      465.30060       3.8986671     
      465.48060       3.9005777     
      465.66060       3.9018307     
      465.84060       3.9024282     
      466.02060       3.9023722     
      466.20060       3.9016655     
      466.38060       3.9003110     
      466.56060       3.8983122     
      466.74060       3.8956728     
      466.92060       3.8923970     
      467.10060       3.8884893     
      467.28060       3.8839545     
      467.46060       3.8787979     
      467.64060       3.8730251     
      467.82060       3.8666418     
      468.00060       3.8596545     
      468.18060       3.8520697     
      468.36060       3.8438942     
      468.54060       3.8351353     
      468.72060       3.8258005     
      468.90060       3.8158975     
      469.08060       3.8054345     
      469.26060       3.7944199     
      469.44060       3.7828622     
      469.62060       3.7707704     
      469.80060       3.7581536     
      469.98060       3.7450212     
      470.16060       3.7313829     
      470.34060       3.7172483     
      470.52060       3.7026277     
      470.70060       3.6875313     
      470.88060       3.6719694     
      471.06060       3.6559526     
      471.24060       3.6394919     
      471.42060       3.6225981     
      471.60060       3.6052822     
      471.78060       3.5875556     
      471.96060       3.5694295     
      472.14060       3.5509154     
      472.32060       3.5320249     
      472.50060       3.5127696     
      472.68060       3.4931612     
      472.86060       3.4732116     
      473.04060       3.4529326     
      473.22060       3.4323361     
      473.40060       3.4114341     
      473.58060       3.3902384     
      473.76060       3.3687612     
      473.94060       3.3470144     
      474.12060       3.3250099     
      474.30060       3.3027598     
      474.48060       3.2802760     
      474.66060       3.2575704     
      474.84060       3.2346549     
      475.02060       3.2115413     
      475.20060       3.1882414     
      475.38060       3.1647667     
      475.56060       3.1411290     
      475.74060       3.1173397     
      475.92060       3.0934102     
      476.10060       3.0693518     
      476.28060       3.0451758     
      476.46060       3.0208931     
      476.64060       2.9965148     
      476.82060       2.9720515     
      477.00060       2.9475141     
      477.18060       2.9229129     
      477.36060       2.8982583     
      477.54060       2.8735605     
      477.72060       2.8488295     
      477.90060       2.8240751     
      478.08060       2.7993071     
      478.26060       2.7745348     
      478.44060       2.7497676     
      478.62060       2.7250145     
      478.80060       2.7002845     
      478.98060       2.6755862     
      479.16060       2.6509281     
      479.34060       2.6263185     
      479.52060       2.6017655     
      479.70060       2.5772769     
      479.88060       2.5528603     
      480.06060       2.5285232     
      480.24060       2.5042727     
      480.42060       2.4801159     
      480.60060       2.4560595     
      480.78060       2.4321100     
      480.96060       2.4082737     
      481.14060       2.3845567     
      481.32060       2.3609649     
      481.50060       2.3375039     
      481.68060       2.3141791     
      481.86060       2.2909957     
      482.04060       2.2679586     
      482.22060       2.2450726     
      482.40060       2.2223423     
      482.58060       2.1997718     
      482.76060       2.1773654     
      482.94060       2.1551268     
      483.12060       2.1330598     
      483.30060       2.1111677     
      483.48060       2.0894538     
      483.66060       2.0679212     
      483.84060       2.0465727     
      484.02060       2.0254110     
      484.20060       2.0044384     
      484.38060       1.9836571     
      484.56060       1.9630694     
      484.74060       1.9426770     
      484.92060       1.9224816     
      485.10060       1.9024848     
      485.28060       1.8826879     
      485.46060       1.8630920     
      485.64060       1.8436982     
      485.82060       1.8245072     
      486.00060       1.8055198     
      486.18060       1.7867366     
      486.36060       1.7681578     
      486.54060       1.7497838     
      486.72060       1.7316146     
      486.90060       1.7136501     
      487.08060       1.6958903     
      487.26060       1.6783348     
      487.44060       1.6609833     
      487.62060       1.6438350     
      487.80060       1.6268896     
      487.98060       1.6101460     
      488.16060       1.5936036     
      488.34060       1.5772614     
      488.52060       1.5611182     
      488.70060       1.5451730     
      488.88060       1.5294245     
      489.06060       1.5138714     
      489.24060       1.4985123     
      489.42060       1.4833458     
      489.60060       1.4683703     
      489.78060       1.4535842     
      489.96060       1.4389858     
      490.14060       1.4245735     
      490.32060       1.4103455     
      490.50060       1.3962999     
      490.68060       1.3824349     
      490.86060       1.3687486     
      491.04060       1.3552390     
      491.22060       1.3419042     
      491.40060       1.3287421     
      491.58060       1.3157506     
      491.76060       1.3029279     
      491.94060       1.2902716     
      492.12060       1.2777798     
      492.30060       1.2654502     
      492.48060       1.2532809     
      492.66060       1.2412695     
      492.84060       1.2294141     
      493.02060       1.2177123     
      493.20060       1.2061620     
      493.38060       1.1947611     
      493.56060       1.1835073     
      493.74060       1.1723987     
      493.92060       1.1614328     
      494.10060       1.1506077     
      494.28060       1.1399212     
      494.46060       1.1293711     
      494.64060       1.1189553     
      494.82060       1.1086717     
      495.00060       1.0985183     
      495.18060       1.0884929     
      495.36060       1.0785934     
      495.54060       1.0688180     
      495.72060       1.0591645     
      495.90060       1.0496308     
      496.08060       1.0402152     
      496.26060       1.0309155     
      496.44060       1.0217300     
      496.62060       1.0126565     
      496.80060       1.0036934     
      496.98060      0.99483866     
      497.16060      0.98609051     
      497.34060      0.97744715     
      497.52060      0.96890677     
      497.70060      0.96046764     
      497.88060      0.95212802     
      498.06060      0.94388620     
      498.24060      0.93574052     
      498.42060      0.92768932     
      498.60060      0.91973099     
      498.78060      0.91186392     
      498.96060      0.90408654     
      499.14060      0.89639732     
      499.32060      0.88879474     
      499.50060      0.88127730     
      499.68060      0.87384353     
      499.86060      0.86649201     
      500.04060      0.85922131     
      500.22060      0.85203005     
      500.40060      0.84491685     
      500.58060      0.83788037     
      500.76060      0.83091930     
      500.94060      0.82403234     
      501.12060      0.81721821     
      501.30060      0.81047567     
      501.48060      0.80380348     
      501.66060      0.79720044     
      501.84060      0.79066536     
      502.02060      0.78419707     
      502.20060      0.77779443     
      502.38060      0.77145630     
      502.56060      0.76518157     
      502.74060      0.75896915     
      502.92060      0.75281798     
      503.10060      0.74672698     
      503.28060      0.74069513     
      503.46060      0.73472139     
      503.64060      0.72880476     
      503.82060      0.72294424     
      504.00060      0.71713886     
      504.18060      0.71138766     
      504.36060      0.70568967     
      504.54060      0.70004397     
      504.72060      0.69444962     
      504.90060      0.68890573     
      505.08060      0.68341139     
      505.26060      0.67796571     
      505.44060      0.67256782     
      505.62060      0.66721685     
      505.80060      0.66191195     
      505.98060      0.65665228     
      506.16060      0.65143701     
      506.34060      0.64626530     
      506.52060      0.64113635     
      506.70060      0.63604936     
      506.88060      0.63100353     
      507.06060      0.62599808     
      507.24060      0.62103222     
      507.42060      0.61610520     
      507.60060      0.61121625     
      507.78060      0.60636463     
      507.96060      0.60154959     
      508.14060      0.59677040     
      508.32060      0.59202634     
      508.50060      0.58731668     
      508.68060      0.58264072     
      508.86060      0.57799776     
      509.04060      0.57338711     
      509.22060      0.56880807     
      509.40060      0.56425999     
      509.58060      0.55974217     
      509.76060      0.55525398     
      509.94060      0.55079475     
      510.12060      0.54636385     
      510.30060      0.54196063     
      510.48060      0.53758447     
      510.66060      0.53323476     
      510.84060      0.52891089     
      511.02060      0.52461225     
      511.20060      0.52033826     
      511.38060      0.51608833     
      511.56060      0.51186189     
      511.74060      0.50765838     
      511.92060      0.50347725     
      512.10060      0.49931795     
      512.28060      0.49517995     
      512.46060      0.49106273     
      512.64060      0.48696578     
      512.82060      0.48288858     
      513.00060      0.47883066     
      513.18060      0.47479154     
      513.36060      0.47077073     
      513.54060      0.46676779     
      513.72060      0.46278227     
      513.90060      0.45881374     
      514.08060      0.45486176     
      514.26060      0.45092594     
      514.44060      0.44700587     
      514.62060      0.44310117     
      514.80060      0.43921146     
      514.98060      0.43533638     
      515.16060      0.43147559     
      515.34060      0.42762875     
      515.52060      0.42379554     
      515.70060      0.41997565     
      515.88060      0.41616878     
      516.06060      0.41237466     
      516.24060      0.40859301     
      516.42060      0.40482359     
      516.60060      0.40106615     
      516.78060      0.39732046     
      516.96060      0.39358631     
      517.14060      0.38986351     
      517.32060      0.38615187     
      517.50060      0.38245122     
      517.68060      0.37876141     
      517.86060      0.37508228     
      518.04060      0.37141372     
      518.22060      0.36775561     
      518.40060      0.36410785     
      518.58060      0.36047035     
      518.76060      0.35684305     
      518.94060      0.35322588     
      519.12060      0.34961880     
      519.30060      0.34602177     
      519.48060      0.34243480     
      519.66060      0.33885786     
      519.84060      0.33529096     
      520.02060      0.33173414     
      520.20060      0.32818743     
      520.38060      0.32465088     
      520.56060      0.32112454     
      520.74060      0.31760850     
      520.92060      0.31410283     
      521.10060      0.31060764     
      521.28060      0.30712304     
      521.46060      0.30364915     
      521.64060      0.30018609     
      521.82060      0.29673402     
      522.00060      0.29329309     
      522.18060      0.28986347     
      522.36060      0.28644532     
      522.54060      0.28303884     
      522.72060      0.27964422     
      522.90060      0.27626166     
      523.08060      0.27289137     
      523.26060      0.26953358     
      523.44060      0.26618851     
      523.62060      0.26285640     
      523.80060      0.25953749     
      523.98060      0.25623204     
      524.16060      0.25294031     
      524.34060      0.24966255     
      524.52060      0.24639904     
      524.70060      0.24315005     
      524.88060      0.23991586     
      525.06060      0.23669676     
      525.24060      0.23349303     
      525.42060      0.23030498     
      525.60060      0.22713289     
      525.78060      0.22397706     
      525.96060      0.22083780     
      526.14060      0.21771542     
      526.32060      0.21461021     
      526.50060      0.21152248     
      526.68060      0.20845255     
      526.86060      0.20540072     
      527.04060      0.20236730     
      527.22060      0.19935260     
      527.40060      0.19635693     
      527.58060      0.19338059     
      527.76060      0.19042390     
      527.94060      0.18748715     
      528.12060      0.18457065     
      528.30060      0.18167470     
      528.48060      0.17879958     
      528.66060      0.17594561     
      528.84060      0.17311306     
      529.02060      0.17030222     
      529.20060      0.16751337     
      529.38060      0.16474679     
      529.56060      0.16200275     
      529.74060      0.15928152     
      529.92060      0.15658336     
      530.10060      0.15390851     
      530.28060      0.15125724     
      530.46060      0.14862978     
      530.64060      0.14602637     
      530.82060      0.14344723     
      531.00060      0.14089259     
      531.18060      0.13836267     
      531.36060      0.13585766     
      531.54060      0.13337777     
      531.72060      0.13092318     
      531.90060      0.12849408     
      532.08060      0.12609065     
      532.26060      0.12371305     
      532.44060      0.12136142     
      532.62060      0.11903593     
      532.80060      0.11673671     
      532.98060      0.11446389     
      533.16060      0.11221759     
      533.34060      0.10999792     
      533.52060      0.10780497     
      533.70060      0.10563886     
      533.88060      0.10349964     
      534.06060      0.10138741     
      534.24060      0.99302212E-001
      534.42060      0.97244112E-001
      534.60060      0.95213150E-001
      534.78060      0.93209361E-001
      534.96060      0.91232768E-001
      535.14060      0.89283387E-001
      535.32060      0.87361223E-001
      535.50060      0.85466272E-001
      535.68060      0.83598519E-001
      535.86060      0.81757941E-001
      536.04060      0.79944506E-001
      536.22060      0.78158171E-001
      536.40060      0.76398886E-001
      536.58060      0.74666589E-001
      536.76060      0.72961212E-001
      536.94060      0.71282677E-001
      537.12060      0.69630895E-001
      537.30060      0.68005772E-001
      537.48060      0.66407203E-001
      537.66060      0.64835076E-001
      537.84060      0.63289269E-001
      538.02060      0.61769655E-001
      538.20060      0.60276095E-001
      538.38060      0.58808446E-001
      538.56060      0.57366555E-001
      538.74060      0.55950263E-001
      538.92060      0.54559404E-001
      539.10060      0.53193804E-001
      539.28060      0.51853281E-001
      539.46060      0.50537650E-001
      539.64060      0.49246717E-001
      539.82060      0.47980281E-001
      540.00060      0.46738138E-001
      540.18060      0.45520076E-001
      540.36060      0.44325878E-001
      540.54060      0.43155322E-001
      540.72060      0.42008180E-001
      540.90060      0.40884219E-001
      541.08060      0.39783203E-001
      541.26060      0.38704890E-001
      541.44060      0.37649034E-001
      541.62060      0.36615385E-001
      541.80060      0.35603690E-001
      541.98060      0.34613691E-001
      542.16060      0.33645127E-001
      542.34060      0.32697735E-001
      542.52060      0.31771247E-001
      542.70060      0.30865395E-001
      542.88060      0.29979906E-001
      543.06060      0.29114507E-001
      543.24060      0.28268919E-001
      543.42060      0.27442866E-001
      543.60060      0.26636067E-001
      543.78060      0.25848240E-001
      543.96060      0.25079104E-001
      544.14060      0.24328374E-001
      544.32060      0.23595766E-001
      544.50060      0.22880995E-001
      544.68060      0.22183773E-001
      544.86060      0.21503817E-001
      545.04060      0.20840838E-001
      545.22060      0.20194552E-001
      545.40060      0.19564671E-001
      545.58060      0.18950911E-001
      545.76060      0.18352987E-001
      545.94060      0.17770613E-001
      546.12060      0.17203508E-001
      546.30060      0.16651388E-001
      546.48060      0.16113972E-001
      546.66060      0.15590980E-001
      546.84060      0.15082134E-001
      547.02060      0.14587157E-001
      547.20060      0.14105773E-001
      547.38060      0.13637710E-001
      547.56060      0.13182697E-001
      547.74060      0.12740463E-001
      547.92060      0.12310742E-001
      548.10060      0.11893269E-001
      548.28060      0.11487782E-001
      548.46060      0.11094020E-001
      548.64060      0.10711727E-001
      548.82060      0.10340648E-001
      549.00060      0.99805301E-002
      549.18060      0.96311252E-002
      549.36060      0.92921869E-002
      549.54060      0.89634719E-002
      549.72060      0.86447400E-002
      549.90060      0.83357541E-002
      550.08060      0.80362803E-002
      550.26060      0.77460877E-002
      550.44060      0.74649490E-002
      550.62060      0.71926397E-002
      550.80060      0.69289390E-002
      550.98060      0.66736294E-002
      551.16060      0.64264967E-002
      551.34060      0.61873301E-002
      551.52060      0.59559223E-002
      551.70060      0.57320695E-002
      551.88060      0.55155712E-002
      552.06060      0.53062306E-002
      552.24060      0.51038543E-002
      552.42060      0.49082524E-002
      552.60060      0.47192384E-002
      552.78060      0.45366296E-002
      552.96060      0.43602465E-002
      553.14060      0.41899133E-002
      553.32060      0.40254575E-002
      553.50060      0.38667103E-002
      553.68060      0.37135062E-002
      553.86060      0.35656831E-002
      554.04060      0.34230826E-002
      554.22060      0.32855494E-002
      554.40060      0.31529319E-002
      554.58060      0.30250814E-002
      554.76060      0.29018530E-002
      554.94060      0.27831050E-002
      555.12060      0.26686987E-002
      555.30060      0.25584989E-002
      555.48060      0.24523736E-002
      555.66060      0.23501939E-002
      555.84060      0.22518341E-002
      556.02060      0.21571715E-002
      556.20060      0.20660865E-002
      556.38060      0.19784626E-002
      556.56060      0.18941862E-002
      556.74060      0.18131467E-002
      556.92060      0.17352363E-002
      557.10060      0.16603502E-002
      557.28060      0.15883862E-002
      557.46060      0.15192450E-002
      557.64060      0.14528300E-002
      557.82060      0.13890473E-002
      558.00060      0.13278056E-002
      558.18060      0.12690161E-002
      558.36060      0.12125926E-002
      558.54060      0.11584514E-002
      558.72060      0.11065113E-002
      558.90060      0.10566932E-002
      559.08060      0.10089207E-002
      559.26060      0.96311946E-003
      559.44060      0.91921747E-003
      559.62060      0.87714488E-003
      559.80060      0.83683401E-003
      559.98060      0.79821929E-003
      560.16060      0.76123719E-003
      560.34060      0.72582617E-003
      560.52060      0.69192668E-003
      560.70060      0.65948107E-003
      560.88060      0.62843356E-003
      561.06060      0.59873020E-003
      561.24060      0.57031880E-003
      561.42060      0.54314893E-003
      561.60060      0.51717181E-003
      561.78060      0.49234035E-003
      561.96060      0.46860904E-003
      562.14060      0.44593393E-003
      562.32060      0.42427258E-003
      562.50060      0.40358406E-003
      562.68060      0.38382883E-003
      562.86060      0.36496879E-003
      563.04060      0.34696717E-003
      563.22060      0.32978852E-003
      563.40060      0.31339868E-003
      563.58060      0.29776473E-003
      563.76060      0.28285496E-003
      563.94060      0.26863882E-003
      564.12060      0.25508689E-003
      564.30060      0.24217088E-003
      564.48060      0.22986352E-003
      564.66060      0.21813861E-003
      564.84060      0.20697094E-003
      565.02060      0.19633627E-003
      565.20060      0.18621129E-003
      565.38060      0.17657360E-003
      565.56060      0.16740167E-003
      565.74060      0.15867485E-003
      565.92060      0.15037326E-003
      566.10060      0.14247786E-003
      566.28060      0.13497035E-003
      566.46060      0.12783317E-003
      566.64060      0.12104948E-003
      566.82060      0.11460312E-003
      567.00060      0.10847862E-003
      567.18060      0.10266112E-003
      567.36060      0.97136394E-004
      567.54060      0.91890808E-004
      567.72060      0.86911305E-004
      567.90060      0.82185379E-004
      568.08060      0.77701059E-004
      568.26060      0.73446885E-004
      568.44060      0.69411892E-004
      568.62060      0.65585589E-004
      568.80060      0.61957944E-004
      568.98060      0.58519364E-004
      569.16060      0.55260677E-004
      569.34060      0.52173120E-004
      569.52060      0.49248318E-004
      569.70060      0.46478272E-004
      569.88060      0.43855342E-004
      570.06060      0.41372236E-004
      570.24060      0.39021992E-004
      570.42060      0.36797966E-004
      570.60060      0.34693819E-004
      570.78060      0.32703507E-004
      570.96060      0.30821264E-004
      571.14060      0.29041595E-004
      571.32060      0.27359261E-004
      571.50060      0.25769272E-004
      571.68060      0.24266872E-004
      571.86060      0.22847533E-004
      572.04060      0.21506942E-004
      572.22060      0.20240996E-004
      572.40060      0.19045787E-004
      572.58060      0.17917598E-004
      572.76060      0.16852893E-004
      572.94060      0.15848310E-004
      573.12060      0.14900652E-004
      573.30060      0.14006878E-004
      573.48060      0.13164102E-004
      573.66060      0.12369578E-004
      573.84060      0.11620700E-004
      574.02060      0.10914994E-004
      574.20060      0.10250108E-004
      574.38060      0.96238122E-005
      574.56060      0.90339895E-005
      574.74060      0.84786314E-005
      574.92060      0.79558330E-005
      575.10060      0.74637879E-005
      575.28060      0.70007832E-005
      575.46060      0.65651958E-005
      575.64060      0.61554873E-005
      575.82060      0.57702003E-005
      576.00060      0.54079546E-005
      576.18060      0.50674429E-005
      576.36060      0.47474278E-005
      576.54060      0.44467381E-005
      576.72060      0.41642654E-005
      576.90060      0.38989611E-005
      577.08060      0.36498336E-005
      577.26060      0.34159451E-005
      577.44060      0.31964090E-005
      577.62060      0.29903873E-005
      577.80060      0.27970883E-005
      577.98060      0.26157639E-005
      578.16060      0.24457075E-005
      578.34060      0.22862522E-005
      578.52060      0.21367679E-005
      578.70060      0.19966603E-005
      578.88060      0.18653684E-005
      579.06060      0.17423630E-005
      579.24060      0.16271451E-005
      579.42060      0.15192439E-005
      579.60060      0.14182158E-005
      579.78060      0.13236425E-005
      579.96060      0.12351300E-005
      580.14060      0.11523070E-005
      580.32060      0.10748239E-005
      580.50060      0.10023514E-005
      580.68060      0.93457946E-006
      580.86060      0.87121637E-006
      581.04060      0.81198755E-006
      581.22060      0.75663472E-006
      581.40060      0.70491493E-006
      581.58060      0.65659972E-006
      581.76060      0.61147431E-006
      581.94060      0.56933682E-006
      582.12060      0.52999755E-006
      582.30060      0.49327826E-006
      582.48060      0.45901155E-006
      582.66060      0.42704021E-006
      582.84060      0.39721665E-006
      583.02060      0.36940233E-006
      583.20060      0.34346725E-006
      583.38060      0.31928943E-006
      583.56060      0.29675446E-006
      583.74060      0.27575505E-006
      583.92060      0.25619059E-006
      584.10060      0.23796681E-006
      584.28060      0.22099532E-006
      584.46060      0.20519335E-006
      584.64060      0.19048332E-006
      584.82060      0.17679261E-006
      585.00060      0.16405321E-006
      585.18060      0.15220147E-006
      585.36060      0.14117781E-006
      585.54060      0.13092649E-006
      585.72060      0.12139535E-006
      585.90060      0.11253563E-006
      586.08060      0.10430173E-006
      586.26060      0.96651021E-007
      586.44060      0.89543659E-007
      586.62060      0.82942416E-007
      586.80060      0.76812515E-007
      586.98060      0.71121473E-007
      587.16060      0.65838958E-007
      587.34060      0.60936654E-007
      587.52060      0.56388131E-007
      587.70060      0.52168728E-007
      587.88060      0.48255435E-007
      588.06060      0.44626791E-007
      588.24060      0.41262783E-007
      588.42060      0.38144754E-007
      588.60060      0.35255311E-007
      588.78060      0.32578247E-007
      588.96060      0.30098462E-007
      589.14060      0.27801891E-007
      589.32060      0.25675433E-007
      589.50060      0.23706893E-007
      589.68060      0.21884919E-007
      589.86060      0.20198943E-007
      590.04060      0.18639136E-007
      590.22060      0.17196352E-007
      590.40060      0.15862086E-007
      590.58060      0.14628428E-007
      590.76060      0.13488028E-007
      590.94060      0.12434051E-007
      591.12060      0.11460149E-007
      591.30060      0.10560422E-007
      591.48060      0.97293918E-008
      591.66060      0.89619705E-008
      591.84060      0.82534350E-008
      592.02060      0.75994009E-008
      592.20060      0.69957999E-008
      592.38060      0.64388573E-008
      592.56060      0.59250717E-008
      592.74060      0.54511963E-008
      592.92060      0.50142205E-008
      593.10060      0.46113536E-008
      593.28060      0.42400093E-008
      593.46060      0.38977913E-008
      593.64060      0.35824798E-008
      593.82060      0.32920187E-008
      594.00060      0.30245045E-008
      594.18060      0.27781747E-008
      594.36060      0.25513982E-008
      594.54060      0.23426658E-008
      594.72060      0.21505810E-008
      594.90060      0.19738523E-008
      595.08060      0.18112853E-008
      595.26060      0.16617759E-008
      595.44060      0.15243035E-008
      595.62060      0.13979247E-008
      595.80060      0.12817682E-008
      595.98060      0.11750290E-008
      596.16060      0.10769637E-008
      596.34060      0.98688581E-009
      596.52060      0.90416171E-009
      596.70060      0.82820660E-009
      596.88060      0.75848087E-009
      597.06060      0.69448671E-009
      597.24060      0.63576500E-009
      597.42060      0.58189236E-009
      597.60060      0.53247847E-009
      597.78060      0.48716359E-009
      597.96060      0.44561618E-009
      598.14060      0.40753080E-009
      598.32060      0.37262611E-009
      598.50060      0.34064302E-009
      598.68060      0.31134297E-009
      598.86060      0.28450636E-009
      599.04060      0.25993111E-009
      599.22060      0.23743126E-009
      599.40060      0.21683575E-009
      599.58060      0.19798726E-009
      599.76060      0.18074111E-009
      599.94060      0.16496431E-009
      600.12060      0.15053462E-009
      600.30060      0.13733972E-009
      600.48060      0.12527640E-009
      600.66060      0.11424987E-009
      600.84060      0.10417308E-009
      601.02060      0.94966116E-010
      601.20060      0.86555601E-010
      601.38060      0.78874210E-010
      601.56060      0.71860167E-010
      601.74060      0.65456799E-010
      601.92060      0.59612131E-010
      602.10060      0.54278505E-010
      602.28060      0.49412230E-010
      602.46060      0.44973260E-010
      602.64060      0.40924900E-010
      602.82060      0.37233532E-010
      603.00060      0.33868361E-010
      603.18060      0.30801188E-010
      603.36060      0.28006194E-010
      603.54060      0.25459745E-010
      603.72060      0.23140213E-010
      603.90060      0.21027808E-010
      604.08060      0.19104426E-010
      604.26060      0.17353509E-010
      604.44060      0.15759918E-010
      604.62060      0.14309813E-010
      604.80060      0.12990542E-010
      604.98060      0.11790547E-010
      605.16060      0.10699265E-010
      605.34060      0.97070503E-011
      605.52060      0.88050930E-011
      605.70060      0.79853499E-011
      605.88060      0.72404788E-011
      606.06060      0.65637791E-011
      606.24060      0.59491368E-011
      606.42060      0.53909746E-011
      606.60060      0.48842058E-011
      606.78060      0.44241918E-011
      606.96060      0.40067041E-011
      607.14060      0.36278885E-011
      607.32060      0.32842327E-011
      607.50060      0.29725367E-011
