      495.03620      0.14157611E-004
      495.21620      0.14248304E-004
      495.39620      0.14336884E-004
      495.57620      0.14423298E-004
      495.75620      0.14507493E-004
      495.93620      0.14589417E-004
      496.11620      0.14669019E-004
      496.29620      0.14746251E-004
      496.47620      0.14821064E-004
      496.65620      0.14893411E-004
      496.83620      0.14963247E-004
      497.01620      0.15030528E-004
      497.19620      0.15095210E-004
      497.37620      0.15157254E-004
      497.55620      0.15216620E-004
      497.73620      0.15273268E-004
      497.91620      0.15327164E-004
      498.09620      0.15378271E-004
      498.27620      0.15426557E-004
      498.45620      0.15471991E-004
      498.63620      0.15514542E-004
      498.81620      0.15554182E-004
      498.99620      0.15590886E-004
      499.17620      0.15624628E-004
      499.35620      0.15655385E-004
      499.53620      0.15683137E-004
      499.71620      0.15707865E-004
      499.89620      0.15729552E-004
      500.07620      0.15748182E-004
      500.25620      0.15763741E-004
      500.43620      0.15776218E-004
      500.61620      0.15785604E-004
      500.79620      0.15791891E-004
      500.97620      0.15795072E-004
      501.15620      0.15795144E-004
      501.33620      0.15792106E-004
      501.51620      0.15785956E-004
      501.69620      0.15776697E-004
      501.87620      0.15764332E-004
      502.05620      0.15748868E-004
      502.23620      0.15730312E-004
      502.41620      0.15708673E-004
      502.59620      0.15683962E-004
      502.77620      0.15656194E-004
      502.95620      0.15625383E-004
      503.13620      0.15591546E-004
      503.31620      0.15554702E-004
      503.49620      0.15514871E-004
      503.67620      0.15472076E-004
      503.85620      0.15426341E-004
      504.03620      0.15377692E-004
      504.21620      0.15326156E-004
      504.39620      0.15271762E-004
      504.57620      0.15214542E-004
      504.75620      0.15154527E-004
      504.93620      0.15091753E-004
      505.11620      0.15026253E-004
      505.29620      0.14958067E-004
      505.47620      0.14887232E-004
      505.65620      0.14813787E-004
      505.83620      0.14737776E-004
      506.01620      0.14659239E-004
      506.19620      0.14578222E-004
      506.37620      0.14494770E-004
      506.55620      0.14408929E-004
      506.73620      0.14320747E-004
      506.91620      0.14230273E-004
      507.09620      0.14137557E-004
      507.27620      0.14042650E-004
      507.45620      0.13945604E-004
      507.63620      0.13846471E-004
      507.81620      0.13745306E-004
      507.99620      0.13642163E-004
      508.17620      0.13537098E-004
      508.35620      0.13430168E-004
      508.53620      0.13321427E-004
      508.71620      0.13210936E-004
      508.89620      0.13098751E-004
      509.07620      0.12984931E-004
      509.25620      0.12869535E-004
      509.43620      0.12752623E-004
      509.61620      0.12634255E-004
      509.79620      0.12514492E-004
      509.97620      0.12393393E-004
      510.15620      0.12271019E-004
      510.33620      0.12147432E-004
      510.51620      0.12022693E-004
      510.69620      0.11896862E-004
      510.87620      0.11770002E-004
      511.05620      0.11642172E-004
      511.23620      0.11513435E-004
      511.41620      0.11383851E-004
      511.59620      0.11253481E-004
      511.77620      0.11122385E-004
      511.95620      0.10990625E-004
      512.13620      0.10858259E-004
      512.31620      0.10725348E-004
      512.49620      0.10591952E-004
      512.67620      0.10458128E-004
      512.85620      0.10323935E-004
      513.03620      0.10189431E-004
      513.21620      0.10054674E-004
      513.39620      0.99197191E-005
      513.57620      0.97846239E-005
      513.75620      0.96494431E-005
      513.93620      0.95142315E-005
      514.11620      0.93790431E-005
      514.29620      0.92439311E-005
      514.47620      0.91089477E-005
      514.65620      0.89741447E-005
      514.83620      0.88395726E-005
      515.01620      0.87052813E-005
      515.19620      0.85713196E-005
      515.37620      0.84377356E-005
      515.55620      0.83045761E-005
      515.73620      0.81718871E-005
      515.91620      0.80397138E-005
      516.09620      0.79080999E-005
      516.27620      0.77770885E-005
      516.45620      0.76467214E-005
      516.63620      0.75170393E-005
      516.81620      0.73880819E-005
      516.99620      0.72598879E-005
      517.17620      0.71324947E-005
      517.35620      0.70059385E-005
      517.53620      0.68802547E-005
      517.71620      0.67554773E-005
      517.89620      0.66316391E-005
      518.07620      0.65087719E-005
      518.25620      0.63869063E-005
      518.43620      0.62660718E-005
      518.61620      0.61462966E-005
      518.79620      0.60276077E-005
      518.97620      0.59100312E-005
      519.15620      0.57935918E-005
      519.33620      0.56783130E-005
      519.51620      0.55642175E-005
      519.69620      0.54513264E-005
      519.87620      0.53396600E-005
      520.05620      0.52292373E-005
      520.23620      0.51200761E-005
      520.41620      0.50121933E-005
      520.59620      0.49056046E-005
      520.77620      0.48003245E-005
      520.95620      0.46963665E-005
      521.13620      0.45937431E-005
      521.31620      0.44924656E-005
      521.49620      0.43925443E-005
      521.67620      0.42939886E-005
      521.85620      0.41968066E-005
      522.03620      0.41010057E-005
      522.21620      0.40065921E-005
      522.39620      0.39135712E-005
      522.57620      0.38219474E-005
      522.75620      0.37317242E-005
      522.93620      0.36429040E-005
      523.11620      0.35554885E-005
      523.29620      0.34694785E-005
      523.47620      0.33848741E-005
      523.65620      0.33016741E-005
      523.83620      0.32198771E-005
      524.01620      0.31394805E-005
      524.19620      0.30604810E-005
      524.37620      0.29828747E-005
      524.55620      0.29066569E-005
      524.73620      0.28318221E-005
      524.91620      0.27583643E-005
      525.09620      0.26862767E-005
      525.27620      0.26155521E-005
      525.45620      0.25461823E-005
      525.63620      0.24781588E-005
      525.81620      0.24114726E-005
      525.99620      0.23461139E-005
      526.17620      0.22820726E-005
      526.35620      0.22193379E-005
      526.53620      0.21578988E-005
      526.71620      0.20977435E-005
      526.89620      0.20388602E-005
      527.07620      0.19812362E-005
      527.25620      0.19248588E-005
      527.43620      0.18697148E-005
      527.61620      0.18157906E-005
      527.79620      0.17630724E-005
      527.97620      0.17115459E-005
      528.15620      0.16611968E-005
      528.33620      0.16120102E-005
      528.51620      0.15639713E-005
      528.69620      0.15170648E-005
      528.87620      0.14712753E-005
      529.05620      0.14265874E-005
      529.23620      0.13829851E-005
      529.41620      0.13404526E-005
      529.59620      0.12989740E-005
      529.77620      0.12585329E-005
      529.95620      0.12191133E-005
      530.13620      0.11806987E-005
      530.31620      0.11432729E-005
      530.49620      0.11068192E-005
      530.67620      0.10713213E-005
      530.85620      0.10367627E-005
      531.03620      0.10031268E-005
      531.21620      0.97039720E-006
      531.39620      0.93855738E-006
      531.57620      0.90759090E-006
      531.75620      0.87748139E-006
      531.93620      0.84821250E-006
      532.11620      0.81976797E-006
      532.29620      0.79213163E-006
      532.47620      0.76528740E-006
      532.65620      0.73921928E-006
      532.83620      0.71391142E-006
      533.01620      0.68934807E-006
      533.19620      0.66551363E-006
      533.37620      0.64239262E-006
      533.55620      0.61996973E-006
      533.73620      0.59822981E-006
      533.91620      0.57715787E-006
      534.09620      0.55673908E-006
      534.27620      0.53695882E-006
      534.45620      0.51780263E-006
      534.63620      0.49925626E-006
      534.81620      0.48130566E-006
      534.99620      0.46393698E-006
      535.17620      0.44713658E-006
      535.35620      0.43089104E-006
      535.53620      0.41518716E-006
      535.71620      0.40001195E-006
      535.89620      0.38535267E-006
      536.07620      0.37119680E-006
      536.25620      0.35753207E-006
      536.43620      0.34434642E-006
      536.61620      0.33162805E-006
      536.79620      0.31936540E-006
      536.97620      0.30754718E-006
      537.15620      0.29616230E-006
      537.33620      0.28519996E-006
      537.51620      0.27464961E-006
      537.69620      0.26450092E-006
      537.87620      0.25474386E-006
      538.05620      0.24536862E-006
      538.23620      0.23636567E-006
      538.41620      0.22772572E-006
      538.59620      0.21943976E-006
      538.77620      0.21149901E-006
      538.95620      0.20389498E-006
      539.13620      0.19661941E-006
      539.31620      0.18966431E-006
      539.49620      0.18302196E-006
      539.67620      0.17668488E-006
      539.85620      0.17064587E-006
      540.03620      0.16489795E-006
      540.21620      0.15943444E-006
      540.39620      0.15424889E-006
      540.57620      0.14933510E-006
      540.75620      0.14468715E-006
      540.93620      0.14029936E-006
      541.11620      0.13616629E-006
      541.29620      0.13228277E-006
      541.47620      0.12864387E-006
      541.65620      0.12524491E-006
      541.83620      0.12208147E-006
      542.01620      0.11914935E-006
      542.19620      0.11644462E-006
      542.37620      0.11396359E-006
      542.55620      0.11170280E-006
      542.73620      0.10965903E-006
      542.91620      0.10782933E-006
      543.09620      0.10621095E-006
      543.27620      0.10480140E-006
      543.45620      0.10359841E-006
      543.63620      0.10259996E-006
      543.81620      0.10180426E-006
      543.99620      0.10120974E-006
      544.17620      0.10081506E-006
      544.35620      0.10061912E-006
      544.53620      0.10062103E-006
      544.71620      0.10082014E-006
      544.89620      0.10121602E-006
      545.07620      0.10180845E-006
      545.25620      0.10259745E-006
      545.43620      0.10358324E-006
      545.61620      0.10476626E-006
      545.79620      0.10614717E-006
      545.97620      0.10772686E-006
      546.15620      0.10950640E-006
      546.33620      0.11148708E-006
      546.51620      0.11367042E-006
      546.69620      0.11605813E-006
      546.87620      0.11865212E-006
      547.05620      0.12145452E-006
      547.23620      0.12446765E-006
      547.41620      0.12769403E-006
      547.59620      0.13113640E-006
      547.77620      0.13479766E-006
      547.95620      0.13868094E-006
      548.13620      0.14278955E-006
      548.31620      0.14712697E-006
      548.49620      0.15169691E-006
      548.67620      0.15650324E-006
      548.85620      0.16155002E-006
      549.03620      0.16684149E-006
      549.21620      0.17238207E-006
      549.39620      0.17817638E-006
      549.57620      0.18422919E-006
      549.75620      0.19054546E-006
      549.93620      0.19713030E-006
      550.11620      0.20398900E-006
      550.29620      0.21112703E-006
      550.47620      0.21855001E-006
      550.65620      0.22626370E-006
      550.83620      0.23427406E-006
      551.01620      0.24258716E-006
      551.19620      0.25120925E-006
      551.37620      0.26014672E-006
      551.55620      0.26940608E-006
      551.73620      0.27899402E-006
      551.91620      0.28891733E-006
      552.09620      0.29918295E-006
      552.27620      0.30979795E-006
      552.45620      0.32076950E-006
      552.63620      0.33210491E-006
      552.81620      0.34381161E-006
      552.99620      0.35589711E-006
      553.17620      0.36836905E-006
      553.35620      0.38123517E-006
      553.53620      0.39450328E-006
      553.71620      0.40818129E-006
      553.89620      0.42227721E-006
      554.07620      0.43679911E-006
      554.25620      0.45175512E-006
      554.43620      0.46715346E-006
      554.61620      0.48300238E-006
      554.79620      0.49931020E-006
      554.97620      0.51608529E-006
      555.15620      0.53333604E-006
      555.33620      0.55107088E-006
      555.51620      0.56929825E-006
      555.69620      0.58802662E-006
      555.87620      0.60726446E-006
      556.05620      0.62702025E-006
      556.23620      0.64730243E-006
      556.41620      0.66811946E-006
      556.59620      0.68947974E-006
      556.77620      0.71139166E-006
      556.95620      0.73386355E-006
      557.13620      0.75690370E-006
      557.31620      0.78052031E-006
      557.49620      0.80472154E-006
      557.67620      0.82951545E-006
      557.85620      0.85490999E-006
      558.03620      0.88091305E-006
      558.21620      0.90753236E-006
      558.39620      0.93477556E-006
      558.57620      0.96265013E-006
      558.75620      0.99116343E-006
      558.93620      0.10203226E-005
      559.11620      0.10501348E-005
      559.29620      0.10806067E-005
      559.47620      0.11117450E-005
      559.65620      0.11435563E-005
      559.83620      0.11760466E-005
      560.01620      0.12092221E-005
      560.19620      0.12430884E-005
      560.37620      0.12776512E-005
      560.55620      0.13129156E-005
      560.73620      0.13488868E-005
      560.91620      0.13855693E-005
      561.09620      0.14229676E-005
      561.27620      0.14610858E-005
      561.45620      0.14999277E-005
      561.63620      0.15394967E-005
      561.81620      0.15797959E-005
      561.99620      0.16208281E-005
      562.17620      0.16625956E-005
      562.35620      0.17051005E-005
      562.53620      0.17483443E-005
      562.71620      0.17923283E-005
      562.89620      0.18370532E-005
      563.07620      0.18825195E-005
      563.25620      0.19287270E-005
      563.43620      0.19756752E-005
      563.61620      0.20233631E-005
      563.79620      0.20717893E-005
      563.97620      0.21209518E-005
      564.15620      0.21708483E-005
      564.33620      0.22214757E-005
      564.51620      0.22728308E-005
      564.69620      0.23249095E-005
      564.87620      0.23777073E-005
      565.05620      0.24312193E-005
      565.23620      0.24854399E-005
      565.41620      0.25403629E-005
      565.59620      0.25959818E-005
      565.77620      0.26522893E-005
      565.95620      0.27092775E-005
      566.13620      0.27669382E-005
      566.31620      0.28252623E-005
      566.49620      0.28842402E-005
      566.67620      0.29438619E-005
      566.85620      0.30041165E-005
      567.03620      0.30649927E-005
      567.21620      0.31264786E-005
      567.39620      0.31885615E-005
      567.57620      0.32512283E-005
      567.75620      0.33144651E-005
      567.93620      0.33782577E-005
      568.11620      0.34425909E-005
      568.29620      0.35074491E-005
      568.47620      0.35728160E-005
      568.65620      0.36386749E-005
      568.83620      0.37050081E-005
      569.01620      0.37717977E-005
      569.19620      0.38390250E-005
      569.37620      0.39066706E-005
      569.55620      0.39747147E-005
      569.73620      0.40431368E-005
      569.91620      0.41119160E-005
      570.09620      0.41810305E-005
      570.27620      0.42504581E-005
      570.45620      0.43201762E-005
      570.63620      0.43901614E-005
      570.81620      0.44603899E-005
      570.99620      0.45308373E-005
      571.17620      0.46014787E-005
      571.35620      0.46722887E-005
      571.53620      0.47432415E-005
      571.71620      0.48143106E-005
      571.89620      0.48854692E-005
      572.07620      0.49566900E-005
      572.25620      0.50279454E-005
      572.43620      0.50992070E-005
      572.61620      0.51704464E-005
      572.79620      0.52416346E-005
      572.97620      0.53127423E-005
      573.15620      0.53837398E-005
      573.33620      0.54545971E-005
      573.51620      0.55252839E-005
      573.69620      0.55957696E-005
      573.87620      0.56660233E-005
      574.05620      0.57360138E-005
      574.23620      0.58057099E-005
      574.41620      0.58750798E-005
      574.59620      0.59440919E-005
      574.77620      0.60127143E-005
      574.95620      0.60809149E-005
      575.13620      0.61486615E-005
      575.31620      0.62159218E-005
      575.49620      0.62826636E-005
      575.67620      0.63488546E-005
      575.85620      0.64144622E-005
      576.03620      0.64794543E-005
      576.21620      0.65437984E-005
      576.39620      0.66074623E-005
      576.57620      0.66704139E-005
      576.75620      0.67326211E-005
      576.93620      0.67940520E-005
      577.11620      0.68546750E-005
      577.29620      0.69144584E-005
      577.47620      0.69733711E-005
      577.65620      0.70313819E-005
      577.83620      0.70884601E-005
      578.01620      0.71445752E-005
      578.19620      0.71996972E-005
      578.37620      0.72537963E-005
      578.55620      0.73068431E-005
      578.73620      0.73588087E-005
      578.91620      0.74096645E-005
      579.09620      0.74593826E-005
      579.27620      0.75079353E-005
      579.45620      0.75552957E-005
      579.63620      0.76014372E-005
      579.81620      0.76463340E-005
      579.99620      0.76899606E-005
      580.17620      0.77322925E-005
      580.35620      0.77733055E-005
      580.53620      0.78129762E-005
      580.71620      0.78512818E-005
      580.89620      0.78882004E-005
      581.07620      0.79237107E-005
      581.25620      0.79577921E-005
      581.43620      0.79904248E-005
      581.61620      0.80215899E-005
      581.79620      0.80512691E-005
      581.97620      0.80794451E-005
      582.15620      0.81061013E-005
      582.33620      0.81312221E-005
      582.51620      0.81547927E-005
      582.69620      0.81767992E-005
      582.87620      0.81972284E-005
      583.05620      0.82160685E-005
      583.23620      0.82333080E-005
      583.41620      0.82489369E-005
      583.59620      0.82629458E-005
      583.77620      0.82753263E-005
      583.95620      0.82860711E-005
      584.13620      0.82951738E-005
      584.31620      0.83026288E-005
      584.49620      0.83084318E-005
      584.67620      0.83125793E-005
      584.85620      0.83150688E-005
      585.03620      0.83158988E-005
      585.21620      0.83150688E-005
      585.39620      0.83125793E-005
      585.57620      0.83084318E-005
      585.75620      0.83026288E-005
      585.93620      0.82951738E-005
      586.11620      0.82860711E-005
      586.29620      0.82753263E-005
      586.47620      0.82629458E-005
      586.65620      0.82489369E-005
      586.83620      0.82333080E-005
      587.01620      0.82160684E-005
      587.19620      0.81972284E-005
      587.37620      0.81767991E-005
      587.55620      0.81547927E-005
      587.73620      0.81312221E-005
      587.91620      0.81061013E-005
      588.09620      0.80794450E-005
      588.27620      0.80512690E-005
      588.45620      0.80215898E-005
      588.63620      0.79904248E-005
      588.81620      0.79577921E-005
      588.99620      0.79237107E-005
      589.17620      0.78882004E-005
      589.35620      0.78512818E-005
      589.53620      0.78129761E-005
      589.71620      0.77733054E-005
      589.89620      0.77322924E-005
      590.07620      0.76899606E-005
      590.25620      0.76463339E-005
      590.43620      0.76014371E-005
      590.61620      0.75552956E-005
      590.79620      0.75079352E-005
      590.97620      0.74593825E-005
      591.15620      0.74096644E-005
      591.33620      0.73588085E-005
      591.51620      0.73068430E-005
      591.69620      0.72537961E-005
      591.87620      0.71996970E-005
      592.05620      0.71445750E-005
      592.23620      0.70884599E-005
      592.41620      0.70313816E-005
      592.59620      0.69733708E-005
      592.77620      0.69144582E-005
      592.95620      0.68546747E-005
      593.13620      0.67940517E-005
      593.31620      0.67326208E-005
      593.49620      0.66704135E-005
      593.67620      0.66074619E-005
      593.85620      0.65437979E-005
      594.03620      0.64794538E-005
      594.21620      0.64144617E-005
      594.39620      0.63488540E-005
      594.57620      0.62826630E-005
      594.75620      0.62159211E-005
      594.93620      0.61486607E-005
      595.11620      0.60809141E-005
      595.29620      0.60127134E-005
      595.47620      0.59440910E-005
      595.65620      0.58750788E-005
      595.83620      0.58057088E-005
      596.01620      0.57360126E-005
      596.19620      0.56660220E-005
      596.37620      0.55957682E-005
      596.55620      0.55252824E-005
      596.73620      0.54545954E-005
      596.91620      0.53837380E-005
      597.09620      0.53127403E-005
      597.27620      0.52416325E-005
      597.45620      0.51704441E-005
      597.63620      0.50992045E-005
      597.81620      0.50279427E-005
      597.99620      0.49566871E-005
      598.17620      0.48854661E-005
      598.35620      0.48143072E-005
      598.53620      0.47432378E-005
      598.71620      0.46722847E-005
      598.89620      0.46014744E-005
      599.07620      0.45308326E-005
      599.25620      0.44603849E-005
      599.43620      0.43901560E-005
      599.61620      0.43201703E-005
      599.79620      0.42504518E-005
      599.97620      0.41810236E-005
      600.15620      0.41119086E-005
      600.33620      0.40431289E-005
      600.51620      0.39747061E-005
      600.69620      0.39066613E-005
      600.87620      0.38390150E-005
      601.05620      0.37717870E-005
      601.23620      0.37049966E-005
      601.41620      0.36386624E-005
      601.59620      0.35728026E-005
      601.77620      0.35074346E-005
      601.95620      0.34425753E-005
      602.13620      0.33782409E-005
      602.31620      0.33144470E-005
      602.49620      0.32512088E-005
      602.67620      0.31885405E-005
      602.85620      0.31264560E-005
      603.03620      0.30649684E-005
      603.21620      0.30040903E-005
      603.39620      0.29438338E-005
      603.57620      0.28842100E-005
      603.75620      0.28252298E-005
      603.93620      0.27669033E-005
      604.11620      0.27092400E-005
      604.29620      0.26522490E-005
      604.47620      0.25959385E-005
      604.65620      0.25403164E-005
      604.83620      0.24853899E-005
      605.01620      0.24311657E-005
      605.19620      0.23776497E-005
      605.37620      0.23248477E-005
      605.55620      0.22727645E-005
      605.73620      0.22214046E-005
      605.91620      0.21707720E-005
      606.09620      0.21208700E-005
      606.27620      0.20717016E-005
      606.45620      0.20232691E-005
      606.63620      0.19755744E-005
      606.81620      0.19286190E-005
      606.99620      0.18824039E-005
      607.17620      0.18369294E-005
      607.35620      0.17921957E-005
      607.53620      0.17482024E-005
      607.71620      0.17049485E-005
      607.89620      0.16624330E-005
      608.07620      0.16206541E-005
      608.25620      0.15796098E-005
      608.43620      0.15392976E-005
      608.61620      0.14997148E-005
      608.79620      0.14608583E-005
      608.97620      0.14227244E-005
      609.15620      0.13853094E-005
      609.33620      0.13486091E-005
      609.51620      0.13126190E-005
      609.69620      0.12773343E-005
      609.87620      0.12427501E-005
      610.05620      0.12088609E-005
      610.23620      0.11756611E-005
      610.41620      0.11431448E-005
      610.59620      0.11113061E-005
      610.77620      0.10801384E-005
      610.95620      0.10496353E-005
      611.13620      0.10197901E-005
      611.31620      0.99059566E-006
      611.49620      0.96204494E-006
      611.67620      0.93413062E-006
      611.85620      0.90684520E-006
      612.03620      0.88018104E-006
      612.21620      0.85413037E-006
      612.39620      0.82868528E-006
      612.57620      0.80383773E-006
      612.75620      0.77957958E-006
      612.93620      0.75590257E-006
      613.11620      0.73279837E-006
      613.29620      0.71025855E-006
      613.47620      0.68827461E-006
      613.65620      0.66683799E-006
      613.83620      0.64594006E-006
      614.01620      0.62557215E-006
      614.19620      0.60572556E-006
      614.37620      0.58639154E-006
      614.55620      0.56756133E-006
      614.73620      0.54922614E-006
      614.91620      0.53137719E-006
      615.09620      0.51400568E-006
      615.27620      0.49710282E-006
      615.45620      0.48065985E-006
      615.63620      0.46466800E-006
      615.81620      0.44911854E-006
      615.99620      0.43400278E-006
      616.17620      0.41931205E-006
      616.35620      0.40503773E-006
      616.53620      0.39117124E-006
      616.71620      0.37770406E-006
      616.89620      0.36462773E-006
      617.07620      0.35193385E-006
      617.25620      0.33961409E-006
      617.43620      0.32766017E-006
      617.61620      0.31606391E-006
      617.79620      0.30481720E-006
      617.97620      0.29391201E-006
      618.15620      0.28334039E-006
      618.33620      0.27309451E-006
      618.51620      0.26316658E-006
      618.69620      0.25354895E-006
      618.87620      0.24423404E-006
      619.05620      0.23521439E-006
      619.23620      0.22648261E-006
      619.41620      0.21803146E-006
      619.59620      0.20985376E-006
      619.77620      0.20194246E-006
      619.95620      0.19429063E-006
      620.13620      0.18689141E-006
      620.31620      0.17973810E-006
      620.49620      0.17282409E-006
      620.67620      0.16614286E-006
      620.85620      0.15968804E-006
      621.03620      0.15345337E-006
      621.21620      0.14743267E-006
      621.39620      0.14161993E-006
      621.57620      0.13600920E-006
      621.75620      0.13059470E-006
      621.93620      0.12537071E-006
      622.11620      0.12033166E-006
      622.29620      0.11547210E-006
      622.47620      0.11078667E-006
      622.65620      0.10627014E-006
      622.83620      0.10191739E-006
      623.01620      0.97723422E-007
      623.19620      0.93683332E-007
      623.37620      0.89792341E-007
      623.55620      0.86045777E-007
      623.73620      0.82439079E-007
      623.91620      0.78967794E-007
      624.09620      0.75627577E-007
      624.27620      0.72414188E-007
      624.45620      0.69323495E-007
      624.63620      0.66351468E-007
      624.81620      0.63494181E-007
      624.99620      0.60747810E-007
      625.17620      0.58108628E-007
      625.35620      0.55573010E-007
      625.53620      0.53137428E-007
      625.71620      0.50798447E-007
      625.89620      0.48552729E-007
      626.07620      0.46397028E-007
      626.25620      0.44328188E-007
      626.43620      0.42343144E-007
      626.61620      0.40438918E-007
      626.79620      0.38612618E-007
      626.97620      0.36861439E-007
      627.15620      0.35182656E-007
      627.33620      0.33573627E-007
      627.51620      0.32031789E-007
      627.69620      0.30554659E-007
      627.87620      0.29139829E-007
      628.05620      0.27784964E-007
      628.23620      0.26487807E-007
      628.41620      0.25246167E-007
      628.59620      0.24057928E-007
      628.77620      0.22921038E-007
      628.95620      0.21833515E-007
      629.13620      0.20793439E-007
      629.31620      0.19798956E-007
      629.49620      0.18848274E-007
      629.67620      0.17939658E-007
      629.85620      0.17071436E-007
      630.03620      0.16241990E-007
      630.21620      0.15449760E-007
      630.39620      0.14693238E-007
      630.57620      0.13970972E-007
      630.75620      0.13281558E-007
      630.93620      0.12623644E-007
      631.11620      0.11995925E-007
      631.29620      0.11397144E-007
      631.47620      0.10826091E-007
      631.65620      0.10281597E-007
      631.83620      0.97625395E-008
      632.01620      0.92678358E-008
      632.19620      0.87964444E-008
      632.37620      0.83473629E-008
      632.55620      0.79196270E-008
      632.73620      0.75123094E-008
      632.91620      0.71245183E-008
      633.09620      0.67553967E-008
      633.27620      0.64041206E-008
      633.45620      0.60698989E-008
      633.63620      0.57519713E-008
      633.81620      0.54496081E-008
      633.99620      0.51621086E-008
      634.17620      0.48888003E-008
      634.35620      0.46290383E-008
      634.53620      0.43822035E-008
      634.71620      0.41477027E-008
      634.89620      0.39249669E-008
      635.07620      0.37134509E-008
      635.25620      0.35126321E-008
      635.43620      0.33220102E-008
      635.61620      0.31411057E-008
      635.79620      0.29694598E-008
      635.97620      0.28066331E-008
      636.15620      0.26522054E-008
      636.33620      0.25057743E-008
      636.51620      0.23669553E-008
      636.69620      0.22353806E-008
      636.87620      0.21106985E-008
      637.05620      0.19925729E-008
      637.23620      0.18806827E-008
      637.41620      0.17747213E-008
      637.59620      0.16743957E-008
      637.77620      0.15794262E-008
      637.95620      0.14895458E-008
      638.13620      0.14044999E-008
      638.31620      0.13240453E-008
      638.49620      0.12479503E-008
      638.67620      0.11759938E-008
      638.85620      0.11079651E-008
      639.03620      0.10436634E-008
      639.21620      0.98289723E-009
      639.39620      0.92548434E-009
      639.57620      0.87125110E-009
      639.75620      0.82003221E-009
      639.93620      0.77167030E-009
      640.11620      0.72601562E-009
      640.29620      0.68292568E-009
      640.47620      0.64226496E-009
      640.65620      0.60390457E-009
      640.83620      0.56772197E-009
      641.01620      0.53360071E-009
      641.19620      0.50143009E-009
      641.37620      0.47110498E-009
      641.55620      0.44252550E-009
      641.73620      0.41559681E-009
      641.91620      0.39022889E-009
      642.09620      0.36633628E-009
      642.27620      0.34383790E-009
      642.45620      0.32265683E-009
      642.63620      0.30272012E-009
      642.81620      0.28395859E-009
      642.99620      0.26630667E-009
      643.17620      0.24970221E-009
      643.35620      0.23408631E-009
      643.53620      0.21940320E-009
      643.71620      0.20560004E-009
      643.89620      0.19262682E-009
      644.07620      0.18043617E-009
      644.25620      0.16898329E-009
      644.43620      0.15822577E-009
      644.61620      0.14812350E-009
      644.79620      0.13863856E-009
      644.97620      0.12973508E-009
      645.15620      0.12137915E-009
      645.33620      0.11353874E-009
      645.51620      0.10618357E-009
      645.69620      0.99285062E-010
      645.87620      0.92816203E-010
      646.05620      0.86751498E-010
      646.23620      0.81066883E-010
      646.41620      0.75739646E-010
      646.59620      0.70748358E-010
      646.77620      0.66072809E-010
      646.95620      0.61693935E-010
      647.13620      0.57593767E-010
      647.31620      0.53755362E-010
      647.49620      0.50162758E-010
      647.67620      0.46800913E-010
      647.85620      0.43655659E-010
      648.03620      0.40713653E-010
      648.21620      0.37962333E-010
      648.39620      0.35389875E-010
      648.57620      0.32985150E-010
      648.75620      0.30737688E-010
      648.93620      0.28637641E-010
      649.11620      0.26675747E-010
      649.29620      0.24843297E-010
      649.47620      0.23132107E-010
      649.65620      0.21534483E-010
      649.83620      0.20043197E-010
      650.01620      0.18651461E-010
      650.19620      0.17352899E-010
      650.37620      0.16141523E-010
      650.55620      0.15011714E-010
      650.73620      0.13958198E-010
      650.91620      0.12976027E-010
      651.09620      0.12060558E-010
      651.27620      0.11207439E-010
      651.45620      0.10412588E-010
      651.63620      0.96721778E-011
      651.81620      0.89826229E-011
      651.99620      0.83405630E-011
      652.17620      0.77428504E-011
      652.35620      0.71865371E-011
      652.53620      0.66688628E-011
      652.71620      0.61872433E-011
      652.89620      0.57392601E-011
      653.07620      0.53226502E-011
      653.25620      0.49352965E-011
      653.43620      0.45752189E-011
      653.61620      0.42405658E-011
      653.79620      0.39296063E-011
      653.97620      0.36407225E-011
      654.15620      0.33724026E-011
      654.33620      0.31232342E-011
      654.51620      0.28918982E-011
      654.69620      0.26771626E-011
      654.87620      0.24778773E-011
      655.05620      0.22929689E-011
      655.23620      0.21214354E-011
      655.41620      0.19623424E-011
      655.59620      0.18148179E-011
      655.77620      0.16780489E-011
      655.95620      0.15512775E-011
      656.13620      0.14337970E-011
      656.31620      0.13249489E-011
      656.49620      0.12241198E-011
      656.67620      0.11307381E-011
      656.85620      0.10442714E-011
      657.03620      0.96422435E-012
      657.21620      0.89013544E-012
      657.39620      0.82157533E-012
      657.57620      0.75814451E-012
      657.75620      0.69947130E-012
      657.93620      0.64521003E-012
      658.11620      0.59503926E-012
      658.29620      0.54866018E-012
      658.47620      0.50579503E-012
      658.65620      0.46618574E-012
      658.83620      0.42959252E-012
      659.01620      0.39579266E-012
      659.19620      0.36457935E-012
      659.37620      0.33576058E-012
      659.55620      0.30915811E-012
      659.73620      0.28460655E-012
      659.91620      0.26195243E-012
      660.09620      0.24105341E-012
      660.27620      0.22177748E-012
      660.45620      0.20400222E-012
      660.63620      0.18761418E-012
      660.81620      0.17250819E-012
      660.99620      0.15858682E-012
      661.17620      0.14575980E-012
      661.35620      0.13394353E-012
      661.53620      0.12306059E-012
      661.71620      0.11303933E-012
      661.89620      0.10381341E-012
      662.07620      0.95321454E-013
      662.25620      0.87506668E-013
      662.43620      0.80316531E-013
      662.61620      0.73702469E-013
      662.79620      0.67619575E-013
      662.97620      0.62026338E-013
      663.15620      0.56884396E-013
      663.33620      0.52158304E-013
      663.51620      0.47815321E-013
      663.69620      0.43825209E-013
      663.87620      0.40160047E-013
      664.05620      0.36794062E-013
      664.23620      0.33703466E-013
      664.41620      0.30866309E-013
      664.59620      0.28262341E-013
      664.77620      0.25872885E-013
      664.95620      0.23680720E-013
      665.13620      0.21669967E-013
      665.31620      0.19825991E-013
      665.49620      0.18135304E-013
      665.67620      0.16585482E-013
      665.85620      0.15165078E-013
      666.03620      0.13863552E-013
      666.21620      0.12671198E-013
      666.39620      0.11579083E-013
      666.57620      0.10578983E-013
      666.75620      0.96633342E-014
      666.93620      0.88251760E-014
      667.11620      0.80581075E-014
      667.29620      0.73562426E-014
      667.47620      0.67141699E-014
      667.65620      0.61269159E-014
      667.83620      0.55899100E-014
      668.01620      0.50989530E-014
      668.19620      0.46501880E-014
      668.37620      0.42400729E-014
      668.55620      0.38653554E-014
      668.73620      0.35230503E-014
      668.91620      0.32104178E-014
      669.09620      0.29249441E-014
      669.27620      0.26643231E-014
      669.45620      0.24264398E-014
      669.63620      0.22093547E-014
      669.81620      0.20112899E-014
      669.99620      0.18306158E-014
      670.17620      0.16658391E-014
      670.35620      0.15155916E-014
      670.53620      0.13786202E-014
      670.71620      0.12537772E-014
      670.89620      0.11400120E-014
      671.07620      0.10363627E-014
      671.25620      0.94194913E-015
      671.43620      0.85596580E-015
      671.61620      0.77767596E-015
      671.79620      0.70640578E-015
      671.97620      0.64153908E-015
      672.15620      0.58251256E-015
      672.33620      0.52881135E-015
      672.51620      0.47996498E-015
      672.69620      0.43554360E-015
      672.87620      0.39515459E-015
      673.05620      0.35843938E-015
      673.23620      0.32507062E-015
      673.41620      0.29474946E-015
      673.59620      0.26720317E-015
      673.77620      0.24218292E-015
      673.95620      0.21946169E-015
      674.13620      0.19883244E-015
      674.31620      0.18010636E-015
      674.49620      0.16311135E-015
      674.67620      0.14769051E-015
      674.85620      0.13370090E-015
      675.03620      0.12101225E-015
