      458.65510      0.13113419E-001
      462.43270      0.11815615E-001
      466.21030      0.10425315E-001
      469.98790      0.92771537E-002
      473.76550      0.86861484E-002
      477.54309      0.88149749E-002
      481.32069      0.95976158E-002
      485.09829      0.10755518E-001
      488.87589      0.11897465E-001
      492.65349      0.12657014E-001
      496.43109      0.12808120E-001
      500.20869      0.12315275E-001
      503.98629      0.11309522E-001
      507.76388      0.10015389E-001
      511.54148      0.86680470E-002
      515.31908      0.74514946E-002
      519.09668      0.64694327E-002
      522.87428      0.57455882E-002
      526.65188      0.52453266E-002
      530.42948      0.49106683E-002
      534.20708      0.46997892E-002
      537.98467      0.46189560E-002
      541.76227      0.47341475E-002
      545.53987      0.51551118E-002
      549.31747      0.59950174E-002
      553.09507      0.73190117E-002
      556.87267      0.90999391E-002
      560.65027      0.11197189E-001
      564.42787      0.13366677E-001
      568.20547      0.15300293E-001
      571.98306      0.16685889E-001
      575.76066      0.17275337E-001
      579.53826      0.16946689E-001
      583.31586      0.15745453E-001
      587.09346      0.13890996E-001
      590.87106      0.11740221E-001
      594.64866      0.97119843E-002
      598.42626      0.81881858E-002
      602.20385      0.74160813E-002
      605.98145      0.74391670E-002
      609.75905      0.80807695E-002
      613.53665      0.89936411E-002
      617.31425      0.97686943E-002
      621.09185      0.10070538E-001
      624.86945      0.97495870E-002
      628.64705      0.88845346E-002
      632.42464      0.77375788E-002
      636.20224      0.66434953E-002
      639.97984      0.58807890E-002
      643.75744      0.55758321E-002
      647.53504      0.56722891E-002
      651.31264      0.59705593E-002
      655.09024      0.62165999E-002
      658.86784      0.62028671E-002
      662.64544      0.58408968E-002
      666.42303      0.51781886E-002
      670.20063      0.43580182E-002
      673.97823      0.35472638E-002
      677.75583      0.28695662E-002
      681.53343      0.23728355E-002
      685.31103      0.20379870E-002
      689.08863      0.18140720E-002
      692.86623      0.16552387E-002
      696.64382      0.15399831E-002
      700.42142      0.14673308E-002
      704.19902      0.14387743E-002
      707.97662      0.14413749E-002
      711.75422      0.14439755E-002
      715.53182      0.14083556E-002
      719.30942      0.13072935E-002
      723.08702      0.11379523E-002
      726.86461      0.92317964E-003
      730.64221      0.70141424E-003
      734.41981      0.51204586E-003
      738.19741      0.38375499E-003
      741.97501      0.32955369E-003
      745.75261      0.34784017E-003
      749.53021      0.42694154E-003
      753.30781      0.55144476E-003
      757.08541      0.70972391E-003
      760.86300      0.90126954E-003
      764.64060      0.11400593E-002
      768.41820      0.14492001E-002
      772.19580      0.18453840E-002
      775.97340      0.23189912E-002
      779.75100      0.28220708E-002
      783.52860      0.32755311E-002
      787.30620      0.35964526E-002
      791.08379      0.37322779E-002
      794.86139      0.36815732E-002
      798.63899      0.34882061E-002
      802.41659      0.32132438E-002
      806.19419      0.29036103E-002
      809.97179      0.25771157E-002
      813.74939      0.22300144E-002
      817.52699      0.18570919E-002
      821.30458      0.14677848E-002
      825.08218      0.10881088E-002
      828.85978      0.75007211E-003
      832.63738      0.47799899E-003
      836.41498      0.28056569E-003
      840.19258      0.15133299E-003
      843.97018      0.74907347E-004
      847.74778      0.33997633E-004
      851.52538      0.14141446E-004
      855.30297      0.53893226E-005
      859.08057      0.18814631E-005
      862.85817      0.60163742E-006
      866.63577      0.17620865E-006
      870.41337      0.47270964E-007
      874.19097      0.11643490E-007
      877.96857      0.28162298E-008
      881.74617      0.17457190E-008
      885.52376      0.66604744E-008
      889.30136      0.32649609E-007
      893.07896      0.14869094E-006
      896.85656      0.62047806E-006
      900.63416      0.23713450E-005
      904.41176      0.83001104E-005
      908.18936      0.26607015E-004
      911.96696      0.78115175E-004
      915.74455      0.21004261E-003
      919.52215      0.51727404E-003
      923.29975      0.11667776E-002
      927.07735      0.24106194E-002
      930.85495      0.45621641E-002
      934.63255      0.79096502E-002
      938.41015      0.12564667E-001
      942.18775      0.18291360E-001
      945.96535      0.24410779E-001
      949.74294      0.29878855E-001
      953.52054      0.33565712E-001
      957.29814      0.34643324E-001
      961.07574      0.32898280E-001
      964.85334      0.28804657E-001
      968.63094      0.23320785E-001
      972.40854      0.17526387E-001
      976.18614      0.12286835E-001
      979.96373      0.80815177E-002
      983.74133      0.50175651E-002
      987.51893      0.29565716E-002
      991.29653      0.16592405E-002
      995.07413      0.88749735E-003
      998.85173      0.45149057E-003
     1002.62933      0.21780367E-003
     1006.40693      0.10022556E-003
     1010.18452      0.47054107E-004
     1013.96212      0.30672216E-004
     1017.73972      0.40513007E-004
     1021.51732      0.78787621E-004
     1025.29492      0.15762463E-003
     1029.07252      0.29574105E-003
     1032.85012      0.51273996E-003
     1036.62772      0.82026074E-003
     1040.40532      0.12115912E-002
     1044.18291      0.16539587E-002
     1047.96051      0.20886628E-002
     1051.73811      0.24420221E-002
     1055.51571      0.26451727E-002
     1059.29331      0.26556550E-002
     1063.07091      0.24717288E-002
     1066.84851      0.21331231E-002
     1070.62611      0.17081811E-002
     1074.40370      0.12736227E-002
     1078.18130      0.89589118E-003
     1081.95890      0.62093131E-003
     1085.73650      0.47374013E-003
     1089.51410      0.46350293E-003
     1093.29170      0.58776392E-003
     1097.06930      0.83122975E-003
     1100.84690      0.11601865E-002
     1104.62449      0.15187321E-002
     1108.40209      0.18342277E-002
     1112.17969      0.20347993E-002
     1115.95729      0.20736728E-002
     1119.73489      0.19491993E-002
     1123.51249      0.17103818E-002
     1127.29009      0.14451823E-002
     1131.06769      0.12571770E-002
     1134.84529      0.12392517E-002
     1138.62288      0.14502426E-002
     1142.40048      0.18966629E-002
     1146.17808      0.25220283E-002
     1149.95568      0.32101451E-002
     1153.73328      0.38095891E-002
     1157.51088      0.41789367E-002
     1161.28848      0.42385455E-002
     1165.06608      0.40050726E-002
     1168.84367      0.35889623E-002
     1172.62127      0.31524935E-002
     1176.39887      0.28460164E-002
     1180.17647      0.27504587E-002
     1183.95407      0.28501892E-002
     1187.73167      0.30458549E-002
     1191.50927      0.31996287E-002
     1195.28687      0.31923072E-002
     1199.06446      0.29676830E-002
     1202.84206      0.25466042E-002
     1206.61966      0.20083980E-002
     1210.39726      0.14528886E-002
     1214.17486      0.96323109E-003
     1217.95246      0.58502797E-003
     1221.73006      0.32545926E-003
     1225.50766      0.16582798E-003
     1229.28526      0.77383024E-004
     1233.06285      0.33071505E-004
     1236.84045      0.12944336E-004
     1240.61805      0.46400421E-005
     1244.39565      0.15232803E-005
     1248.17325      0.45798713E-006
     1251.95085      0.12610786E-006
     1255.72845      0.31801411E-007
     1259.50605      0.73445668E-008
     1263.28364      0.15534908E-008
     1267.06124      0.30113066E-009
     1270.83884      0.54847797E-010
     1274.61644      0.17985321E-010
     1278.39404      0.55566572E-010
     1282.17164      0.28990961E-009
     1285.94924      0.14164871E-008
     1289.72684      0.63420296E-008
     1293.50443      0.26005525E-007
     1297.28203      0.97660400E-007
     1301.05963      0.33588198E-006
     1304.83723      0.10579625E-005
     1308.61483      0.30518920E-005
     1312.39243      0.80627538E-005
     1316.17003      0.19508010E-004
     1319.94763      0.43227278E-004
     1323.72523      0.87723945E-004
     1327.50282      0.16303985E-003
     1331.28042      0.27751387E-003
     1335.05802      0.43260445E-003
     1338.83562      0.61760757E-003
     1342.61322      0.80751310E-003
     1346.39082      0.96694527E-003
     1350.16842      0.10603997E-002
     1353.94602      0.10650080E-002
     1357.72361      0.97960893E-003
     1361.50121      0.82522963E-003
     1365.27881      0.63672185E-003
     1369.05641      0.45013739E-003
     1372.83401      0.29219594E-003
     1376.61161      0.17614061E-003
     1380.38921      0.10443932E-003
     1384.16681      0.75934598E-004
     1387.94440      0.94344869E-004
     1391.72200      0.17556557E-003
     1395.49960      0.35137320E-003
     1399.27720      0.66637908E-003
     1403.05480      0.11648764E-002
     1406.83240      0.18670979E-002
     1410.61000      0.27413471E-002
     1414.38760      0.36863304E-002
     1418.16520      0.45398839E-002
     1421.94279      0.51205335E-002
     1425.72039      0.52894494E-002
     1429.49799      0.50042908E-002
     1433.27559      0.43364990E-002
     1437.05319      0.34424252E-002
     1440.83079      0.25041767E-002
     1444.60839      0.16706150E-002
     1448.38599      0.10239149E-002
     1452.16358      0.57883225E-003
     1455.94118      0.30446706E-003
     1459.71878      0.15175638E-003
     1463.49638      0.74143605E-004
     1467.27398      0.37302856E-004
     1471.05158      0.20181446E-004
     1474.82918      0.11767733E-004
     1478.60678      0.70989095E-005
     1482.38437      0.42142012E-005
     1486.16197      0.23764768E-005
     1489.93957      0.12499751E-005
     1493.71717      0.61245833E-006
     1497.49477      0.29471729E-006
     1501.27237      0.18712391E-006
     1505.04997      0.25603041E-006
     1508.82757      0.56253800E-006
     1512.60517      0.12865529E-005
     1516.38276      0.27464188E-005
     1520.16036      0.53832589E-005
     1523.93796      0.96669719E-005
     1527.71556      0.15899056E-004
     1531.49316      0.23948057E-004
     1535.27076      0.33035812E-004
     1539.04836      0.41736424E-004
     1542.82596      0.48290489E-004
     1546.60355      0.51171343E-004
     1550.38115      0.49661907E-004
     1554.15875      0.44147774E-004
     1557.93635      0.35970562E-004
     1561.71395      0.26937118E-004
     1565.49155      0.18776731E-004
     1569.26915      0.12858715E-004
     1573.04675      0.10339874E-004
     1576.82434      0.12712663E-004
     1580.60194      0.22561766E-004
     1584.37954      0.44230799E-004
     1588.15714      0.84053529E-004
     1591.93474      0.14986986E-003
     1595.71234      0.24980053E-003
     1599.48994      0.39063971E-003
     1603.26754      0.57646479E-003
     1607.04514      0.80785647E-003
     1610.82273      0.10815624E-002
     1614.60033      0.13901526E-002
     1618.37793      0.17217997E-002
     1622.15553      0.20614068E-002
     1625.93313      0.23944929E-002
     1629.71073      0.27133990E-002
     1633.48833      0.30223398E-002
     1637.26593      0.33363457E-002
     1641.04352      0.36715661E-002
     1644.82112      0.40300981E-002
     1648.59872      0.43876784E-002
     1652.37632      0.46929628E-002
     1656.15392      0.48814641E-002
     1659.93152      0.48986935E-002
     1663.70912      0.47213707E-002
     1667.48672      0.43667591E-002
     1671.26431      0.38872765E-002
     1675.04191      0.33551574E-002
     1678.81951      0.28448675E-002
     1682.59711      0.24185156E-002
     1686.37471      0.21155677E-002
     1690.15231      0.19467980E-002
     1693.92991      0.18938202E-002
     1697.70751      0.19164883E-002
     1701.48511      0.19682648E-002
     1705.26270      0.20152359E-002
     1709.04030      0.20512730E-002
     1712.81790      0.21023144E-002
     1716.59550      0.22164105E-002
     1720.37310      0.24411215E-002
     1724.15070      0.27949876E-002
     1727.92830      0.32444318E-002
     1731.70590      0.36991752E-002
     1735.48349      0.40341304E-002
     1739.26109      0.41329936E-002
     1743.03869      0.39346980E-002
     1746.81629      0.34590728E-002
     1750.59389      0.27981237E-002
     1754.37149      0.20785710E-002
     1758.14909      0.14163291E-002
     1761.92669      0.88468526E-003
     1765.70428      0.50638874E-003
     1769.48188      0.26556217E-003
     1773.25948      0.12758514E-003
     1777.03708      0.56162584E-004
     1780.81468      0.22694456E-004
     1784.59228      0.85813605E-005
     1788.36988      0.36064126E-005
     1792.14748      0.33852318E-005
     1795.92508      0.76600071E-005
     1799.70267      0.20118425E-004
     1803.48027      0.49712454E-004
     1807.25787      0.11279682E-003
     1811.03547      0.23445218E-003
     1814.81307      0.44631109E-003
     1818.59067      0.77810367E-003
     1822.36827      0.12423750E-002
     1826.14587      0.18167002E-002
     1829.92346      0.24329276E-002
     1833.70106      0.29839424E-002
     1837.47866      0.33517146E-002
     1841.25626      0.34479342E-002
     1845.03386      0.32483757E-002
     1848.81146      0.28027792E-002
     1852.58906      0.22147609E-002
     1856.36666      0.16028030E-002
     1860.14425      0.10623039E-002
     1863.92185      0.64481151E-003
     1867.69945      0.35845291E-003
     1871.47705      0.18249324E-003
     1875.25465      0.85089661E-004
     1879.03225      0.36334748E-004
     1882.80985      0.14209634E-004
     1886.58745      0.50893197E-005
     1890.36505      0.16694285E-005
     1894.14264      0.50190001E-006
     1897.92024      0.14031814E-006
     1901.69784      0.46916065E-007
     1905.47544      0.65583861E-007
     1909.25304      0.25138496E-006
     1913.03064      0.99225547E-006
     1916.80824      0.36089549E-005
     1920.58584      0.12024990E-004
     1924.36343      0.36695236E-004
     1928.14103      0.10255345E-003
     1931.91863      0.26248606E-003
     1935.69623      0.61528671E-003
     1939.47383      0.13208825E-002
     1943.25143      0.25969654E-002
     1947.02903      0.46760967E-002
     1950.80663      0.77110966E-002
     1954.58422      0.11645661E-001
     1958.36182      0.16107476E-001
     1962.13942      0.20403571E-001
     1965.91702      0.23670106E-001
     1969.69462      0.25148355E-001
     1973.47222      0.24470018E-001
     1977.24982      0.21805916E-001
     1981.02742      0.17796301E-001
     1984.80502      0.13301495E-001
     1988.58261      0.91051383E-002
     1992.36021      0.57080525E-002
     1996.13781      0.32772134E-002
     1999.91541      0.17232045E-002
     2003.69301      0.82982070E-003
     2007.47061      0.36597131E-003
     2011.24821      0.14781727E-003
     2015.02581      0.54678757E-004
     2018.80340      0.18523687E-004
     2022.58100      0.57471375E-005
     2026.35860      0.16330184E-005
     2030.13620      0.42495790E-006
     2033.91380      0.10127822E-006
     2037.69140      0.22105563E-007
     2041.46900      0.44187806E-008
     2045.24660      0.80894434E-009
     2049.02419      0.13562826E-009
     2052.80179      0.20825577E-010
     2056.57939      0.29285947E-011
     2060.35699      0.37716973E-012
     2064.13459      0.44486653E-013
     2067.91219      0.48054933E-014
     2071.68979      0.47540261E-015
     2075.46739      0.43072540E-016
     2079.24499      0.35740017E-017
     2083.02258      0.27159662E-018
     2086.80018      0.18902067E-019
     2090.57778      0.12047851E-020
     2094.35538      0.70327508E-022
     2098.13298      0.37597261E-023
     2101.91058      0.18407827E-024
     2105.68818      0.82539945E-026
     2109.46578      0.33895432E-027
     2113.24337      0.12747749E-028
     2117.02097      0.43907751E-030
     2120.79857      0.13850460E-031
     2124.57617      0.40013134E-033
     2128.35377      0.10586594E-034
     2132.13137      0.25652241E-036
     2135.90897      0.56925874E-038
     2139.68657      0.11569363E-039
     2143.46416      0.21533990E-041
     2147.24176      0.36707509E-043
     2151.01936      0.57306074E-045
     2154.79696      0.81933546E-047
     2158.57456      0.10728480E-048
     2162.35216      0.12865597E-050
     2166.12976      0.14129835E-052
     2169.90736      0.14212142E-054
     2173.68496      0.13091739E-056
     2177.46255      0.11044612E-058
     2181.24015      0.85333381E-061
     2185.01775      0.60381344E-063
     2188.79535      0.39129287E-065
     2192.57295      0.23222900E-067
     2196.35055      0.12622526E-069
     2200.12815      0.62833533E-072
     2203.90575      0.28645210E-074
     2207.68334      0.11959909E-076
     2211.46094      0.45731883E-079
     2215.23854      0.16014952E-081
     2219.01614      0.51362663E-084
     2222.79374      0.15086370E-086
     2226.57134      0.40582364E-089
     2230.34894      0.99978188E-092
     2234.12654      0.22557373E-094
     2237.90413      0.46610861E-097
     2241.68173      0.88206596E-100
     2245.45933      0.15287284E-102
     2249.23693      0.24264702E-105
     2253.01453      0.35272394E-108
     2256.79213      0.46958070E-111
     2260.56973      0.57253348E-114
     2264.34733      0.63930320E-117
     2268.12493      0.65377485E-120
     2271.90252       0.0000000     
     2275.68012       0.0000000     
     2279.45772       0.0000000     
     2283.23532       0.0000000     
     2287.01292       0.0000000     
     2290.79052       0.0000000     
     2294.56812       0.0000000     
     2298.34572       0.0000000     
     2302.12331       0.0000000     
     2305.90091       0.0000000     
     2309.67851       0.0000000     
     2313.45611       0.0000000     
     2317.23371       0.0000000     
     2321.01131       0.0000000     
     2324.78891       0.0000000     
     2328.56651       0.0000000     
     2332.34410       0.0000000     
     2336.12170       0.0000000     
     2339.89930       0.0000000     
     2343.67690       0.0000000     
     2347.45450       0.0000000     
     2351.23210       0.0000000     
     2355.00970       0.0000000     
     2358.78730       0.0000000     
     2362.56490       0.0000000     
     2366.34249       0.0000000     
     2370.12009       0.0000000     
     2373.89769       0.0000000     
     2377.67529       0.0000000     
     2381.45289       0.0000000     
     2385.23049       0.0000000     
     2389.00809       0.0000000     
     2392.78569       0.0000000     
     2396.56328       0.0000000     
     2400.34088       0.0000000     
     2404.11848       0.0000000     
     2407.89608       0.0000000     
     2411.67368       0.0000000     
     2415.45128       0.0000000     
     2419.22888       0.0000000     
     2423.00648       0.0000000     
     2426.78407       0.0000000     
     2430.56167       0.0000000     
     2434.33927       0.0000000     
     2438.11687       0.0000000     
     2441.89447       0.0000000     
     2445.67207       0.0000000     
     2449.44967       0.0000000     
     2453.22727       0.0000000     
     2457.00487       0.0000000     
     2460.78246       0.0000000     
     2464.56006       0.0000000     
     2468.33766       0.0000000     
     2472.11526       0.0000000     
     2475.89286       0.0000000     
     2479.67046       0.0000000     
     2483.44806       0.0000000     
     2487.22566       0.0000000     
     2491.00325       0.0000000     
     2494.78085       0.0000000     
     2498.55845       0.0000000     
     2502.33605       0.0000000     
     2506.11365       0.0000000     
     2509.89125       0.0000000     
     2513.66885       0.0000000     
     2517.44645       0.0000000     
     2521.22404       0.0000000     
     2525.00164       0.0000000     
     2528.77924       0.0000000     
     2532.55684       0.0000000     
     2536.33444       0.0000000     
     2540.11204       0.0000000     
     2543.88964       0.0000000     
     2547.66724       0.0000000     
     2551.44484       0.0000000     
     2555.22243       0.0000000     
     2559.00003       0.0000000     
     2562.77763       0.0000000     
     2566.55523       0.0000000     
     2570.33283       0.0000000     
     2574.11043       0.0000000     
     2577.88803       0.0000000     
     2581.66563       0.0000000     
     2585.44322       0.0000000     
     2589.22082       0.0000000     
     2592.99842       0.0000000     
     2596.77602       0.0000000     
     2600.55362       0.0000000     
     2604.33122       0.0000000     
     2608.10882       0.0000000     
     2611.88642       0.0000000     
     2615.66401       0.0000000     
     2619.44161       0.0000000     
     2623.21921       0.0000000     
     2626.99681       0.0000000     
     2630.77441       0.0000000     
     2634.55201       0.0000000     
     2638.32961       0.0000000     
     2642.10721       0.0000000     
     2645.88481       0.0000000     
     2649.66240       0.0000000     
     2653.44000       0.0000000     
     2657.21760       0.0000000     
     2660.99520       0.0000000     
     2664.77280       0.0000000     
     2668.55040       0.0000000     
     2672.32800       0.0000000     
     2676.10560       0.0000000     
     2679.88319       0.0000000     
     2683.66079       0.0000000     
     2687.43839       0.0000000     
     2691.21599       0.0000000     
     2694.99359       0.0000000     
     2698.77119       0.0000000     
     2702.54879       0.0000000     
     2706.32639       0.0000000     
     2710.10398       0.0000000     
     2713.88158       0.0000000     
     2717.65918       0.0000000     
     2721.43678       0.0000000     
     2725.21438       0.0000000     
     2728.99198       0.0000000     
     2732.76958       0.0000000     
     2736.54718       0.0000000     
     2740.32478       0.0000000     
     2744.10237       0.0000000     
     2747.87997       0.0000000     
     2751.65757       0.0000000     
     2755.43517       0.0000000     
     2759.21277       0.0000000     
     2762.99037       0.0000000     
     2766.76797       0.0000000     
     2770.54557       0.0000000     
     2774.32316       0.0000000     
     2778.10076       0.0000000     
     2781.87836       0.0000000     
     2785.65596       0.0000000     
     2789.43356       0.0000000     
     2793.21116       0.0000000     
     2796.98876       0.0000000     
     2800.76636      0.31637283E-119
     2804.54395      0.30601333E-116
     2808.32155      0.27107960E-113
     2812.09915      0.21992200E-110
     2815.87675      0.16340143E-107
     2819.65435      0.11118812E-104
     2823.43195      0.69290904E-102
     2827.20955      0.39546626E-099
     2830.98715      0.20670833E-096
     2834.76475      0.98951381E-094
     2838.54234      0.43381152E-091
     2842.31994      0.17417894E-088
     2846.09754      0.64047998E-086
     2849.87514      0.21569040E-083
     2853.65274      0.66522935E-081
     2857.43034      0.18790024E-078
     2861.20794      0.48606977E-076
     2864.98554      0.11515564E-073
     2868.76313      0.24985450E-071
     2872.54073      0.49648311E-069
     2876.31833      0.90351864E-067
     2880.09593      0.15058617E-064
     2883.87353      0.22985207E-062
     2887.65113      0.32131210E-060
     2891.42873      0.41135907E-058
     2895.20633      0.48231462E-056
     2898.98392      0.51791097E-054
     2902.76152      0.50932517E-052
     2906.53912      0.45872299E-050
     2910.31672      0.37837394E-048
     2914.09432      0.28582965E-046
     2917.87192      0.19774644E-044
     2921.64952      0.12529259E-042
     2925.42712      0.72703861E-041
     2929.20472      0.38637133E-039
     2932.98231      0.18804754E-037
     2936.75991      0.83819631E-036
     2940.53751      0.34216784E-034
     2944.31511      0.12792280E-032
     2948.09271      0.43799796E-031
     2951.87031      0.13734459E-029
     2955.64791      0.39442675E-028
     2959.42551      0.10373767E-026
     2963.20310      0.24987453E-025
     2966.98070      0.55121728E-024
     2970.75830      0.11136251E-022
     2974.53590      0.20604900E-021
     2978.31350      0.34915427E-020
     2982.09110      0.54185060E-019
     2985.86870      0.77011767E-018
     2989.64630      0.10024206E-016
     2993.42389      0.11949733E-015
     2997.20149      0.13046131E-014
     3000.97909      0.13044296E-013
     3004.75669      0.11944690E-012
     3008.53429      0.10017157E-011
     3012.31189      0.76935963E-011
     3016.08949      0.54116495E-010
     3019.86709      0.34861436E-009
     3023.64469      0.20567250E-008
     3027.42228      0.11112775E-007
     3031.19988      0.54990053E-007
     3034.97748      0.24920750E-006
     3038.75508      0.10343164E-005
     3042.53268      0.39315253E-005
     3046.31028      0.13686238E-004
     3050.08788      0.43633737E-004
     3053.86548      0.12740195E-003
     3057.64307      0.34067880E-003
     3061.42067      0.83431389E-003
     3065.19827      0.18712386E-002
     3068.97587      0.38436534E-002
     3072.75347      0.72306044E-002
     3076.53107      0.12457197E-001
     3080.30867      0.19655378E-001
     3084.08627      0.28402581E-001
     3087.86386      0.37588029E-001
     3091.64146      0.45557160E-001
     3095.41906      0.50568385E-001
     3099.19666      0.51406360E-001
     3102.97426      0.47859700E-001
     3106.75186      0.40807353E-001
     3110.52946      0.31865609E-001
     3114.30706      0.22788795E-001
     3118.08466      0.14925739E-001
     3121.86225      0.89529398E-002
     3125.63985      0.49182526E-002
     3129.41745      0.24744081E-002
     3133.19505      0.11401111E-002
     3136.97265      0.48110333E-003
     3140.75025      0.18592804E-003
     3144.52785      0.65806192E-004
     3148.30545      0.21330644E-004
     3152.08304      0.63322277E-005
     3155.86064      0.17215689E-005
     3159.63824      0.42865476E-006
     3163.41584      0.97747628E-007
     3167.19344      0.20413625E-007
     3170.97104      0.39043559E-008
     3174.74864      0.68390220E-009
     3178.52624      0.10971197E-009
     3182.30383      0.16118827E-010
     3186.08143      0.21704135E-011
     3189.85903      0.28242721E-012
     3193.63663      0.16095868E-012
     3197.41423      0.10357966E-011
     3201.19183      0.74673019E-011
     3204.96943      0.49447370E-010
     3208.74703      0.29988499E-009
     3212.52463      0.16656426E-008
     3216.30222      0.84727477E-008
     3220.07982      0.39471357E-007
     3223.85742      0.16840508E-006
     3227.63502      0.65802691E-006
     3231.41262      0.23547644E-005
     3235.19022      0.77173218E-005
     3238.96782      0.23163336E-004
     3242.74542      0.63672358E-004
     3246.52301      0.16029357E-003
     3250.30061      0.36956993E-003
     3254.07821      0.78035547E-003
     3257.85581      0.15090502E-002
     3261.63341      0.26725769E-002
     3265.41101      0.43348303E-002
     3269.18861      0.64391615E-002
     3272.96621      0.87599551E-002
     3276.74380      0.10914147E-001
     3280.52140      0.12453546E-001
     3284.29900      0.13014024E-001
     3288.07660      0.12455052E-001
     3291.85420      0.10916786E-001
     3295.63180      0.87631334E-002
     3299.40940      0.64422767E-002
     3303.18700      0.43374518E-002
     3306.96460      0.26745166E-002
     3310.74219      0.15103280E-002
     3314.51979      0.78111071E-003
     3318.29739      0.36997233E-003
     3322.07499      0.16048751E-003
     3325.85259      0.63757105E-004
     3329.63019      0.23196971E-004
     3333.40779      0.77294625E-005
     3337.18539      0.23587540E-005
     3340.96298      0.65922150E-006
     3344.74058      0.16873121E-006
     3348.51818      0.39552578E-007
     3352.29578      0.84912089E-008
     3356.07338      0.16694738E-008
     3359.85098      0.30061110E-009
     3363.62858      0.49573064E-010
     3367.40618      0.74868970E-011
     3371.18377      0.10355553E-011
     3374.96137      0.13117772E-012
     3378.73897      0.15218162E-013
     3382.51657      0.16168869E-014
     3386.29417      0.15733033E-015
     3390.07177      0.14020406E-016
     3393.84937      0.11442583E-017
     3397.62697      0.85526933E-019
     3401.40457      0.58545978E-020
     3405.18216      0.36703423E-021
     3408.95976      0.21073245E-022
     3412.73736      0.11080813E-023
     3416.51496      0.53361391E-025
     3420.29256      0.23534123E-026
     3424.07016      0.95057027E-028
     3427.84776      0.35162989E-029
     3431.62536      0.11912494E-030
     3435.40295      0.36960251E-032
     3439.18055      0.10502253E-033
     3442.95815      0.27330364E-035
     3446.73575      0.65136389E-037
     3450.51335      0.14217305E-038
     3454.29095      0.28420141E-040
     3458.06855      0.52029602E-042
     3461.84615      0.87234873E-044
     3465.62374      0.13395073E-045
     3469.40134      0.18837159E-047
     3473.17894      0.24260573E-049
     3476.95654      0.28615547E-051
     3480.73414      0.30911379E-053
     3484.51174      0.30580886E-055
     3488.28934      0.27707483E-057
     3492.06694      0.22991083E-059
     3495.84454      0.17471779E-061
     3499.62213      0.12159905E-063
     3503.39973      0.77506575E-066
     3507.17733      0.45244133E-068
     3510.95493      0.24188076E-070
     3514.73253      0.11842837E-072
     3518.51013      0.53103786E-075
     3522.28773      0.21807735E-077
     3526.06533      0.82018344E-080
     3529.84292      0.28250541E-082
     3533.62052      0.89117372E-085
     3537.39812      0.60232692E-087
     3541.17572      0.11809473E-084
     3544.95332      0.37035311E-082
     3548.73092      0.10637011E-079
     3552.50852      0.27979432E-077
     3556.28612      0.67402175E-075
     3560.06371      0.14870471E-072
     3563.84131      0.30046328E-070
     3567.61891      0.55599907E-068
     3571.39651      0.94226442E-066
     3575.17411      0.14624725E-063
     3578.95171      0.20788301E-061
     3582.72931      0.27062430E-059
     3586.50691      0.32264972E-057
     3590.28451      0.35230010E-055
     3594.06210      0.35229904E-053
     3597.83970      0.32264707E-051
     3601.61730      0.27062126E-049
     3605.39490      0.20788085E-047
     3609.17250      0.14624666E-045
     3612.95010      0.94227344E-044
     3616.72770      0.55601711E-042
     3620.50530      0.30048336E-040
     3624.28289      0.14872184E-038
     3628.06049      0.67414334E-037
     3631.83809      0.27986867E-035
     3635.61569      0.10640999E-033
     3639.39329      0.37054289E-032
     3643.17089      0.11817474E-030
     3646.94849      0.34517826E-029
     3650.72609      0.92341684E-028
     3654.50368      0.22625134E-026
     3658.28128      0.50772387E-025
     3662.05888      0.10435464E-023
     3665.83648      0.19644875E-022
     3669.61408      0.33872443E-021
     3673.39168      0.53494735E-020
     3677.16928      0.77384086E-019
     3680.94688      0.10253653E-017
     3684.72448      0.12445259E-016
     3688.50207      0.13836989E-015
     3692.27967      0.14093142E-014
     3696.05727      0.13149873E-013
     3699.83487      0.11240997E-012
     3703.61247      0.88040629E-012
     3707.39007      0.63180941E-011
     3711.16767      0.41547788E-010
     3714.94527      0.25038488E-009
     3718.72286      0.13829680E-008
     3722.50046      0.70018403E-008
     3726.27806      0.32498855E-007
     3730.05566      0.13830814E-006
     3733.83326      0.53979453E-006
     3737.61086      0.19324013E-005
     3741.38846      0.63467581E-005
     3745.16606      0.19129385E-004
     3748.94365      0.52925436E-004
     3752.72125      0.13445389E-003
     3756.49885      0.31373961E-003
     3760.27645      0.67267215E-003
     3764.05405      0.13256661E-002
     3767.83165      0.24022871E-002
     3771.60925      0.40044291E-002
     3775.38685      0.61424759E-002
     3779.16445      0.86733749E-002
     3782.94204      0.11277593E-001
     3786.71964      0.13506783E-001
     3790.49724      0.14903729E-001
     3794.27484      0.15153678E-001
     3798.05244      0.14199186E-001
     3801.83004      0.12261503E-001
     3805.60764      0.97578172E-002
     3809.38524      0.71566886E-002
     3813.16283      0.48401464E-002
     3816.94043      0.30268201E-002
     3820.71803      0.17708114E-002
     3824.49563      0.10137419E-002
     3828.27323      0.65229311E-003
     3832.05083      0.59163376E-003
     3835.82843      0.77404245E-003
     3839.60603      0.11879468E-002
     3843.38362      0.18678844E-002
     3847.16122      0.28902591E-002
     3850.93882      0.43588132E-002
     3854.71642      0.63673578E-002
     3858.49402      0.89354658E-002
     3862.27162      0.11936672E-001
     3866.04922      0.15063201E-001
     3869.82682      0.17871147E-001
     3873.60442      0.19911759E-001
     3877.38201      0.20896406E-001
     3881.15961      0.20808486E-001
     3884.93721      0.19898212E-001
     3888.71481      0.18564966E-001
     3892.49241      0.17196705E-001
     3896.27001      0.16050224E-001
     3900.04761      0.15216283E-001
     3903.82521      0.14656842E-001
     3907.60280      0.14269489E-001
     3911.38040      0.13939831E-001
     3915.15800      0.13568797E-001
     3918.93560      0.13083110E-001
     3922.71320      0.12440758E-001
     3926.49080      0.11634490E-001
     3930.26840      0.10688391E-001
     3934.04600      0.96443184E-002
     3937.82359      0.85438640E-002
     3941.60119      0.74174852E-002
     3945.37879      0.62882792E-002
     3949.15639      0.51861288E-002
     3952.93399      0.41590205E-002
     3956.71159      0.32702344E-002
     3960.48919      0.25811545E-002
     3964.26679      0.21301718E-002
     3968.04439      0.19201569E-002
     3971.82198      0.19198385E-002
     3975.59958      0.20749199E-002
     3979.37718      0.23204599E-002
     3983.15478      0.25891729E-002
     3986.93238      0.28167634E-002
     3990.70998      0.29487575E-002
     3994.48758      0.29505354E-002
     3998.26518      0.28164191E-002
     4002.04277      0.25709043E-002
     4005.82037      0.22587695E-002
     4009.59797      0.19280963E-002
     4013.37557      0.16149412E-002
     4017.15317      0.13367401E-002
     4020.93077      0.10953508E-002
     4024.70837      0.88513866E-003
     4028.48597      0.70029922E-003
     4032.26356      0.53823122E-003
     4036.04116      0.39919999E-003
     4039.81876      0.28433301E-003
     4043.59636      0.19382224E-003
     4047.37396      0.12614848E-003
     4051.15156      0.78249603E-004
     4054.92916      0.46190027E-004
     4058.70676      0.25908609E-004
     4062.48436      0.13786630E-004
     4066.26195      0.69458212E-005
     4070.03955      0.33051280E-005
     4073.81715      0.14818949E-005
     4077.59475      0.62814236E-006
     4081.37235      0.27024194E-006
     4085.14995      0.19912024E-006
     4088.92755      0.46411309E-006
     4092.70515      0.15848817E-005
     4096.48274      0.52451543E-005
     4100.26034      0.15978952E-004
     4104.03794      0.44601386E-004
     4107.81554      0.11401998E-003
     4111.59314      0.26695032E-003
     4115.37074      0.57239442E-003
     4119.14834      0.11240243E-002
     4122.92594      0.20214889E-002
     4126.70353      0.33295255E-002
     4130.48113      0.50223697E-002
     4134.25873      0.69382565E-002
     4138.03633      0.87782383E-002
     4141.81393      0.10171376E-001
     4145.59153      0.10793627E-001
     4149.36913      0.10489879E-001
     4153.14673      0.93366020E-002
     4156.92433      0.76106643E-002
     4160.70192      0.56816128E-002
     4164.47952      0.38845081E-002
     4168.25712      0.24322924E-002
     4172.03472      0.13947966E-002
     4175.81232      0.73252305E-003
     4179.58992      0.35232793E-003
     4183.36752      0.15519874E-003
     4187.14512      0.62610134E-004
     4190.92271      0.23132173E-004
     4194.70031      0.78271482E-005
     4198.47791      0.24255266E-005
     4202.25551      0.68837304E-006
     4206.03311      0.17891923E-006
     4209.81071      0.42589791E-007
     4213.58831      0.92847316E-008
     4217.36591      0.18537388E-008
     4221.14350      0.33895579E-009
     4224.92110      0.56761377E-010
     4228.69870      0.87051875E-011
     4232.47630      0.12226965E-011
     4236.25390      0.15728039E-012
