      528.24940      0.29672173E-005
      528.42940      0.29062826E-005
      528.60940      0.28460733E-005
      528.78940      0.27865997E-005
      528.96940      0.27278712E-005
      529.14940      0.26698968E-005
      529.32940      0.26126848E-005
      529.50940      0.25562432E-005
      529.68940      0.25005792E-005
      529.86940      0.24456998E-005
      530.04940      0.23916112E-005
      530.22940      0.23383193E-005
      530.40940      0.22858295E-005
      530.58940      0.22341465E-005
      530.76940      0.21832749E-005
      530.94940      0.21332185E-005
      531.12940      0.20839810E-005
      531.30940      0.20355654E-005
      531.48940      0.19879743E-005
      531.66940      0.19412101E-005
      531.84940      0.18952747E-005
      532.02940      0.18501696E-005
      532.20940      0.18058960E-005
      532.38940      0.17624547E-005
      532.56940      0.17198462E-005
      532.74940      0.16780706E-005
      532.92940      0.16371280E-005
      533.10940      0.15970178E-005
      533.28940      0.15577395E-005
      533.46940      0.15192921E-005
      533.64940      0.14816744E-005
      533.82940      0.14448850E-005
      534.00940      0.14089224E-005
      534.18940      0.13737848E-005
      534.36940      0.13394702E-005
      534.54940      0.13059766E-005
      534.72940      0.12733016E-005
      534.90940      0.12414428E-005
      535.08940      0.12103978E-005
      535.26940      0.11801640E-005
      535.44940      0.11507386E-005
      535.62940      0.11221189E-005
      535.80940      0.10943021E-005
      535.98940      0.10672854E-005
      536.16940      0.10410659E-005
      536.34940      0.10156407E-005
      536.52940      0.99100695E-006
      536.70940      0.96716183E-006
      536.88940      0.94410252E-006
      537.06940      0.92182628E-006
      537.24940      0.90033041E-006
      537.42940      0.87961232E-006
      537.60940      0.85966949E-006
      537.78940      0.84049951E-006
      537.96940      0.82210010E-006
      538.14940      0.80446911E-006
      538.32940      0.78760454E-006
      538.50940      0.77150453E-006
      538.68940      0.75616742E-006
      538.86940      0.74159170E-006
      539.04940      0.72777610E-006
      539.22940      0.71471950E-006
      539.40940      0.70242106E-006
      539.58940      0.69088010E-006
      539.76940      0.68009624E-006
      539.94940      0.67006932E-006
      540.12940      0.66079943E-006
      540.30940      0.65228695E-006
      540.48940      0.64453252E-006
      540.66940      0.63753708E-006
      540.84940      0.63130186E-006
      541.02940      0.62582839E-006
      541.20940      0.62111850E-006
      541.38940      0.61717436E-006
      541.56940      0.61399845E-006
      541.74940      0.61159357E-006
      541.92940      0.60996288E-006
      542.10940      0.60910987E-006
      542.28940      0.60903838E-006
      542.46940      0.60975260E-006
      542.64940      0.61125706E-006
      542.82940      0.61355668E-006
      543.00940      0.61665673E-006
      543.18940      0.62056284E-006
      543.36940      0.62528102E-006
      543.54940      0.63081763E-006
      543.72940      0.63717943E-006
      543.90940      0.64437353E-006
      544.08940      0.65240742E-006
      544.26940      0.66128897E-006
      544.44940      0.67102642E-006
      544.62940      0.68162838E-006
      544.80940      0.69310382E-006
      544.98940      0.70546210E-006
      545.16940      0.71871291E-006
      545.34940      0.73286635E-006
      545.52940      0.74793284E-006
      545.70940      0.76392316E-006
      545.88940      0.78084846E-006
      546.06940      0.79872022E-006
      546.24940      0.81755024E-006
      546.42940      0.83735068E-006
      546.60940      0.85813402E-006
      546.78940      0.87991303E-006
      546.96940      0.90270082E-006
      547.14940      0.92651079E-006
      547.32940      0.95135662E-006
      547.50940      0.97725228E-006
      547.68940      0.10042120E-005
      547.86940      0.10322503E-005
      548.04940      0.10613819E-005
      548.22940      0.10916218E-005
      548.40940      0.11229851E-005
      548.58940      0.11554873E-005
      548.76940      0.11891440E-005
      548.94940      0.12239710E-005
      549.12940      0.12599841E-005
      549.30940      0.12971995E-005
      549.48940      0.13356334E-005
      549.66940      0.13753022E-005
      549.84940      0.14162222E-005
      550.02940      0.14584100E-005
      550.20940      0.15018822E-005
      550.38940      0.15466552E-005
      550.56940      0.15927459E-005
      550.74940      0.16401708E-005
      550.92940      0.16889465E-005
      551.10940      0.17390895E-005
      551.28940      0.17906165E-005
      551.46940      0.18435437E-005
      551.64940      0.18978876E-005
      551.82940      0.19536642E-005
      552.00940      0.20108896E-005
      552.18940      0.20695797E-005
      552.36940      0.21297500E-005
      552.54940      0.21914160E-005
      552.72940      0.22545927E-005
      552.90940      0.23192952E-005
      553.08940      0.23855378E-005
      553.26940      0.24533349E-005
      553.44940      0.25227003E-005
      553.62940      0.25936474E-005
      553.80940      0.26661893E-005
      553.98940      0.27403386E-005
      554.16940      0.28161075E-005
      554.34940      0.28935075E-005
      554.52940      0.29725498E-005
      554.70940      0.30532449E-005
      554.88940      0.31356029E-005
      555.06940      0.32196329E-005
      555.24940      0.33053438E-005
      555.42940      0.33927436E-005
      555.60940      0.34818396E-005
      555.78940      0.35726384E-005
      555.96940      0.36651459E-005
      556.14940      0.37593672E-005
      556.32940      0.38553064E-005
      556.50940      0.39529671E-005
      556.68940      0.40523517E-005
      556.86940      0.41534619E-005
      557.04940      0.42562985E-005
      557.22940      0.43608611E-005
      557.40940      0.44671487E-005
      557.58940      0.45751590E-005
      557.76940      0.46848888E-005
      557.94940      0.47963338E-005
      558.12940      0.49094887E-005
      558.30940      0.50243470E-005
      558.48940      0.51409011E-005
      558.66940      0.52591423E-005
      558.84940      0.53790606E-005
      559.02940      0.55006452E-005
      559.20940      0.56238835E-005
      559.38940      0.57487622E-005
      559.56940      0.58752664E-005
      559.74940      0.60033801E-005
      559.92940      0.61330861E-005
      560.10940      0.62643657E-005
      560.28940      0.63971989E-005
      560.46940      0.65315647E-005
      560.64940      0.66674403E-005
      560.82940      0.68048018E-005
      561.00940      0.69436241E-005
      561.18940      0.70838804E-005
      561.36940      0.72255427E-005
      561.54940      0.73685816E-005
      561.72940      0.75129664E-005
      561.90940      0.76586648E-005
      562.08940      0.78056434E-005
      562.26940      0.79538671E-005
      562.44940      0.81032996E-005
      562.62940      0.82539032E-005
      562.80940      0.84056387E-005
      562.98940      0.85584658E-005
      563.16940      0.87123425E-005
      563.34940      0.88672256E-005
      563.52940      0.90230705E-005
      563.70940      0.91798314E-005
      563.88940      0.93374609E-005
      564.06940      0.94959106E-005
      564.24940      0.96551305E-005
      564.42940      0.98150696E-005
      564.60940      0.99756754E-005
      564.78940      0.10136894E-004
      564.96940      0.10298672E-004
      565.14940      0.10460951E-004
      565.32940      0.10623676E-004
      565.50940      0.10786787E-004
      565.68940      0.10950226E-004
      565.86940      0.11113931E-004
      566.04940      0.11277842E-004
      566.22940      0.11441896E-004
      566.40940      0.11606028E-004
      566.58940      0.11770176E-004
      566.76940      0.11934273E-004
      566.94940      0.12098253E-004
      567.12940      0.12262050E-004
      567.30940      0.12425595E-004
      567.48940      0.12588820E-004
      567.66940      0.12751656E-004
      567.84940      0.12914034E-004
      568.02940      0.13075882E-004
      568.20940      0.13237129E-004
      568.38940      0.13397706E-004
      568.56940      0.13557539E-004
      568.74940      0.13716557E-004
      568.92940      0.13874687E-004
      569.10940      0.14031857E-004
      569.28940      0.14187993E-004
      569.46940      0.14343023E-004
      569.64940      0.14496873E-004
      569.82940      0.14649471E-004
      570.00940      0.14800743E-004
      570.18940      0.14950616E-004
      570.36940      0.15099018E-004
      570.54940      0.15245875E-004
      570.72940      0.15391116E-004
      570.90940      0.15534669E-004
      571.08940      0.15676462E-004
      571.26940      0.15816424E-004
      571.44940      0.15954485E-004
      571.62940      0.16090574E-004
      571.80940      0.16224623E-004
      571.98940      0.16356562E-004
      572.16940      0.16486325E-004
      572.34940      0.16613845E-004
      572.52940      0.16739056E-004
      572.70940      0.16861892E-004
      572.88940      0.16982290E-004
      573.06940      0.17100188E-004
      573.24940      0.17215524E-004
      573.42940      0.17328237E-004
      573.60940      0.17438270E-004
      573.78940      0.17545563E-004
      573.96940      0.17650061E-004
      574.14940      0.17751710E-004
      574.32940      0.17850456E-004
      574.50940      0.17946248E-004
      574.68940      0.18039036E-004
      574.86940      0.18128772E-004
      575.04940      0.18215409E-004
      575.22940      0.18298903E-004
      575.40940      0.18379212E-004
      575.58940      0.18456294E-004
      575.76940      0.18530110E-004
      575.94940      0.18600624E-004
      576.12940      0.18667802E-004
      576.30940      0.18731610E-004
      576.48940      0.18792017E-004
      576.66940      0.18848996E-004
      576.84940      0.18902520E-004
      577.02940      0.18952566E-004
      577.20940      0.18999111E-004
      577.38940      0.19042137E-004
      577.56940      0.19081625E-004
      577.74940      0.19117563E-004
      577.92940      0.19149936E-004
      578.10940      0.19178736E-004
      578.28940      0.19203955E-004
      578.46940      0.19225587E-004
      578.64940      0.19243631E-004
      578.82940      0.19258085E-004
      579.00940      0.19268953E-004
      579.18940      0.19276240E-004
      579.36940      0.19279951E-004
      579.54940      0.19280098E-004
      579.72940      0.19276693E-004
      579.90940      0.19269749E-004
      580.08940      0.19259286E-004
      580.26940      0.19245322E-004
      580.44940      0.19227879E-004
      580.62940      0.19206982E-004
      580.80940      0.19182659E-004
      580.98940      0.19154938E-004
      581.16940      0.19123852E-004
      581.34940      0.19089435E-004
      581.52940      0.19051724E-004
      581.70940      0.19010758E-004
      581.88940      0.18966577E-004
      582.06940      0.18919227E-004
      582.24940      0.18868752E-004
      582.42940      0.18815201E-004
      582.60940      0.18758624E-004
      582.78940      0.18699074E-004
      582.96940      0.18636604E-004
      583.14940      0.18571272E-004
      583.32940      0.18503137E-004
      583.50940      0.18432258E-004
      583.68940      0.18358699E-004
      583.86940      0.18282523E-004
      584.04940      0.18203797E-004
      584.22940      0.18122589E-004
      584.40940      0.18038968E-004
      584.58940      0.17953007E-004
      584.76940      0.17864777E-004
      584.94940      0.17774354E-004
      585.12940      0.17681813E-004
      585.30940      0.17587232E-004
      585.48940      0.17490689E-004
      585.66940      0.17392264E-004
      585.84940      0.17292040E-004
      586.02940      0.17190097E-004
      586.20940      0.17086521E-004
      586.38940      0.16981394E-004
      586.56940      0.16874803E-004
      586.74940      0.16766834E-004
      586.92940      0.16657575E-004
      587.10940      0.16547113E-004
      587.28940      0.16435537E-004
      587.46940      0.16322935E-004
      587.64940      0.16209399E-004
      587.82940      0.16095018E-004
      588.00940      0.15979882E-004
      588.18940      0.15864082E-004
      588.36940      0.15747711E-004
      588.54940      0.15630858E-004
      588.72940      0.15513615E-004
      588.90940      0.15396074E-004
      589.08940      0.15278326E-004
      589.26940      0.15160462E-004
      589.44940      0.15042573E-004
      589.62940      0.14924751E-004
      589.80940      0.14807084E-004
      589.98940      0.14689664E-004
      590.16940      0.14572579E-004
      590.34940      0.14455918E-004
      590.52940      0.14339771E-004
      590.70940      0.14224224E-004
      590.88940      0.14109364E-004
      591.06940      0.13995277E-004
      591.24940      0.13882049E-004
      591.42940      0.13769763E-004
      591.60940      0.13658502E-004
      591.78940      0.13548349E-004
      591.96940      0.13439383E-004
      592.14940      0.13331686E-004
      592.32940      0.13225335E-004
      592.50940      0.13120407E-004
      592.68940      0.13016977E-004
      592.86940      0.12915121E-004
      593.04940      0.12814909E-004
      593.22940      0.12716415E-004
      593.40940      0.12619706E-004
      593.58940      0.12524852E-004
      593.76940      0.12431917E-004
      593.94940      0.12340966E-004
      594.12940      0.12252063E-004
      594.30940      0.12165267E-004
      594.48940      0.12080637E-004
      594.66940      0.11998230E-004
      594.84940      0.11918101E-004
      595.02940      0.11840303E-004
      595.20940      0.11764886E-004
      595.38940      0.11691900E-004
      595.56940      0.11621391E-004
      595.74940      0.11553404E-004
      595.92940      0.11487980E-004
      596.10940      0.11425160E-004
      596.28940      0.11364981E-004
      596.46940      0.11307480E-004
      596.64940      0.11252690E-004
      596.82940      0.11200641E-004
      597.00940      0.11151362E-004
      597.18940      0.11104880E-004
      597.36940      0.11061218E-004
      597.54940      0.11020399E-004
      597.72940      0.10982441E-004
      597.90940      0.10947361E-004
      598.08940      0.10915175E-004
      598.26940      0.10885893E-004
      598.44940      0.10859525E-004
      598.62940      0.10836080E-004
      598.80940      0.10815561E-004
      598.98940      0.10797971E-004
      599.16940      0.10783310E-004
      599.34940      0.10771576E-004
      599.52940      0.10762764E-004
      599.70940      0.10756866E-004
      599.88940      0.10753874E-004
      600.06940      0.10753775E-004
      600.24940      0.10756554E-004
      600.42940      0.10762197E-004
      600.60940      0.10770683E-004
      600.78940      0.10781991E-004
      600.96940      0.10796097E-004
      601.14940      0.10812977E-004
      601.32940      0.10832602E-004
      601.50940      0.10854941E-004
      601.68940      0.10879963E-004
      601.86940      0.10907633E-004
      602.04940      0.10937913E-004
      602.22940      0.10970766E-004
      602.40940      0.11006150E-004
      602.58940      0.11044023E-004
      602.76940      0.11084340E-004
      602.94940      0.11127053E-004
      603.12940      0.11172114E-004
      603.30940      0.11219473E-004
      603.48940      0.11269077E-004
      603.66940      0.11320871E-004
      603.84940      0.11374800E-004
      604.02940      0.11430806E-004
      604.20940      0.11488830E-004
      604.38940      0.11548811E-004
      604.56940      0.11610686E-004
      604.74940      0.11674391E-004
      604.92940      0.11739861E-004
      605.10940      0.11807029E-004
      605.28940      0.11875826E-004
      605.46940      0.11946184E-004
      605.64940      0.12018031E-004
      605.82940      0.12091295E-004
      606.00940      0.12165905E-004
      606.18940      0.12241784E-004
      606.36940      0.12318859E-004
      606.54940      0.12397053E-004
      606.72940      0.12476289E-004
      606.90940      0.12556490E-004
      607.08940      0.12637578E-004
      607.26940      0.12719472E-004
      607.44940      0.12802093E-004
      607.62940      0.12885361E-004
      607.80940      0.12969195E-004
      607.98940      0.13053513E-004
      608.16940      0.13138235E-004
      608.34940      0.13223277E-004
      608.52940      0.13308558E-004
      608.70940      0.13393995E-004
      608.88940      0.13479505E-004
      609.06940      0.13565007E-004
      609.24940      0.13650418E-004
      609.42940      0.13735655E-004
      609.60940      0.13820636E-004
      609.78940      0.13905279E-004
      609.96940      0.13989502E-004
      610.14940      0.14073223E-004
      610.32940      0.14156363E-004
      610.50940      0.14238840E-004
      610.68940      0.14320574E-004
      610.86940      0.14401486E-004
      611.04940      0.14481497E-004
      611.22940      0.14560530E-004
      611.40940      0.14638506E-004
      611.58940      0.14715351E-004
      611.76940      0.14790989E-004
      611.94940      0.14865345E-004
      612.12940      0.14938345E-004
      612.30940      0.15009919E-004
      612.48940      0.15079994E-004
      612.66940      0.15148501E-004
      612.84940      0.15215371E-004
      613.02940      0.15280537E-004
      613.20940      0.15343933E-004
      613.38940      0.15405495E-004
      613.56940      0.15465159E-004
      613.74940      0.15522864E-004
      613.92940      0.15578551E-004
      614.10940      0.15632160E-004
      614.28940      0.15683635E-004
      614.46940      0.15732921E-004
      614.64940      0.15779965E-004
      614.82940      0.15824715E-004
      615.00940      0.15867123E-004
      615.18940      0.15907139E-004
      615.36940      0.15944718E-004
      615.54940      0.15979816E-004
      615.72940      0.16012391E-004
      615.90940      0.16042403E-004
      616.08940      0.16069813E-004
      616.26940      0.16094586E-004
      616.44940      0.16116688E-004
      616.62940      0.16136086E-004
      616.80940      0.16152751E-004
      616.98940      0.16166655E-004
      617.16940      0.16177772E-004
      617.34940      0.16186079E-004
      617.52940      0.16191554E-004
      617.70940      0.16194178E-004
      617.88940      0.16193934E-004
      618.06940      0.16190807E-004
      618.24940      0.16184783E-004
      618.42940      0.16175854E-004
      618.60940      0.16164009E-004
      618.78940      0.16149242E-004
      618.96940      0.16131550E-004
      619.14940      0.16110930E-004
      619.32940      0.16087383E-004
      619.50940      0.16060910E-004
      619.68940      0.16031516E-004
      619.86940      0.15999207E-004
      620.04940      0.15963991E-004
      620.22940      0.15925880E-004
      620.40940      0.15884885E-004
      620.58940      0.15841022E-004
      620.76940      0.15794306E-004
      620.94940      0.15744756E-004
      621.12940      0.15692393E-004
      621.30940      0.15637239E-004
      621.48940      0.15579317E-004
      621.66940      0.15518654E-004
      621.84940      0.15455278E-004
      622.02940      0.15389218E-004
      622.20940      0.15320506E-004
      622.38940      0.15249174E-004
      622.56940      0.15175256E-004
      622.74940      0.15098790E-004
      622.92940      0.15019813E-004
      623.10940      0.14938363E-004
      623.28940      0.14854482E-004
      623.46940      0.14768212E-004
      623.64940      0.14679597E-004
      623.82940      0.14588680E-004
      624.00940      0.14495509E-004
      624.18940      0.14400130E-004
      624.36940      0.14302593E-004
      624.54940      0.14202945E-004
      624.72940      0.14101240E-004
      624.90940      0.13997527E-004
      625.08940      0.13891860E-004
      625.26940      0.13784292E-004
      625.44940      0.13674877E-004
      625.62940      0.13563672E-004
      625.80940      0.13450731E-004
      625.98940      0.13336112E-004
      626.16940      0.13219871E-004
      626.34940      0.13102067E-004
      626.52940      0.12982758E-004
      626.70940      0.12862004E-004
      626.88940      0.12739862E-004
      627.06940      0.12616393E-004
      627.24940      0.12491657E-004
      627.42940      0.12365714E-004
      627.60940      0.12238625E-004
      627.78940      0.12110449E-004
      627.96940      0.11981249E-004
      628.14940      0.11851083E-004
      628.32940      0.11720014E-004
      628.50940      0.11588101E-004
      628.68940      0.11455406E-004
      628.86940      0.11321988E-004
      629.04940      0.11187908E-004
      629.22940      0.11053226E-004
      629.40940      0.10918001E-004
      629.58940      0.10782293E-004
      629.76940      0.10646160E-004
      629.94940      0.10509660E-004
      630.12940      0.10372853E-004
      630.30940      0.10235794E-004
      630.48940      0.10098542E-004
      630.66940      0.99611518E-005
      630.84940      0.98236796E-005
      631.02940      0.96861803E-005
      631.20940      0.95487080E-005
      631.38940      0.94113162E-005
      631.56940      0.92740577E-005
      631.74940      0.91369843E-005
      631.92940      0.90001472E-005
      632.10940      0.88635963E-005
      632.28940      0.87273811E-005
      632.46940      0.85915499E-005
      632.64940      0.84561501E-005
      632.82940      0.83212281E-005
      633.00940      0.81868293E-005
      633.18940      0.80529981E-005
      633.36940      0.79197779E-005
      633.54940      0.77872109E-005
      633.72940      0.76553386E-005
      633.90940      0.75242008E-005
      634.08940      0.73938368E-005
      634.26940      0.72642844E-005
      634.44940      0.71355805E-005
      634.62940      0.70077606E-005
      634.80940      0.68808594E-005
      634.98940      0.67549100E-005
      635.16940      0.66299449E-005
      635.34940      0.65059949E-005
      635.52940      0.63830899E-005
      635.70940      0.62612587E-005
      635.88940      0.61405288E-005
      636.06940      0.60209264E-005
      636.24940      0.59024769E-005
      636.42940      0.57852041E-005
      636.60940      0.56691310E-005
      636.78940      0.55542792E-005
      636.96940      0.54406692E-005
      637.14940      0.53283205E-005
      637.32940      0.52172513E-005
      637.50940      0.51074787E-005
      637.68940      0.49990186E-005
      637.86940      0.48918861E-005
      638.04940      0.47860948E-005
      638.22940      0.46816575E-005
      638.40940      0.45785857E-005
      638.58940      0.44768901E-005
      638.76940      0.43765802E-005
      638.94940      0.42776644E-005
      639.12940      0.41801502E-005
      639.30940      0.40840442E-005
      639.48940      0.39893518E-005
      639.66940      0.38960776E-005
      639.84940      0.38042251E-005
      640.02940      0.37137971E-005
      640.20940      0.36247953E-005
      640.38940      0.35372206E-005
      640.56940      0.34510731E-005
      640.74940      0.33663519E-005
      640.92940      0.32830553E-005
      641.10940      0.32011810E-005
      641.28940      0.31207258E-005
      641.46940      0.30416856E-005
      641.64940      0.29640557E-005
      641.82940      0.28878308E-005
      642.00940      0.28130047E-005
      642.18940      0.27395707E-005
      642.36940      0.26675213E-005
      642.54940      0.25968484E-005
      642.72940      0.25275435E-005
      642.90940      0.24595972E-005
      643.08940      0.23929999E-005
      643.26940      0.23277412E-005
      643.44940      0.22638104E-005
      643.62940      0.22011960E-005
      643.80940      0.21398863E-005
      643.98940      0.20798691E-005
      644.16940      0.20211318E-005
      644.34940      0.19636613E-005
      644.52940      0.19074442E-005
      644.70940      0.18524668E-005
      644.88940      0.17987150E-005
      645.06940      0.17461742E-005
      645.24940      0.16948299E-005
      645.42940      0.16446670E-005
      645.60940      0.15956703E-005
      645.78940      0.15478242E-005
      645.96940      0.15011132E-005
      646.14940      0.14555213E-005
      646.32940      0.14110324E-005
      646.50940      0.13676304E-005
      646.68940      0.13252988E-005
      646.86940      0.12840212E-005
      647.04940      0.12437808E-005
      647.22940      0.12045612E-005
      647.40940      0.11663454E-005
      647.58940      0.11291166E-005
      647.76940      0.10928580E-005
      647.94940      0.10575526E-005
      648.12940      0.10231835E-005
      648.30940      0.98973373E-006
      648.48940      0.95718645E-006
      648.66940      0.92552472E-006
      648.84940      0.89473168E-006
      649.02940      0.86479050E-006
      649.20940      0.83568444E-006
      649.38940      0.80739682E-006
      649.56940      0.77991102E-006
      649.74940      0.75321054E-006
      649.92940      0.72727897E-006
      650.10940      0.70210000E-006
      650.28940      0.67765747E-006
      650.46940      0.65393532E-006
      650.64940      0.63091763E-006
      650.82940      0.60858863E-006
      651.00940      0.58693272E-006
      651.18940      0.56593442E-006
      651.36940      0.54557845E-006
      651.54940      0.52584967E-006
      651.72940      0.50673315E-006
      651.90940      0.48821411E-006
      652.08940      0.47027799E-006
      652.26940      0.45291038E-006
      652.44940      0.43609711E-006
      652.62940      0.41982418E-006
      652.80940      0.40407780E-006
      652.98940      0.38884439E-006
      653.16940      0.37411058E-006
      653.34940      0.35986321E-006
      653.52940      0.34608934E-006
      653.70940      0.33277622E-006
      653.88940      0.31991136E-006
      654.06940      0.30748246E-006
      654.24940      0.29547744E-006
      654.42940      0.28388446E-006
      654.60940      0.27269188E-006
      654.78940      0.26188831E-006
      654.96940      0.25146255E-006
      655.14940      0.24140365E-006
      655.32940      0.23170086E-006
      655.50940      0.22234366E-006
      655.68940      0.21332177E-006
      655.86940      0.20462510E-006
      656.04940      0.19624380E-006
      656.22940      0.18816822E-006
      656.40940      0.18038894E-006
      656.58940      0.17289676E-006
      656.76940      0.16568268E-006
      656.94940      0.15873791E-006
      657.12940      0.15205388E-006
      657.30940      0.14562223E-006
      657.48940      0.13943479E-006
      657.66940      0.13348360E-006
      657.84940      0.12776091E-006
      658.02940      0.12225915E-006
      658.20940      0.11697096E-006
      658.38940      0.11188916E-006
      658.56940      0.10700678E-006
      658.74940      0.10231703E-006
      658.92940      0.97813275E-007
      659.10940      0.93489105E-007
      659.28940      0.89338263E-007
      659.46940      0.85354675E-007
      659.64940      0.81532437E-007
      659.82940      0.77865816E-007
      660.00940      0.74349245E-007
      660.18940      0.70977318E-007
      660.36940      0.67744791E-007
      660.54940      0.64646578E-007
      660.72940      0.61677743E-007
      660.90940      0.58833504E-007
      661.08940      0.56109223E-007
      661.26940      0.53500409E-007
      661.44940      0.51002709E-007
      661.62940      0.48611912E-007
      661.80940      0.46323936E-007
      661.98940      0.44134836E-007
      662.16940      0.42040791E-007
      662.34940      0.40038108E-007
      662.52940      0.38123215E-007
      662.70940      0.36292659E-007
      662.88940      0.34543105E-007
      663.06940      0.32871328E-007
      663.24940      0.31274216E-007
      663.42940      0.29748764E-007
      663.60940      0.28292069E-007
      663.78940      0.26901333E-007
      663.96940      0.25573855E-007
      664.14940      0.24307031E-007
      664.32940      0.23098348E-007
      664.50940      0.21945386E-007
      664.68940      0.20845813E-007
      664.86940      0.19797382E-007
      665.04940      0.18797928E-007
      665.22940      0.17845367E-007
      665.40940      0.16937696E-007
      665.58940      0.16072982E-007
      665.76940      0.15249369E-007
      665.94940      0.14465073E-007
      666.12940      0.13718375E-007
      666.30940      0.13007625E-007
      666.48940      0.12331237E-007
      666.66940      0.11687688E-007
      666.84940      0.11075513E-007
      667.02940      0.10493308E-007
      667.20940      0.99397229E-008
      667.38940      0.94134635E-008
      667.56940      0.89132874E-008
      667.74940      0.84380031E-008
      667.92940      0.79864680E-008
      668.10940      0.75575866E-008
      668.28940      0.71503091E-008
      668.46940      0.67636293E-008
      668.64940      0.63965837E-008
      668.82940      0.60482492E-008
      669.00940      0.57177423E-008
      669.18940      0.54042169E-008
      669.36940      0.51068638E-008
      669.54940      0.48249085E-008
      669.72940      0.45576103E-008
      669.90940      0.43042610E-008
      670.08940      0.40641836E-008
      670.26940      0.38367309E-008
      670.44940      0.36212846E-008
      670.62940      0.34172542E-008
      670.80940      0.32240756E-008
      670.98940      0.30412103E-008
      671.16940      0.28681442E-008
      671.34940      0.27043869E-008
      671.52940      0.25494703E-008
      671.70940      0.24029482E-008
      671.88940      0.22643949E-008
      672.06940      0.21334045E-008
      672.24940      0.20095905E-008
      672.42940      0.18925843E-008
      672.60940      0.17820348E-008
      672.78940      0.16776079E-008
      672.96940      0.15789851E-008
      673.14940      0.14858635E-008
      673.32940      0.13979546E-008
      673.50940      0.13149843E-008
      673.68940      0.12366914E-008
      673.86940      0.11628279E-008
      674.04940      0.10931577E-008
      674.22940      0.10274567E-008
      674.40940      0.96551162E-009
      674.58940      0.90712014E-009
      674.76940      0.85208989E-009
      674.94940      0.80023827E-009
      675.12940      0.75139193E-009
      675.30940      0.70538633E-009
      675.48940      0.66206535E-009
      675.66940      0.62128087E-009
      675.84940      0.58289241E-009
      676.02940      0.54676679E-009
      676.20940      0.51277774E-009
      676.38940      0.48080557E-009
      676.56940      0.45073692E-009
      676.74940      0.42246436E-009
      676.92940      0.39588616E-009
      677.10940      0.37090600E-009
      677.28940      0.34743272E-009
      677.46940      0.32538001E-009
      677.64940      0.30466623E-009
      677.82940      0.28521416E-009
      678.00940      0.26695075E-009
      678.18940      0.24980695E-009
      678.36940      0.23371748E-009
      678.54940      0.21862064E-009
      678.72940      0.20445816E-009
      678.90940      0.19117497E-009
      679.08940      0.17871907E-009
      679.26940      0.16704139E-009
      679.44940      0.15609557E-009
      679.62940      0.14583789E-009
      679.80940      0.13622709E-009
      679.98940      0.12722424E-009
      680.16940      0.11879265E-009
      680.34940      0.11089771E-009
      680.52940      0.10350680E-009
      680.70940      0.96589188E-010
      680.88940      0.90115902E-010
      681.06940      0.84059665E-010
      681.24940      0.78394786E-010
      681.42940      0.73097077E-010
      681.60940      0.68143767E-010
      681.78940      0.63513431E-010
      681.96940      0.59185908E-010
      682.14940      0.55142234E-010
      682.32940      0.51364575E-010
      682.50940      0.47836164E-010
      682.68940      0.44541240E-010
      682.86940      0.41464989E-010
      683.04940      0.38593495E-010
      683.22940      0.35913685E-010
      683.40940      0.33413282E-010
      683.58940      0.31080758E-010
      683.76940      0.28905293E-010
      683.94940      0.26876732E-010
      684.12940      0.24985545E-010
      684.30940      0.23222796E-010
      684.48940      0.21580102E-010
      684.66940      0.20049603E-010
      684.84940      0.18623932E-010
      685.02940      0.17296183E-010
      685.20940      0.16059887E-010
      685.38940      0.14908982E-010
      685.56940      0.13837791E-010
      685.74940      0.12841001E-010
      685.92940      0.11913635E-010
      686.10940      0.11051037E-010
      686.28940      0.10248848E-010
      686.46940      0.95029919E-011
      686.64940      0.88096567E-011
      686.82940      0.81652768E-011
      687.00940      0.75665193E-011
      687.18940      0.70102690E-011
      687.36940      0.64936148E-011
      687.54940      0.60138371E-011
      687.72940      0.55683959E-011
      687.90940      0.51549191E-011
      688.08940      0.47711922E-011
      688.26940      0.44151480E-011
      688.44940      0.40848576E-011
      688.62940      0.37785214E-011
      688.80940      0.34944606E-011
      688.98940      0.32311098E-011
      689.16940      0.29870094E-011
      689.34940      0.27607989E-011
      689.52940      0.25512103E-011
      689.70940      0.23570621E-011
      689.88940      0.21772541E-011
      690.06940      0.20107613E-011
      690.24940      0.18566293E-011
      690.42940      0.17139699E-011
      690.60940      0.15819564E-011
      690.78940      0.14598193E-011
      690.96940      0.13468431E-011
      691.14940      0.12423622E-011
      691.32940      0.11457576E-011
      691.50940      0.10564539E-011
      691.68940      0.97391637E-012
      691.86940      0.89764804E-012
      692.04940      0.82718722E-012
      692.22940      0.76210506E-012
      692.40940      0.70200334E-012
      692.58940      0.64651233E-012
      692.76940      0.59528886E-012
      692.94940      0.54801443E-012
      693.12940      0.50439357E-012
      693.30940      0.46415218E-012
      693.48940      0.42703606E-012
      693.66940      0.39280952E-012
      693.84940      0.36125408E-012
      694.02940      0.33216726E-012
      694.20940      0.30536144E-012
      694.38940      0.28066281E-012
      694.56940      0.25791039E-012
      694.74940      0.23695513E-012
      694.92940      0.21765903E-012
      695.10940      0.19989438E-012
      695.28940      0.18354297E-012
      695.46940      0.16849548E-012
      695.64940      0.15465076E-012
      695.82940      0.14191528E-012
      696.00940      0.13020257E-012
      696.18940      0.11943270E-012
      696.36940      0.10953181E-012
      696.54940      0.10043164E-012
      696.72940      0.92069160E-013
      696.90940      0.84386136E-013
      697.08940      0.77328809E-013
      697.26940      0.70847551E-013
      697.44940      0.64896559E-013
      697.62940      0.59433568E-013
      697.80940      0.54419586E-013
      697.98940      0.49818652E-013
      698.16940      0.45597603E-013
      698.34940      0.41725866E-013
      698.52940      0.38175260E-013
      698.70940      0.34919817E-013
      698.88940      0.31935610E-013
      699.06940      0.29200600E-013
      699.24940      0.26694490E-013
      699.42940      0.24398594E-013
      699.60940      0.22295708E-013
      699.78940      0.20370000E-013
      699.96940      0.18606904E-013
      700.14940      0.16993017E-013
      700.32940      0.15516014E-013
      700.50940      0.14164562E-013
      700.68940      0.12928241E-013
      700.86940      0.11797474E-013
      701.04940      0.10763461E-013
      701.22940      0.98181151E-014
      701.40940      0.89540110E-014
      701.58940      0.81643277E-014
      701.76940      0.74428032E-014
      701.94940      0.67836892E-014
      702.12940      0.61817105E-014
      702.30940      0.56320263E-014
      702.48940      0.51301965E-014
      702.66940      0.46721484E-014
      702.84940      0.42541476E-014
      703.02940      0.38727707E-014
      703.20940      0.35248799E-014
      703.38940      0.32075996E-014
      703.56940      0.29182957E-014
      703.74940      0.26545551E-014
      703.92940      0.24141680E-014
      704.10940      0.21951113E-014
      704.28940      0.19955329E-014
      704.46940      0.18137380E-014
      704.64940      0.16481757E-014
      704.82940      0.14974274E-014
      705.00940      0.13601956E-014
      705.18940      0.12352937E-014
      705.36940      0.11216372E-014
      705.54940      0.10182347E-014
      705.72940      0.92418020E-015
      705.90940      0.83864612E-015
      706.08940      0.76087643E-015
      706.26940      0.69018072E-015
      706.44940      0.62592864E-015
      706.62940      0.56754476E-015
      706.80940      0.51450396E-015
      706.98940      0.46632707E-015
      707.16940      0.42257698E-015
      707.34940      0.38285502E-015
      707.52940      0.34679766E-015
      707.70940      0.31407349E-015
      707.88940      0.28438043E-015
      708.06940      0.25744320E-015
      708.24940      0.23301102E-015
