      538.61550      0.34397050E-004
      542.38803      0.33857211E-004
      546.16056      0.32509385E-004
      549.93309      0.29812085E-004
      553.70562      0.25831058E-004
      557.47815      0.21134107E-004
      561.25068      0.16543852E-004
      565.02321      0.12919055E-004
      568.79574      0.11074086E-004
      572.56826      0.11823621E-004
      576.34079      0.16027537E-004
      580.11332      0.24475494E-004
      583.88585      0.37529424E-004
      587.65838      0.54620932E-004
      591.43091      0.73892525E-004
      595.20344      0.92330383E-004
      598.97597      0.10654665E-003
      602.74850      0.11397523E-003
      606.52103      0.11389191E-003
      610.29356      0.10765405E-003
      614.06609      0.97966137E-004
      617.83862      0.87569275E-004
      621.61115      0.78102579E-004
      625.38368      0.69737712E-004
      629.15621      0.61663001E-004
      632.92873      0.52981326E-004
      636.70126      0.43426961E-004
      640.47379      0.33545415E-004
      644.24632      0.24379548E-004
      648.01885      0.16969763E-004
      651.79138      0.11975412E-004
      655.56391      0.95433167E-005
      659.33644      0.93675836E-005
      663.10897      0.10821916E-004
      666.88150      0.13094052E-004
      670.65403      0.15323743E-004
      674.42656      0.16764760E-004
      678.19909      0.16951313E-004
      681.97162      0.15803019E-004
      685.74415      0.13606108E-004
      689.51668      0.10868642E-004
      693.28921      0.81185576E-005
      697.06173      0.57403964E-005
      700.83426      0.39131297E-005
      704.60679      0.26483273E-005
      708.37932      0.18809455E-005
      712.15185      0.15569005E-005
      715.92438      0.16820439E-005
      719.69691      0.23219265E-005
      723.46944      0.35569727E-005
      727.24197      0.54070149E-005
      731.01450      0.77516806E-005
      734.78703      0.10287153E-004
      738.55956      0.12559519E-004
      742.33209      0.14085601E-004
      746.10462      0.14521081E-004
      749.87715      0.13795644E-004
      753.64968      0.12140629E-004
      757.42221      0.99906324E-005
      761.19473      0.78110921E-005
      764.96726      0.59407956E-005
      768.73979      0.45189398E-005
      772.51232      0.35102743E-005
      776.28485      0.27898856E-005
      780.05738      0.22311471E-005
      783.82991      0.17572980E-005
      787.60244      0.13486894E-005
      791.37497      0.10215599E-005
      795.14750      0.80026194E-006
      798.92003      0.69722140E-006
      802.69256      0.70411182E-006
      806.46509      0.79164947E-006
      810.23762      0.91510033E-006
      814.01015      0.10241795E-005
      817.78268      0.10758064E-005
      821.55521      0.10460010E-005
      825.32773      0.93587719E-006
      829.10026      0.76861330E-006
      832.87279      0.57879488E-006
      836.64532      0.39944323E-006
      840.41785      0.25258011E-006
      844.19038      0.14632177E-006
      847.96291      0.77653461E-007
      851.73544      0.37752257E-007
      855.50797      0.16813155E-007
      859.28050      0.68592498E-008
      863.05303      0.25634422E-008
      866.82556      0.87758481E-009
      870.59809      0.27521551E-009
      874.37062      0.79063261E-010
      878.14315      0.20806280E-010
      881.91568      0.50157083E-011
      885.68820      0.11076433E-011
      889.46073      0.22432384E-012
      893.23326      0.43529108E-013
      897.00579      0.20969859E-013
      900.77832      0.89488378E-013
      904.55085      0.51456393E-012
      908.32338      0.27442228E-011
      912.09591      0.13420995E-010
      915.86844      0.60181450E-010
      919.64097      0.24746064E-009
      923.41350      0.93320707E-009
      927.18603      0.32281126E-008
      930.95856      0.10244633E-007
      934.73109      0.29833743E-007
      938.50362      0.79740289E-007
      942.27615      0.19566360E-006
      946.04868      0.44087559E-006
      949.82120      0.91246223E-006
      953.59373      0.17351299E-005
      957.36626      0.30324771E-005
      961.13879      0.48724163E-005
      964.91132      0.71995533E-005
      968.68385      0.97861298E-005
      972.45638      0.12240076E-004
      976.22891      0.14090882E-004
      980.00144      0.14933872E-004
      983.77397      0.14573660E-004
      987.54650      0.13097514E-004
      991.31903      0.10841215E-004
      995.09156      0.82658641E-005
      998.86409      0.58079122E-005
     1002.63662      0.37702456E-005
     1006.40915      0.22918947E-005
     1010.18168      0.13932082E-005
     1013.95420      0.10672835E-005
     1017.72673      0.13836335E-005
     1021.49926      0.25740912E-005
     1025.27179      0.50682154E-005
     1029.04432      0.94355578E-005
     1032.81685      0.16196587E-004
     1036.58938      0.25511616E-004
     1040.36191      0.36850301E-004
     1044.13444      0.48831899E-004
     1047.90697      0.59419665E-004
     1051.67950      0.66498625E-004
     1055.45203      0.68625269E-004
     1059.22456      0.65577013E-004
     1062.99709      0.58396892E-004
     1066.76962      0.48910428E-004
     1070.54215      0.38995353E-004
     1074.31467      0.29993580E-004
     1078.08720      0.22508276E-004
     1081.85973      0.16563140E-004
     1085.63226      0.11916025E-004
     1089.40479      0.83129825E-005
     1093.17732      0.55892449E-005
     1096.94985      0.36489513E-005
     1100.72238      0.24056487E-005
     1104.49491      0.17432674E-005
     1108.26744      0.15119558E-005
     1112.03997      0.15456015E-005
     1115.81250      0.16853591E-005
     1119.58503      0.18014492E-005
     1123.35756      0.18100714E-005
     1127.13009      0.16815629E-005
     1130.90262      0.14356877E-005
     1134.67515      0.11241285E-005
     1138.44767      0.80660609E-006
     1142.22020      0.53026418E-006
     1145.99273      0.31938642E-006
     1149.76526      0.17637137E-006
     1153.53779      0.89709343E-007
     1157.31032      0.43290707E-007
     1161.08285      0.23275722E-007
     1164.85538      0.21621060E-007
     1168.62791      0.37171626E-007
     1172.40044      0.75395194E-007
     1176.17297      0.14694546E-006
     1179.94550      0.26433922E-006
     1183.71803      0.43609899E-006
     1187.49056      0.65917749E-006
     1191.26309      0.91274395E-006
     1195.03562      0.11577507E-005
     1198.80814      0.13452382E-005
     1202.58067      0.14318618E-005
     1206.35320      0.13961138E-005
     1210.12573      0.12469765E-005
     1213.89826      0.10202661E-005
     1217.67079      0.76469177E-006
     1221.44332      0.52502156E-006
     1225.21585      0.33020650E-006
     1228.98838      0.19024438E-006
     1232.76091      0.10040511E-006
     1236.53344      0.48541991E-007
     1240.30597      0.21497952E-007
     1244.07850      0.87215636E-008
     1247.85103      0.32412265E-008
     1251.62356      0.11034233E-008
     1255.39609      0.34410635E-009
     1259.16862      0.98301689E-010
     1262.94114      0.25724505E-010
     1266.71367      0.61666718E-011
     1270.48620      0.13541675E-011
     1274.25873      0.27240290E-012
     1278.03126      0.50196020E-013
     1281.80379      0.84736851E-014
     1285.57632      0.13153207E-014
     1289.34885      0.22858218E-015
     1293.12138      0.35451852E-015
     1296.89391      0.23292042E-014
     1300.66644      0.15003285E-013
     1304.43897      0.88634435E-013
     1308.21150      0.47967982E-012
     1311.98403      0.23781002E-011
     1315.75656      0.10800615E-010
     1319.52909      0.44939192E-010
     1323.30162      0.17131489E-009
     1327.07414      0.59844240E-009
     1330.84667      0.19161342E-008
     1334.61920      0.56263341E-008
     1338.39173      0.15164402E-007
     1342.16426      0.37580607E-007
     1345.93679      0.85896090E-007
     1349.70932      0.18205510E-006
     1353.48185      0.36109526E-006
     1357.25438      0.67991331E-006
     1361.02691      0.12395091E-005
     1364.79944      0.22353125E-005
     1368.57197      0.40475974E-005
     1372.34450      0.73600624E-005
     1376.11703      0.13243061E-004
     1379.88956      0.23078224E-004
     1383.66209      0.38189506E-004
     1387.43462      0.59150061E-004
     1391.20714      0.84965479E-004
     1394.97967      0.11257781E-003
     1398.75220      0.13717648E-003
     1402.52473      0.15348726E-003
     1406.29726      0.15763704E-003
     1410.06979      0.14873078E-003
     1413.84232      0.12930732E-003
     1417.61485      0.10441247E-003
     1421.38738      0.79766513E-004
     1425.15991      0.59911445E-004
     1428.93244      0.47084137E-004
     1432.70497      0.41075348E-004
     1436.47750      0.39874573E-004
     1440.25003      0.40692587E-004
     1444.02256      0.40970893E-004
     1447.79509      0.39097258E-004
     1451.56761      0.34674741E-004
     1455.34014      0.28338194E-004
     1459.11267      0.21266173E-004
     1462.88520      0.14633302E-004
     1466.65773      0.92274289E-005
     1470.43026      0.53309423E-005
     1474.20279      0.28214485E-005
     1477.97532      0.13679534E-005
     1481.74785      0.60760210E-006
     1485.52038      0.24738234E-006
     1489.29291      0.92897012E-007
     1493.06544      0.34233872E-007
     1496.83797      0.19024717E-007
     1500.61050      0.30622200E-007
     1504.38303      0.77814223E-007
     1508.15556      0.19589640E-006
     1511.92809      0.45531061E-006
     1515.70061      0.97013026E-006
     1519.47314      0.18936543E-005
     1523.24567      0.33860393E-005
     1527.01820      0.55462742E-005
     1530.79073      0.83220143E-005
     1534.56326      0.11438613E-004
     1538.33579      0.14402441E-004
     1542.10832      0.16611806E-004
     1545.88085      0.17551583E-004
     1549.65338      0.16987785E-004
     1553.42591      0.15062135E-004
     1557.19844      0.12234749E-004
     1560.97097      0.91068118E-005
     1564.74350      0.62168218E-005
     1568.51603      0.39038940E-005
     1572.28856      0.22785758E-005
     1576.06109      0.12793502E-005
     1579.83361      0.76115510E-006
     1583.60614      0.56965989E-006
     1587.37867      0.58367128E-006
     1591.15120      0.73440480E-006
     1594.92373      0.10215584E-005
     1598.69626      0.15413783E-005
     1602.46879      0.25259603E-005
     1606.24132      0.43716115E-005
     1610.01385      0.76154417E-005
     1613.78638      0.12817467E-004
     1617.55891      0.20336456E-004
     1621.33144      0.30053809E-004
     1625.10397      0.41171615E-004
     1628.87650      0.52231620E-004
     1632.64903      0.61426902E-004
     1636.42156      0.67127476E-004
     1640.19408      0.68406408E-004
     1643.96661      0.65333880E-004
     1647.73914      0.58924330E-004
     1651.51167      0.50796007E-004
     1655.28420      0.42718601E-004
     1659.05673      0.36226683E-004
     1662.82926      0.32396190E-004
     1666.60179      0.31792820E-004
     1670.37432      0.34557151E-004
     1674.14685      0.40590053E-004
     1677.91938      0.49800744E-004
     1681.69191      0.62335566E-004
     1685.46444      0.78628024E-004
     1689.23697      0.99088481E-004
     1693.00950      0.12339735E-003
     1696.78203      0.14968260E-003
     1700.55456      0.17415142E-003
     1704.32708      0.19170258E-003
     1708.09961      0.19754209E-003
     1711.87214      0.18912489E-003
     1715.64467      0.16737912E-003
     1719.41720      0.13648861E-003
     1723.18973      0.10233654E-003
     1726.96226      0.70458807E-004
     1730.73479      0.44509477E-004
     1734.50732      0.25784410E-004
     1738.27985      0.13693256E-004
     1742.05238      0.66651461E-005
     1745.82491      0.29730812E-005
     1749.59744      0.12152315E-005
     1753.36997      0.45513935E-006
     1757.14250      0.15621239E-006
     1760.91503      0.49256310E-007
     1764.68755      0.14825676E-007
     1768.46008      0.65181603E-008
     1772.23261      0.11334767E-007
     1776.00514      0.35992466E-007
     1779.77767      0.11253347E-006
     1783.55020      0.32388100E-006
     1787.32273      0.85416936E-006
     1791.09526      0.20636171E-005
     1794.86779      0.45670164E-005
     1798.64032      0.92587813E-005
     1802.41285      0.17194630E-004
     1806.18538      0.29251599E-004
     1809.95791      0.45585228E-004
     1813.73044      0.65075336E-004
     1817.50297      0.85099393E-004
     1821.27550      0.10194226E-003
     1825.04803      0.11186644E-003
     1828.82055      0.11245095E-003
     1832.59308      0.10354859E-003
     1836.36561      0.87346001E-004
     1840.13814      0.67493137E-004
     1843.91067      0.47774258E-004
     1847.68320      0.30977478E-004
     1851.45573      0.18399919E-004
     1855.22826      0.10011601E-004
     1859.00079      0.49900960E-005
     1862.77332      0.22784108E-005
     1866.54585      0.95295614E-006
     1870.31838      0.36511658E-006
     1874.09091      0.12814686E-006
     1877.86344      0.41200471E-007
     1881.63597      0.12134323E-007
     1885.40850      0.32740362E-008
     1889.18103      0.81100877E-009
     1892.95355      0.19454543E-009
     1896.72608      0.99416149E-010
     1900.49861      0.31111316E-009
     1904.27114      0.13784563E-008
     1908.04367      0.57174400E-008
     1911.81620      0.21741726E-007
     1915.58873      0.75738771E-007
     1919.36126      0.24169117E-006
     1923.13379      0.70651450E-006
     1926.90632      0.18919042E-005
     1930.67885      0.46408225E-005
     1934.45138      0.10428180E-004
     1938.22391      0.21465444E-004
     1941.99644      0.40475196E-004
     1945.76897      0.69912657E-004
     1949.54150      0.11062172E-003
     1953.31403      0.16034033E-003
     1957.08655      0.21289374E-003
     1960.85908      0.25894097E-003
     1964.63161      0.28850704E-003
     1968.40414      0.29446237E-003
     1972.17667      0.27530934E-003
     1975.94920      0.23579243E-003
     1979.72173      0.18499352E-003
     1983.49426      0.13295386E-003
     1987.26679      0.87531248E-004
     1991.03932      0.52788954E-004
     1994.81185      0.29163574E-004
     1998.58438      0.14758975E-004
     2002.35691      0.68420999E-005
     2006.12944      0.29056304E-005
     2009.90197      0.11303400E-005
     2013.67450      0.40280567E-006
     2017.44702      0.13149215E-006
     2021.21955      0.39320752E-007
     2024.99208      0.10771137E-007
     2028.76461      0.27028321E-008
     2032.53714      0.62128997E-009
     2036.30967      0.13082398E-009
     2040.08220      0.25234700E-010
     2043.85473      0.44588893E-011
     2047.62726      0.72172705E-012
     2051.39979      0.10701312E-012
     2055.17232      0.14535128E-013
     2058.94485      0.18084996E-014
     2062.71738      0.20612741E-015
     2066.48991      0.21521415E-016
     2070.26244      0.20583711E-017
     2074.03497      0.18034091E-018
     2077.80750      0.14473802E-019
     2081.58002      0.10641154E-020
     2085.35255      0.71665908E-022
     2089.12508      0.44213432E-023
     2092.89761      0.24986971E-024
     2096.67014      0.12935725E-025
     2100.44267      0.61345916E-027
     2104.21520      0.26650068E-028
     2107.98773      0.10605441E-029
     2111.76026      0.38661340E-031
     2115.53279      0.12910493E-032
     2119.30532      0.39493581E-034
     2123.07785      0.11066950E-035
     2126.85038      0.28408425E-037
     2130.62291      0.66801178E-039
     2134.39544      0.14389272E-040
     2138.16797      0.28393002E-042
     2141.94050      0.51321760E-044
     2145.71302      0.84978591E-046
     2149.48555      0.12889476E-047
     2153.25808      0.17909307E-049
     2157.03061      0.22795023E-051
     2160.80314      0.26577801E-053
     2164.57567      0.28386760E-055
     2168.34820      0.27773484E-057
     2172.12073      0.24892164E-059
     2175.89326      0.20436791E-061
     2179.66579      0.15370235E-063
     2183.43832      0.10589271E-065
     2187.21085      0.66829679E-068
     2190.98338      0.38635848E-070
     2194.75591      0.20461115E-072
     2198.52844      0.99262653E-075
     2202.30097      0.44112353E-077
     2206.07349      0.17957767E-079
     2209.84602      0.66967208E-082
     2213.61855      0.22876512E-084
     2217.39108      0.71587169E-087
     2221.16361      0.20520991E-089
     2224.93614      0.53886406E-092
     2228.70867      0.12962175E-094
     2232.48120      0.28562372E-097
     2236.25373      0.57653866E-100
     2240.02626      0.10660568E-102
     2243.79879      0.18057185E-105
     2247.57132      0.28018022E-108
     2251.34385      0.39823797E-111
     2255.11638      0.51852013E-114
     2258.88891      0.61845247E-117
     2262.66144      0.67571692E-120
     2266.43397      0.67630254E-123
     2270.20649       0.0000000     
     2273.97902       0.0000000     
     2277.75155       0.0000000     
     2281.52408       0.0000000     
     2285.29661       0.0000000     
     2289.06914       0.0000000     
     2292.84167       0.0000000     
     2296.61420       0.0000000     
     2300.38673       0.0000000     
     2304.15926       0.0000000     
     2307.93179       0.0000000     
     2311.70432       0.0000000     
     2315.47685       0.0000000     
     2319.24938       0.0000000     
     2323.02191       0.0000000     
     2326.79444       0.0000000     
     2330.56696       0.0000000     
     2334.33949       0.0000000     
     2338.11202       0.0000000     
     2341.88455       0.0000000     
     2345.65708       0.0000000     
     2349.42961       0.0000000     
     2353.20214       0.0000000     
     2356.97467       0.0000000     
     2360.74720       0.0000000     
     2364.51973       0.0000000     
     2368.29226       0.0000000     
     2372.06479       0.0000000     
     2375.83732       0.0000000     
     2379.60985       0.0000000     
     2383.38238       0.0000000     
     2387.15491       0.0000000     
     2390.92744       0.0000000     
     2394.69996       0.0000000     
     2398.47249       0.0000000     
     2402.24502       0.0000000     
     2406.01755       0.0000000     
     2409.79008       0.0000000     
     2413.56261       0.0000000     
     2417.33514       0.0000000     
     2421.10767       0.0000000     
     2424.88020       0.0000000     
     2428.65273       0.0000000     
     2432.42526       0.0000000     
     2436.19779       0.0000000     
     2439.97032       0.0000000     
     2443.74285       0.0000000     
     2447.51538       0.0000000     
     2451.28791       0.0000000     
     2455.06044       0.0000000     
     2458.83296       0.0000000     
     2462.60549       0.0000000     
     2466.37802       0.0000000     
     2470.15055       0.0000000     
     2473.92308       0.0000000     
     2477.69561       0.0000000     
     2481.46814       0.0000000     
     2485.24067       0.0000000     
     2489.01320       0.0000000     
     2492.78573       0.0000000     
     2496.55826       0.0000000     
     2500.33079       0.0000000     
     2504.10332       0.0000000     
     2507.87585       0.0000000     
     2511.64838       0.0000000     
     2515.42091       0.0000000     
     2519.19344       0.0000000     
     2522.96596       0.0000000     
     2526.73849       0.0000000     
     2530.51102       0.0000000     
     2534.28355       0.0000000     
     2538.05608       0.0000000     
     2541.82861       0.0000000     
     2545.60114       0.0000000     
     2549.37367       0.0000000     
     2553.14620       0.0000000     
     2556.91873       0.0000000     
     2560.69126       0.0000000     
     2564.46379       0.0000000     
     2568.23632       0.0000000     
     2572.00885       0.0000000     
     2575.78138       0.0000000     
     2579.55391       0.0000000     
     2583.32643      0.53543496E-123
     2587.09896      0.53290494E-120
     2590.87149      0.48585931E-117
     2594.64402      0.40577853E-114
     2598.41655      0.31044549E-111
     2602.18908      0.21757020E-108
     2605.96161      0.13967903E-105
     2609.73414      0.82144935E-103
     2613.50667      0.44253550E-100
     2617.27920      0.21839022E-097
     2621.05173      0.98727021E-095
     2624.82426      0.40884306E-092
     2628.59679      0.15509400E-089
     2632.36932      0.53895325E-087
     2636.14185      0.17156353E-084
     2639.91438      0.50028397E-082
     2643.68691      0.13363677E-079
     2647.45943      0.32700404E-077
     2651.23196      0.73298994E-075
     2655.00449      0.15050838E-072
     2658.77702      0.28310079E-070
     2662.54955      0.48779714E-068
     2666.32208      0.76993698E-066
     2670.09461      0.11132402E-063
     2673.86714      0.14744848E-061
     2677.63967      0.17889966E-059
     2681.41220      0.19883666E-057
     2685.18473      0.20244226E-055
     2688.95726      0.18880942E-053
     2692.72979      0.16131096E-051
     2696.50232      0.12624723E-049
     2700.27485      0.90510217E-048
     2704.04738      0.59441685E-046
     2707.81990      0.35760400E-044
     2711.59243      0.19707493E-042
     2715.36496      0.99489708E-041
     2719.13749      0.46008989E-039
     2722.91002      0.19490589E-037
     2726.68255      0.75635384E-036
     2730.45508      0.26887029E-034
     2734.22761      0.87554482E-033
     2738.00014      0.26117506E-031
     2741.77267      0.71367876E-030
     2745.54520      0.17864530E-028
     2749.31773      0.40963607E-027
     2753.09026      0.86044386E-026
     2756.86279      0.16556352E-024
     2760.63532      0.29182635E-023
     2764.40785      0.47119657E-022
     2768.18038      0.69694339E-021
     2771.95290      0.94430140E-020
     2775.72543      0.11720375E-018
     2779.49796      0.13325704E-017
     2783.27049      0.13878949E-016
     2787.04302      0.13241608E-015
     2790.81555      0.11572912E-014
     2794.58808      0.92653609E-014
     2798.36061      0.67951614E-013
     2802.13314      0.45651491E-012
     2805.90567      0.28094927E-011
     2809.67820      0.15838667E-010
     2813.45073      0.81795062E-010
     2817.22326      0.38694863E-009
     2820.99579      0.16768619E-008
     2824.76832      0.66567006E-008
     2828.54085      0.24206863E-007
     2832.31338      0.80637261E-007
     2836.08590      0.24606553E-006
     2839.85843      0.68783385E-006
     2843.63096      0.17613030E-005
     2847.40349      0.41314485E-005
     2851.17602      0.88774530E-005
     2854.94855      0.17473994E-004
     2858.72108      0.31507484E-004
     2862.49361      0.52041888E-004
     2866.26614      0.78742665E-004
     2870.03867      0.10914025E-003
     2873.81120      0.13857265E-003
     2877.58373      0.16117135E-003
     2881.35626      0.17171805E-003
     2885.12879      0.16759529E-003
     2888.90132      0.14983919E-003
     2892.67385      0.12271758E-003
     2896.44637      0.92067407E-004
     2900.21890      0.63273636E-004
     2903.99143      0.39834322E-004
     2907.76396      0.22972583E-004
     2911.53649      0.12136124E-004
     2915.30902      0.58731068E-005
     2919.08155      0.26035958E-005
     2922.85408      0.10572970E-005
     2926.62661      0.39331289E-006
     2930.39914      0.13402849E-006
     2934.17167      0.41838280E-007
     2937.94420      0.11963776E-007
     2941.71673      0.31338665E-008
     2945.48926      0.75198723E-009
     2949.26179      0.16529442E-009
     2953.03432      0.33283093E-010
     2956.80685      0.61391314E-011
     2960.57937      0.10373085E-011
     2964.35190      0.16055605E-012
     2968.12443      0.22764767E-013
     2971.89696      0.29567695E-014
     2975.66949      0.35179487E-015
     2979.44202      0.38342400E-016
     2983.21455      0.38281314E-017
     2986.98708      0.35011615E-018
     2990.75961      0.29332913E-019
     2994.53214      0.22512100E-020
     2998.30467      0.15826854E-021
     3002.07720      0.10192739E-022
     3005.84973      0.60131912E-024
     3009.62226      0.32496520E-025
     3013.39479      0.16087422E-026
     3017.16732      0.72954792E-028
     3020.93985      0.30306720E-029
     3024.71237      0.11532987E-030
     3028.48490      0.40203369E-032
     3032.25743      0.12838103E-033
     3036.02996      0.37554068E-035
     3039.80249      0.10063079E-036
     3043.57502      0.24701456E-038
     3047.34755      0.55543338E-040
     3051.12008      0.11440873E-041
     3054.89261      0.21587587E-043
     3058.66514      0.37313568E-045
     3062.43767      0.59080918E-047
     3066.21020      0.85693018E-049
     3069.98273      0.11385744E-050
     3073.75526      0.13857827E-052
     3077.52779      0.15450645E-054
     3081.30032      0.15780321E-056
     3085.07285      0.14763959E-058
     3088.84537      0.12653410E-060
     3092.61790      0.99341358E-063
     3096.39043      0.71444756E-065
     3100.16296      0.47068286E-067
     3103.93549      0.28405613E-069
     3107.70802      0.15703545E-071
     3111.48055      0.79525974E-074
     3115.25308      0.36892497E-076
     3119.02561      0.15677791E-078
     3122.79814      0.61030889E-081
     3126.57067      0.22952750E-083
     3130.34320      0.34276997E-082
     3134.11573      0.90474267E-080
     3137.88826      0.21880398E-077
     3141.66079      0.48473360E-075
     3145.43332      0.98371384E-073
     3149.20584      0.18287410E-070
     3152.97837      0.31142493E-068
     3156.75090      0.48581656E-066
     3160.52343      0.69423899E-064
     3164.29596      0.90878981E-062
     3168.06849      0.10897720E-059
     3171.84102      0.11970867E-057
     3175.61355      0.12045736E-055
     3179.38608      0.11103472E-053
     3183.15861      0.93756642E-052
     3186.93114      0.72520875E-050
     3190.70367      0.51385642E-048
     3194.47620      0.33353260E-046
     3198.24873      0.19831363E-044
     3202.02126      0.10801513E-042
     3205.79379      0.53893248E-041
     3209.56632      0.24632126E-039
     3213.33884      0.10313051E-037
     3217.11137      0.39553984E-036
     3220.88390      0.13896680E-034
     3224.65643      0.44724924E-033
     3228.42896      0.13185783E-031
     3232.20149      0.35610659E-030
     3235.97402      0.88099177E-029
     3239.74655      0.19965558E-027
     3243.51908      0.41448498E-026
     3247.29161      0.78823171E-025
     3251.06414      0.13731462E-023
     3254.83667      0.21912776E-022
     3258.60920      0.32032865E-021
     3262.38173      0.42895518E-020
     3266.15426      0.52619390E-019
     3269.92679      0.59128582E-018
     3273.69931      0.60864895E-017
     3277.47184      0.57392355E-016
     3281.24437      0.49574572E-015
     3285.01690      0.39226689E-014
     3288.78943      0.28432961E-013
     3292.56196      0.18879057E-012
     3296.33449      0.11483023E-011
     3300.10702      0.63980843E-011
     3303.87955      0.32655883E-010
     3307.65208      0.15268299E-009
     3311.42461      0.65393960E-009
     3315.19714      0.25656794E-008
     3318.96967      0.92211456E-008
     3322.74220      0.30358837E-007
     3326.51473      0.91559444E-007
     3330.28726      0.25295247E-006
     3334.05979      0.64016577E-006
     3337.83231      0.14841019E-005
     3341.60484      0.31517574E-005
     3345.37737      0.61313990E-005
     3349.14990      0.10926577E-004
     3352.92243      0.17837191E-004
     3356.69496      0.26673900E-004
     3360.46749      0.36539647E-004
     3364.24002      0.45852175E-004
     3368.01255      0.52707605E-004
     3371.78508      0.55501457E-004
     3375.55761      0.53536903E-004
     3379.33014      0.47306396E-004
     3383.10267      0.38291664E-004
     3386.87520      0.28392679E-004
     3390.64773      0.19285294E-004
     3394.42026      0.11999521E-004
     3398.19279      0.68394205E-005
     3401.96531      0.35710215E-005
     3405.73784      0.17079824E-005
     3409.51037      0.74832811E-006
     3413.28290      0.30034368E-006
     3417.05543      0.11042380E-006
     3420.82796      0.37189868E-007
     3424.60049      0.11473722E-007
     3428.37302      0.32426629E-008
     3432.14555      0.83949288E-009
     3435.91808      0.19909025E-009
     3439.69061      0.43251456E-010
     3443.46314      0.86073452E-011
     3447.23567      0.15691175E-011
     3451.00820      0.26203510E-012
     3454.78073      0.40084940E-013
     3458.55326      0.56172113E-014
     3462.32578      0.72107102E-015
     3466.09831      0.84791648E-016
     3469.87084      0.91336816E-017
     3473.64337      0.90127312E-018
     3477.41590      0.81467563E-019
     3481.18843      0.67457585E-020
     3484.96096      0.51167549E-021
     3488.73349      0.35552995E-022
     3492.50602      0.22629530E-023
     3496.27855      0.13194491E-024
     3500.05108      0.70473766E-026
     3503.82361      0.34481019E-027
     3507.59614      0.15454340E-028
     3511.36867      0.63451016E-030
     3515.14120      0.23864067E-031
     3518.91373      0.82218225E-033
     3522.68626      0.25948335E-034
     3526.45878      0.75018547E-036
     3530.23131      0.19867607E-037
     3534.00384      0.48199244E-039
     3537.77637      0.10711558E-040
     3541.54890      0.21806343E-042
     3545.32143      0.40665936E-044
     3549.09396      0.69469868E-046
     3552.86649      0.10871261E-047
     3556.63902      0.15584079E-049
     3560.41155      0.20464451E-051
     3564.18408      0.24617097E-053
     3567.95661      0.27126347E-055
     3571.72914      0.27381899E-057
     3575.50167      0.25319409E-059
     3579.27420      0.21446741E-061
     3583.04673      0.16641284E-063
     3586.81926      0.11828512E-065
     3590.59178      0.77018020E-068
     3594.36431      0.50109068E-070
     3598.13684      0.73792301E-069
     3601.90937      0.11950145E-066
     3605.68190      0.17733760E-064
     3609.45443      0.24107169E-062
     3613.22696      0.30019908E-060
     3616.99949      0.34244455E-058
     3620.77202      0.35784003E-056
     3624.54455      0.34253530E-054
     3628.31708      0.30035821E-052
     3632.08961      0.24126340E-050
     3635.86214      0.17752566E-048
     3639.63467      0.11965989E-046
     3643.40720      0.73884577E-045
     3647.17973      0.41790422E-043
     3650.95226      0.21652970E-041
     3654.72478      0.10277227E-039
     3658.49731      0.44684015E-038
     3662.26984      0.17796975E-036
     3666.04237      0.64931873E-035
     3669.81490      0.21701384E-033
     3673.58743      0.66440777E-032
     3677.35996      0.18633727E-030
     3681.13249      0.47872103E-029
     3684.90502      0.11266345E-027
     3688.67755      0.24288536E-026
     3692.45008      0.47966429E-025
     3696.22261      0.86774315E-024
     3699.99514      0.14380128E-022
     3703.76767      0.21829917E-021
     3707.54020      0.30357022E-020
     3711.31273      0.38670875E-019
     3715.08525      0.45125975E-018
     3718.85778      0.48237740E-017
     3722.63031      0.47235124E-016
     3726.40284      0.42370240E-015
     3730.17537      0.34815653E-014
     3733.94790      0.26206314E-013
     3737.72043      0.18069872E-012
     3741.49296      0.11413582E-011
     3745.26549      0.66039933E-011
     3749.03802      0.35003304E-010
     3752.81055      0.16995314E-009
     3756.58308      0.75590485E-009
     3760.35561      0.30798022E-008
     3764.12814      0.11494664E-007
     3767.90067      0.39299542E-007
     3771.67320      0.12308255E-006
     3775.44573      0.35312081E-006
     3779.21825      0.92804290E-006
     3782.99078      0.22342457E-005
     3786.76331      0.49273392E-005
     3790.53584      0.99543735E-005
     3794.30837      0.18422067E-004
     3798.08090      0.31231516E-004
     3801.85343      0.48506009E-004
     3805.62596      0.69022038E-004
     3809.39849      0.90005796E-004
     3813.17102      0.10761795E-003
     3816.94355      0.11814240E-003
     3820.71608      0.11945276E-003
     3824.48861      0.11205295E-003
     3828.26114      0.99114913E-004
     3832.03367      0.85422201E-004
     3835.80620      0.75663293E-004
     3839.57873      0.72784982E-004
     3843.35125      0.77025161E-004
     3847.12378      0.85934426E-004
     3850.89631      0.95340999E-004
     3854.66884      0.10090098E-003
     3858.44137      0.99657756E-004
     3862.21390      0.91008074E-004
     3865.98643      0.76721574E-004
     3869.75896      0.60110842E-004
     3873.53149      0.44845949E-004
     3877.30402      0.34001349E-004
     3881.07655      0.29676978E-004
     3884.84908      0.33146591E-004
     3888.62161      0.45207876E-004
     3892.39414      0.66367737E-004
     3896.16667      0.96659137E-004
     3899.93920      0.13514448E-003
     3903.71172      0.17940051E-003
     3907.48425      0.22538802E-003
     3911.25678      0.26798918E-003
     3915.02931      0.30214792E-003
     3918.80184      0.32415251E-003
     3922.57437      0.33243875E-003
     3926.34690      0.32753684E-003
     3930.11943      0.31130121E-003
     3933.89196      0.28598104E-003
     3937.66449      0.25369615E-003
     3941.43702      0.21649092E-003
     3945.20955      0.17667401E-003
     3948.98208      0.13697459E-003
     3952.75461      0.10025665E-003
     3956.52714      0.68916569E-004
     3960.29967      0.44329568E-004
     3964.07220      0.26655474E-004
     3967.84472      0.15062438E-004
     3971.61725      0.81932912E-005
     3975.38978      0.46275021E-005
     3979.16231      0.31736238E-005
     3982.93484      0.29622718E-005
     3986.70737      0.34057349E-005
     3990.47990      0.41155230E-005
     3994.25243      0.48415962E-005
     3998.02496      0.54510363E-005
     4001.79749      0.59271386E-005
     4005.57002      0.63563497E-005
     4009.34255      0.68811106E-005
     4013.11508      0.76219998E-005
     4016.88761      0.85975548E-005
     4020.66014      0.96807239E-005
     4024.43267      0.10619930E-004
     4028.20520      0.11123543E-004
     4031.97772      0.10973119E-004
     4035.75025      0.10112443E-004
     4039.52278      0.86695664E-005
     4043.29531      0.69039409E-005
     4047.06784      0.51094007E-005
     4050.84037      0.35219338E-005
     4054.61290      0.22699025E-005
     4058.38543      0.13752331E-005
     4062.15796      0.78826727E-006
     4065.93049      0.43024392E-006
     4069.70302      0.22475298E-006
     4073.47555      0.11261208E-006
     4077.24808      0.54035993E-007
     4081.02061      0.24711100E-007
     4084.79314      0.10696564E-007
     4088.56567      0.43508994E-008
     4092.33819      0.16520804E-008
     4096.11072      0.58245602E-009
     4099.88325      0.18988829E-009
     4103.65578      0.57075376E-010
     4107.42831      0.15783779E-010
     4111.20084      0.40101752E-011
     4114.97337      0.93515657E-012
     4118.74590      0.20002900E-012
     4122.51843      0.39240173E-013
     4126.29096      0.71702045E-014
     4130.06349      0.21944271E-014
     4133.83602      0.83875554E-014
     4137.60855      0.59833813E-013
     4141.38108      0.39902533E-012
     4145.15361      0.24386045E-011
     4148.92614      0.13652219E-010
     4152.69867      0.70013689E-010
     4156.47119      0.32891253E-009
     4160.24372      0.14154536E-008
     4164.01625      0.55799283E-008
     4167.78878      0.20150200E-007
     4171.56131      0.66657320E-007
     4175.33384      0.20199197E-006
     4179.10637      0.56070975E-006
     4182.87890      0.14258041E-005
     4186.65143      0.33212334E-005
     4190.42396      0.70869060E-005
     4194.19649      0.13852613E-004
     4197.96902      0.24804159E-004
     4201.74155      0.40685068E-004
     4205.51408      0.61131262E-004
     4209.28661      0.84141340E-004
     4213.05914      0.10608971E-003
     4216.83167      0.12253350E-003
     4220.60419      0.12964452E-003
     4224.37672      0.12565254E-003
     4228.14925      0.11155939E-003
     4231.92178      0.90731632E-004
     4235.69431      0.67597260E-004
     4239.46684      0.46133586E-004
     4243.23937      0.28841849E-004
     4247.01190      0.16517592E-004
     4250.78443      0.86653904E-005
     4254.55696      0.41643506E-005
     4258.32949      0.18332606E-005
     4262.10202      0.73929687E-006
     4265.87455      0.27310603E-006
     4269.64708      0.92419045E-007
     4273.41961      0.28648997E-007
     4277.19214      0.81353289E-008
     4280.96466      0.21162091E-008
     4284.73719      0.50426611E-009
     4288.50972      0.11007248E-009
     4292.28225      0.22009769E-010
     4296.05478      0.40315306E-011
     4299.82731      0.67646013E-012
     4303.59984      0.10397578E-012
     4307.37237      0.14639962E-013
     4311.14490      0.18882760E-014
