      456.93770      0.74213332E-004
      457.11770      0.71619127E-004
      457.29770      0.69101810E-004
      457.47770      0.66659664E-004
      457.65770      0.64290992E-004
      457.83770      0.61994110E-004
      458.01770      0.59767356E-004
      458.19770      0.57609082E-004
      458.37770      0.55517663E-004
      458.55770      0.53491490E-004
      458.73770      0.51528977E-004
      458.91770      0.49628557E-004
      459.09770      0.47788685E-004
      459.27770      0.46007836E-004
      459.45770      0.44284510E-004
      459.63770      0.42617227E-004
      459.81770      0.41004530E-004
      459.99770      0.39444984E-004
      460.17770      0.37937179E-004
      460.35770      0.36479728E-004
      460.53770      0.35071266E-004
      460.71770      0.33710454E-004
      460.89770      0.32395976E-004
      461.07770      0.31126539E-004
      461.25770      0.29900876E-004
      461.43770      0.28717742E-004
      461.61770      0.27575917E-004
      461.79770      0.26474206E-004
      461.97770      0.25411437E-004
      462.15770      0.24386463E-004
      462.33770      0.23398160E-004
      462.51770      0.22445429E-004
      462.69770      0.21527193E-004
      462.87770      0.20642401E-004
      463.05770      0.19790024E-004
      463.23770      0.18969056E-004
      463.41770      0.18178516E-004
      463.59770      0.17417445E-004
      463.77770      0.16684906E-004
      463.95770      0.15979986E-004
      464.13770      0.15301793E-004
      464.31770      0.14649458E-004
      464.49770      0.14022133E-004
      464.67770      0.13418993E-004
      464.85770      0.12839232E-004
      465.03770      0.12282068E-004
      465.21770      0.11746737E-004
      465.39770      0.11232497E-004
      465.57770      0.10738624E-004
      465.75770      0.10264417E-004
      465.93770      0.98091927E-005
      466.11770      0.93722860E-005
      466.29770      0.89530519E-005
      466.47770      0.85508635E-005
      466.65770      0.81651120E-005
      466.83770      0.77952065E-005
      467.01770      0.74405734E-005
      467.19770      0.71006563E-005
      467.37770      0.67749155E-005
      467.55770      0.64628277E-005
      467.73770      0.61638857E-005
      467.91770      0.58775980E-005
      468.09770      0.56034885E-005
      468.27770      0.53410962E-005
      468.45770      0.50899746E-005
      468.63770      0.48496917E-005
      468.81770      0.46198296E-005
      468.99770      0.43999839E-005
      469.17770      0.41897636E-005
      469.35770      0.39887909E-005
      469.53770      0.37967003E-005
      469.71770      0.36131390E-005
      469.89770      0.34377661E-005
      470.07770      0.32702526E-005
      470.25770      0.31102806E-005
      470.43770      0.29575436E-005
      470.61770      0.28117457E-005
      470.79770      0.26726017E-005
      470.97770      0.25398365E-005
      471.15770      0.24131848E-005
      471.33770      0.22923912E-005
      471.51770      0.21772093E-005
      471.69770      0.20674021E-005
      471.87770      0.19627412E-005
      472.05770      0.18630069E-005
      472.23770      0.17679875E-005
      472.41770      0.16774796E-005
      472.59770      0.15912874E-005
      472.77770      0.15092228E-005
      472.95770      0.14311047E-005
      473.13770      0.13567593E-005
      473.31770      0.12860195E-005
      473.49770      0.12187248E-005
      473.67770      0.11547212E-005
      473.85770      0.10938606E-005
      474.03770      0.10360010E-005
      474.21770      0.98100626E-006
      474.39770      0.92874564E-006
      474.57770      0.87909379E-006
      474.75770      0.83193055E-006
      474.93770      0.78714073E-006
      475.11770      0.74461396E-006
      475.29770      0.70424450E-006
      475.47770      0.66593107E-006
      475.65770      0.62957672E-006
      475.83770      0.59508861E-006
      476.01770      0.56237791E-006
      476.19770      0.53135964E-006
      476.37770      0.50195249E-006
      476.55770      0.47407874E-006
      476.73770      0.44766406E-006
      476.91770      0.42263742E-006
      477.09770      0.39893095E-006
      477.27770      0.37647981E-006
      477.45770      0.35522207E-006
      477.63770      0.33509862E-006
      477.81770      0.31605303E-006
      477.99770      0.29803143E-006
      478.17770      0.28098245E-006
      478.35770      0.26485708E-006
      478.53770      0.24960859E-006
      478.71770      0.23519243E-006
      478.89770      0.22156614E-006
      479.07770      0.20868928E-006
      479.25770      0.19652329E-006
      479.43770      0.18503148E-006
      479.61770      0.17417892E-006
      479.79770      0.16393234E-006
      479.97770      0.15426010E-006
      480.15770      0.14513209E-006
      480.33770      0.13651969E-006
      480.51770      0.12839566E-006
      480.69770      0.12073413E-006
      480.87770      0.11351051E-006
      481.05770      0.10670143E-006
      481.23770      0.10028472E-006
      481.41770      0.94239302E-007
      481.59770      0.88545182E-007
      481.77770      0.83183387E-007
      481.95770      0.78135918E-007
      482.13770      0.73385706E-007
      482.31770      0.68916572E-007
      482.49770      0.64713179E-007
      482.67770      0.60761002E-007
      482.85770      0.57046283E-007
      483.03770      0.53555999E-007
      483.21770      0.50277825E-007
      483.39770      0.47200105E-007
      483.57770      0.44311815E-007
      483.75770      0.41602541E-007
      483.93770      0.39062441E-007
      484.11770      0.36682226E-007
      484.29770      0.34453131E-007
      484.47770      0.32366886E-007
      484.65770      0.30415702E-007
      484.83770      0.28592239E-007
      485.01770      0.26889592E-007
      485.19770      0.25301265E-007
      485.37770      0.23821157E-007
      485.55770      0.22443540E-007
      485.73770      0.21163044E-007
      485.91770      0.19974638E-007
      486.09770      0.18873620E-007
      486.27770      0.17855595E-007
      486.45770      0.16916468E-007
      486.63770      0.16052426E-007
      486.81770      0.15259930E-007
      486.99770      0.14535700E-007
      487.17770      0.13876706E-007
      487.35770      0.13280159E-007
      487.53770      0.12743497E-007
      487.71770      0.12264384E-007
      487.89770      0.11840693E-007
      488.07770      0.11470506E-007
      488.25770      0.11152103E-007
      488.43770      0.10883955E-007
      488.61770      0.10664721E-007
      488.79770      0.10493242E-007
      488.97770      0.10368533E-007
      489.15770      0.10289784E-007
      489.33770      0.10256351E-007
      489.51770      0.10267755E-007
      489.69770      0.10323682E-007
      489.87770      0.10423974E-007
      490.05770      0.10568631E-007
      490.23770      0.10757812E-007
      490.41770      0.10991828E-007
      490.59770      0.11271144E-007
      490.77770      0.11596380E-007
      490.95770      0.11968310E-007
      491.13770      0.12387860E-007
      491.31770      0.12856114E-007
      491.49770      0.13374309E-007
      491.67770      0.13943843E-007
      491.85770      0.14566273E-007
      492.03770      0.15243316E-007
      492.21770      0.15976856E-007
      492.39770      0.16768945E-007
      492.57770      0.17621805E-007
      492.75770      0.18537835E-007
      492.93770      0.19519612E-007
      493.11770      0.20569898E-007
      493.29770      0.21691643E-007
      493.47770      0.22887991E-007
      493.65770      0.24162286E-007
      493.83770      0.25518079E-007
      494.01770      0.26959132E-007
      494.19770      0.28489426E-007
      494.37770      0.30113167E-007
      494.55770      0.31834798E-007
      494.73770      0.33658999E-007
      494.91770      0.35590703E-007
      495.09770      0.37635101E-007
      495.27770      0.39797650E-007
      495.45770      0.42084084E-007
      495.63770      0.44500426E-007
      495.81770      0.47052993E-007
      495.99770      0.49748412E-007
      496.17770      0.52593627E-007
      496.35770      0.55595914E-007
      496.53770      0.58762888E-007
      496.71770      0.62102522E-007
      496.89770      0.65623154E-007
      497.07770      0.69333503E-007
      497.25770      0.73242680E-007
      497.43770      0.77360207E-007
      497.61770      0.81696027E-007
      497.79770      0.86260519E-007
      497.97770      0.91064517E-007
      498.15770      0.96119322E-007
      498.33770      0.10143672E-006
      498.51770      0.10702900E-006
      498.69770      0.11290896E-006
      498.87770      0.11908996E-006
      499.05770      0.12558588E-006
      499.23770      0.13241120E-006
      499.41770      0.13958098E-006
      499.59770      0.14711089E-006
      499.77770      0.15501723E-006
      499.95770      0.16331698E-006
      500.13770      0.17202774E-006
      500.31770      0.18116785E-006
      500.49770      0.19075635E-006
      500.67770      0.20081301E-006
      500.85770      0.21135837E-006
      501.03770      0.22241375E-006
      501.21770      0.23400128E-006
      501.39770      0.24614393E-006
      501.57770      0.25886549E-006
      501.75770      0.27219067E-006
      501.93770      0.28614507E-006
      502.11770      0.30075521E-006
      502.29770      0.31604859E-006
      502.47770      0.33205368E-006
      502.65770      0.34879995E-006
      502.83770      0.36631792E-006
      503.01770      0.38463916E-006
      503.19770      0.40379636E-006
      503.37770      0.42382329E-006
      503.55770      0.44475489E-006
      503.73770      0.46662727E-006
      503.91770      0.48947774E-006
      504.09770      0.51334485E-006
      504.27770      0.53826841E-006
      504.45770      0.56428951E-006
      504.63770      0.59145056E-006
      504.81770      0.61979532E-006
      504.99770      0.64936893E-006
      505.17770      0.68021794E-006
      505.35770      0.71239033E-006
      505.53770      0.74593552E-006
      505.71770      0.78090447E-006
      505.89770      0.81734961E-006
      506.07770      0.85532496E-006
      506.25770      0.89488610E-006
      506.43770      0.93609021E-006
      506.61770      0.97899610E-006
      506.79770      0.10236643E-005
      506.97770      0.10701569E-005
      507.15770      0.11185378E-005
      507.33770      0.11688726E-005
      507.51770      0.12212288E-005
      507.69770      0.12756754E-005
      507.87770      0.13322835E-005
      508.05770      0.13911259E-005
      508.23770      0.14522772E-005
      508.41770      0.15158140E-005
      508.59770      0.15818148E-005
      508.77770      0.16503598E-005
      508.95770      0.17215314E-005
      509.13770      0.17954139E-005
      509.31770      0.18720934E-005
      509.49770      0.19516581E-005
      509.67770      0.20341982E-005
      509.85770      0.21198060E-005
      510.03770      0.22085756E-005
      510.21770      0.23006032E-005
      510.39770      0.23959871E-005
      510.57770      0.24948276E-005
      510.75770      0.25972270E-005
      510.93770      0.27032896E-005
      511.11770      0.28131219E-005
      511.29770      0.29268323E-005
      511.47770      0.30445311E-005
      511.65770      0.31663309E-005
      511.83770      0.32923462E-005
      512.01770      0.34226933E-005
      512.19770      0.35574908E-005
      512.37770      0.36968590E-005
      512.55770      0.38409203E-005
      512.73770      0.39897988E-005
      512.91770      0.41436209E-005
      513.09770      0.43025143E-005
      513.27770      0.44666091E-005
      513.45770      0.46360367E-005
      513.63770      0.48109306E-005
      513.81770      0.49914258E-005
      513.99770      0.51776591E-005
      514.17770      0.53697689E-005
      514.35770      0.55678949E-005
      514.53770      0.57721788E-005
      514.71770      0.59827633E-005
      514.89770      0.61997927E-005
      515.07770      0.64234127E-005
      515.25770      0.66537699E-005
      515.43770      0.68910125E-005
      515.61770      0.71352896E-005
      515.79770      0.73867512E-005
      515.97770      0.76455484E-005
      516.15770      0.79118330E-005
      516.33770      0.81857578E-005
      516.51770      0.84674759E-005
      516.69770      0.87571412E-005
      516.87770      0.90549080E-005
      517.05770      0.93609307E-005
      517.23770      0.96753643E-005
      517.41770      0.99983635E-005
      517.59770      0.10330083E-004
      517.77770      0.10670678E-004
      517.95770      0.11020303E-004
      518.13770      0.11379111E-004
      518.31770      0.11747257E-004
      518.49770      0.12124892E-004
      518.67770      0.12512169E-004
      518.85770      0.12909238E-004
      519.03770      0.13316250E-004
      519.21770      0.13733353E-004
      519.39770      0.14160693E-004
      519.57770      0.14598416E-004
      519.75770      0.15046666E-004
      519.93770      0.15505584E-004
      520.11770      0.15975310E-004
      520.29770      0.16455979E-004
      520.47770      0.16947728E-004
      520.65770      0.17450688E-004
      520.83770      0.17964987E-004
      521.01770      0.18490752E-004
      521.19770      0.19028105E-004
      521.37770      0.19577165E-004
      521.55770      0.20138048E-004
      521.73770      0.20710866E-004
      521.91770      0.21295726E-004
      522.09770      0.21892730E-004
      522.27770      0.22501979E-004
      522.45770      0.23123566E-004
      522.63770      0.23757580E-004
      522.81770      0.24404106E-004
      522.99770      0.25063222E-004
      523.17770      0.25735002E-004
      523.35770      0.26419513E-004
      523.53770      0.27116818E-004
      523.71770      0.27826971E-004
      523.89770      0.28550023E-004
      524.07770      0.29286015E-004
      524.25770      0.30034984E-004
      524.43770      0.30796959E-004
      524.61770      0.31571961E-004
      524.79770      0.32360006E-004
      524.97770      0.33161100E-004
      525.15770      0.33975243E-004
      525.33770      0.34802426E-004
      525.51770      0.35642632E-004
      525.69770      0.36495836E-004
      525.87770      0.37362005E-004
      526.05770      0.38241096E-004
      526.23770      0.39133059E-004
      526.41770      0.40037833E-004
      526.59770      0.40955349E-004
      526.77770      0.41885529E-004
      526.95770      0.42828284E-004
      527.13770      0.43783518E-004
      527.31770      0.44751123E-004
      527.49770      0.45730982E-004
      527.67770      0.46722967E-004
      527.85770      0.47726941E-004
      528.03770      0.48742758E-004
      528.21770      0.49770259E-004
      528.39770      0.50809275E-004
      528.57770      0.51859629E-004
      528.75770      0.52921131E-004
      528.93770      0.53993580E-004
      529.11770      0.55076767E-004
      529.29770      0.56170470E-004
      529.47770      0.57274457E-004
      529.65770      0.58388485E-004
      529.83770      0.59512300E-004
      530.01770      0.60645638E-004
      530.19770      0.61788223E-004
      530.37770      0.62939769E-004
      530.55770      0.64099979E-004
      530.73770      0.65268545E-004
      530.91770      0.66445149E-004
      531.09770      0.67629462E-004
      531.27770      0.68821144E-004
      531.45770      0.70019846E-004
      531.63770      0.71225206E-004
      531.81770      0.72436854E-004
      531.99770      0.73654409E-004
      532.17770      0.74877480E-004
      532.35770      0.76105667E-004
      532.53770      0.77338559E-004
      532.71770      0.78575736E-004
      532.89770      0.79816769E-004
      533.07770      0.81061220E-004
      533.25770      0.82308640E-004
      533.43770      0.83558575E-004
      533.61770      0.84810558E-004
      533.79770      0.86064119E-004
      533.97770      0.87318775E-004
      534.15770      0.88574038E-004
      534.33770      0.89829412E-004
      534.51770      0.91084394E-004
      534.69770      0.92338474E-004
      534.87770      0.93591135E-004
      535.05770      0.94841855E-004
      535.23770      0.96090106E-004
      535.41770      0.97335352E-004
      535.59770      0.98577055E-004
      535.77770      0.99814671E-004
      535.95770      0.10104765E-003
      536.13770      0.10227544E-003
      536.31770      0.10349749E-003
      536.49770      0.10471323E-003
      536.67770      0.10592211E-003
      536.85770      0.10712356E-003
      537.03770      0.10831701E-003
      537.21770      0.10950189E-003
      537.39770      0.11067764E-003
      537.57770      0.11184368E-003
      537.75770      0.11299945E-003
      537.93770      0.11414438E-003
      538.11770      0.11527789E-003
      538.29770      0.11639941E-003
      538.47770      0.11750839E-003
      538.65770      0.11860426E-003
      538.83770      0.11968645E-003
      539.01770      0.12075440E-003
      539.19770      0.12180757E-003
      539.37770      0.12284540E-003
      539.55770      0.12386734E-003
      539.73770      0.12487285E-003
      539.91770      0.12586139E-003
      540.09770      0.12683244E-003
      540.27770      0.12778547E-003
      540.45770      0.12871996E-003
      540.63770      0.12963540E-003
      540.81770      0.13053130E-003
      540.99770      0.13140715E-003
      541.17770      0.13226247E-003
      541.35770      0.13309679E-003
      541.53770      0.13390964E-003
      541.71770      0.13470055E-003
      541.89770      0.13546910E-003
      542.07770      0.13621483E-003
      542.25770      0.13693733E-003
      542.43770      0.13763618E-003
      542.61770      0.13831099E-003
      542.79770      0.13896136E-003
      542.97770      0.13958692E-003
      543.15770      0.14018731E-003
      543.33770      0.14076218E-003
      543.51770      0.14131120E-003
      543.69770      0.14183404E-003
      543.87770      0.14233040E-003
      544.05770      0.14279998E-003
      544.23770      0.14324252E-003
      544.41770      0.14365775E-003
      544.59770      0.14404542E-003
      544.77770      0.14440531E-003
      544.95770      0.14473720E-003
      545.13770      0.14504090E-003
      545.31770      0.14531622E-003
      545.49770      0.14556301E-003
      545.67770      0.14578111E-003
      545.85770      0.14597039E-003
      546.03770      0.14613075E-003
      546.21770      0.14626208E-003
      546.39770      0.14636431E-003
      546.57770      0.14643737E-003
      546.75770      0.14648123E-003
      546.93770      0.14649585E-003
      547.11770      0.14648123E-003
      547.29770      0.14643737E-003
      547.47770      0.14636431E-003
      547.65770      0.14626208E-003
      547.83770      0.14613075E-003
      548.01770      0.14597039E-003
      548.19770      0.14578111E-003
      548.37770      0.14556301E-003
      548.55770      0.14531622E-003
      548.73770      0.14504090E-003
      548.91770      0.14473720E-003
      549.09770      0.14440531E-003
      549.27770      0.14404542E-003
      549.45770      0.14365775E-003
      549.63770      0.14324252E-003
      549.81770      0.14279998E-003
      549.99770      0.14233040E-003
      550.17770      0.14183404E-003
      550.35770      0.14131120E-003
      550.53770      0.14076218E-003
      550.71770      0.14018731E-003
      550.89770      0.13958692E-003
      551.07770      0.13896136E-003
      551.25770      0.13831099E-003
      551.43770      0.13763618E-003
      551.61770      0.13693733E-003
      551.79770      0.13621483E-003
      551.97770      0.13546910E-003
      552.15770      0.13470055E-003
      552.33770      0.13390964E-003
      552.51770      0.13309679E-003
      552.69770      0.13226247E-003
      552.87770      0.13140715E-003
      553.05770      0.13053130E-003
      553.23770      0.12963540E-003
      553.41770      0.12871996E-003
      553.59770      0.12778547E-003
      553.77770      0.12683244E-003
      553.95770      0.12586139E-003
      554.13770      0.12487285E-003
      554.31770      0.12386734E-003
      554.49770      0.12284540E-003
      554.67770      0.12180757E-003
      554.85770      0.12075440E-003
      555.03770      0.11968645E-003
      555.21770      0.11860426E-003
      555.39770      0.11750839E-003
      555.57770      0.11639941E-003
      555.75770      0.11527789E-003
      555.93770      0.11414438E-003
      556.11770      0.11299945E-003
      556.29770      0.11184368E-003
      556.47770      0.11067764E-003
      556.65770      0.10950189E-003
      556.83770      0.10831701E-003
      557.01770      0.10712356E-003
      557.19770      0.10592211E-003
      557.37770      0.10471323E-003
      557.55770      0.10349749E-003
      557.73770      0.10227544E-003
      557.91770      0.10104765E-003
      558.09770      0.99814671E-004
      558.27770      0.98577055E-004
      558.45770      0.97335352E-004
      558.63770      0.96090106E-004
      558.81770      0.94841855E-004
      558.99770      0.93591135E-004
      559.17770      0.92338474E-004
      559.35770      0.91084394E-004
      559.53770      0.89829412E-004
      559.71770      0.88574038E-004
      559.89770      0.87318775E-004
      560.07770      0.86064119E-004
      560.25770      0.84810558E-004
      560.43770      0.83558575E-004
      560.61770      0.82308640E-004
      560.79770      0.81061220E-004
      560.97770      0.79816769E-004
      561.15770      0.78575736E-004
      561.33770      0.77338559E-004
      561.51770      0.76105667E-004
      561.69770      0.74877480E-004
      561.87770      0.73654409E-004
      562.05770      0.72436854E-004
      562.23770      0.71225206E-004
      562.41770      0.70019846E-004
      562.59770      0.68821144E-004
      562.77770      0.67629462E-004
      562.95770      0.66445149E-004
      563.13770      0.65268545E-004
      563.31770      0.64099979E-004
      563.49770      0.62939769E-004
      563.67770      0.61788223E-004
      563.85770      0.60645638E-004
      564.03770      0.59512300E-004
      564.21770      0.58388485E-004
      564.39770      0.57274457E-004
      564.57770      0.56170470E-004
      564.75770      0.55076767E-004
      564.93770      0.53993580E-004
      565.11770      0.52921131E-004
      565.29770      0.51859629E-004
      565.47770      0.50809275E-004
      565.65770      0.49770259E-004
      565.83770      0.48742758E-004
      566.01770      0.47726941E-004
      566.19770      0.46722967E-004
      566.37770      0.45730982E-004
      566.55770      0.44751123E-004
      566.73770      0.43783518E-004
      566.91770      0.42828284E-004
      567.09770      0.41885529E-004
      567.27770      0.40955349E-004
      567.45770      0.40037833E-004
      567.63770      0.39133059E-004
      567.81770      0.38241096E-004
      567.99770      0.37362005E-004
      568.17770      0.36495836E-004
      568.35770      0.35642632E-004
      568.53770      0.34802426E-004
      568.71770      0.33975243E-004
      568.89770      0.33161100E-004
      569.07770      0.32360006E-004
      569.25770      0.31571961E-004
      569.43770      0.30796959E-004
      569.61770      0.30034984E-004
      569.79770      0.29286015E-004
      569.97770      0.28550023E-004
      570.15770      0.27826971E-004
      570.33770      0.27116818E-004
      570.51770      0.26419513E-004
      570.69770      0.25735002E-004
      570.87770      0.25063222E-004
      571.05770      0.24404106E-004
      571.23770      0.23757580E-004
      571.41770      0.23123566E-004
      571.59770      0.22501979E-004
      571.77770      0.21892730E-004
      571.95770      0.21295726E-004
      572.13770      0.20710866E-004
      572.31770      0.20138048E-004
      572.49770      0.19577165E-004
      572.67770      0.19028105E-004
      572.85770      0.18490752E-004
      573.03770      0.17964987E-004
      573.21770      0.17450688E-004
      573.39770      0.16947728E-004
      573.57770      0.16455979E-004
      573.75770      0.15975310E-004
      573.93770      0.15505584E-004
      574.11770      0.15046666E-004
      574.29770      0.14598416E-004
      574.47770      0.14160693E-004
      574.65770      0.13733353E-004
      574.83770      0.13316250E-004
      575.01770      0.12909238E-004
      575.19770      0.12512169E-004
      575.37770      0.12124892E-004
      575.55770      0.11747257E-004
      575.73770      0.11379111E-004
      575.91770      0.11020303E-004
      576.09770      0.10670678E-004
      576.27770      0.10330083E-004
      576.45770      0.99983635E-005
      576.63770      0.96753643E-005
      576.81770      0.93609307E-005
      576.99770      0.90549080E-005
      577.17770      0.87571412E-005
      577.35770      0.84674759E-005
      577.53770      0.81857578E-005
      577.71770      0.79118330E-005
      577.89770      0.76455484E-005
      578.07770      0.73867512E-005
      578.25770      0.71352896E-005
      578.43770      0.68910125E-005
      578.61770      0.66537699E-005
      578.79770      0.64234126E-005
      578.97770      0.61997927E-005
      579.15770      0.59827633E-005
      579.33770      0.57721788E-005
      579.51770      0.55678949E-005
      579.69770      0.53697688E-005
      579.87770      0.51776591E-005
      580.05770      0.49914258E-005
      580.23770      0.48109306E-005
      580.41770      0.46360367E-005
      580.59770      0.44666090E-005
      580.77770      0.43025143E-005
      580.95770      0.41436208E-005
      581.13770      0.39897988E-005
      581.31770      0.38409202E-005
      581.49770      0.36968589E-005
      581.67770      0.35574907E-005
      581.85770      0.34226932E-005
      582.03770      0.32923460E-005
      582.21770      0.31663308E-005
      582.39770      0.30445309E-005
      582.57770      0.29268321E-005
      582.75770      0.28131217E-005
      582.93770      0.27032894E-005
      583.11770      0.25972268E-005
      583.29770      0.24948273E-005
      583.47770      0.23959868E-005
      583.65770      0.23006029E-005
      583.83770      0.22085752E-005
      584.01770      0.21198056E-005
      584.19770      0.20341978E-005
      584.37770      0.19516576E-005
      584.55770      0.18720928E-005
      584.73770      0.17954133E-005
      584.91770      0.17215308E-005
      585.09770      0.16503591E-005
      585.27770      0.15818140E-005
      585.45770      0.15158132E-005
      585.63770      0.14522763E-005
      585.81770      0.13911249E-005
      585.99770      0.13322825E-005
      586.17770      0.12756743E-005
      586.35770      0.12212275E-005
      586.53770      0.11688712E-005
      586.71770      0.11185362E-005
      586.89770      0.10701552E-005
      587.07770      0.10236624E-005
      587.25770      0.97899404E-006
      587.43770      0.93608794E-006
      587.61770      0.89488362E-006
      587.79770      0.85532225E-006
      587.97770      0.81734665E-006
      588.15770      0.78090122E-006
      588.33770      0.74593198E-006
      588.51770      0.71238645E-006
      588.69770      0.68021370E-006
      588.87770      0.64936430E-006
      589.05770      0.61979026E-006
      589.23770      0.59144502E-006
      589.41770      0.56428346E-006
      589.59770      0.53826181E-006
      589.77770      0.51333765E-006
      589.95770      0.48946988E-006
      590.13770      0.46661868E-006
      590.31770      0.44474552E-006
      590.49770      0.42381307E-006
      590.67770      0.40378521E-006
      590.85770      0.38462701E-006
      591.03770      0.36630466E-006
      591.21770      0.34878550E-006
      591.39770      0.33203793E-006
      591.57770      0.31603144E-006
      591.75770      0.30073652E-006
      591.93770      0.28612471E-006
      592.11770      0.27216849E-006
      592.29770      0.25884134E-006
      592.47770      0.24611764E-006
      592.65770      0.23397268E-006
      592.83770      0.22238262E-006
      593.01770      0.21132451E-006
      593.19770      0.20077617E-006
      593.37770      0.19071629E-006
      593.55770      0.18112429E-006
      593.73770      0.17198039E-006
      593.91770      0.16326551E-006
      594.09770      0.15496131E-006
      594.27770      0.14705013E-006
      594.45770      0.13951498E-006
      594.63770      0.13233953E-006
      594.81770      0.12550807E-006
      594.99770      0.11900549E-006
      595.17770      0.11281728E-006
      595.35770      0.10692951E-006
      595.53770      0.10132879E-006
      595.71770      0.96002247E-007
      595.89770      0.90937552E-007
      596.07770      0.86122856E-007
      596.25770      0.81546795E-007
      596.43770      0.77198465E-007
      596.61770      0.73067415E-007
      596.79770      0.69143621E-007
      596.97770      0.65417479E-007
      597.15770      0.61879784E-007
      597.33770      0.58521720E-007
      597.51770      0.55334842E-007
      597.69770      0.52311066E-007
      597.87770      0.49442653E-007
      598.05770      0.46722199E-007
      598.23770      0.44142617E-007
      598.41770      0.41697132E-007
      598.59770      0.39379265E-007
      598.77770      0.37182819E-007
      598.95770      0.35101877E-007
      599.13770      0.33130780E-007
      599.31770      0.31264126E-007
      599.49770      0.29496753E-007
      599.67770      0.27823736E-007
      599.85770      0.26240372E-007
      600.03770      0.24742172E-007
      600.21770      0.23324856E-007
      600.39770      0.21984339E-007
      600.57770      0.20716728E-007
      600.75770      0.19518310E-007
      600.93770      0.18385548E-007
      601.11770      0.17315069E-007
      601.29770      0.16303663E-007
      601.47770      0.15348271E-007
      601.65770      0.14445981E-007
      601.83770      0.13594020E-007
      602.01770      0.12789751E-007
      602.19770      0.12030663E-007
      602.37770      0.11314369E-007
      602.55770      0.10638599E-007
      602.73770      0.10001193E-007
      602.91770      0.94001010E-008
      603.09770      0.88333720E-008
      603.27770      0.82991539E-008
      603.45770      0.77956875E-008
      603.63770      0.73213021E-008
      603.81770      0.68744117E-008
      603.99770      0.64535110E-008
      604.17770      0.60571715E-008
      604.35770      0.56840382E-008
      604.53770      0.53328260E-008
      604.71770      0.50023162E-008
      604.89770      0.46913537E-008
      605.07770      0.43988435E-008
      605.25770      0.41237483E-008
      605.43770      0.38650853E-008
      605.61770      0.36219240E-008
      605.79770      0.33933830E-008
      605.97770      0.31786282E-008
      606.15770      0.29768701E-008
      606.33770      0.27873618E-008
      606.51770      0.26093967E-008
      606.69770      0.24423065E-008
      606.87770      0.22854595E-008
      607.05770      0.21382585E-008
      607.23770      0.20001390E-008
      607.41770      0.18705678E-008
      607.59770      0.17490412E-008
      607.77770      0.16350834E-008
      607.95770      0.15282454E-008
      608.13770      0.14281032E-008
      608.31770      0.13342567E-008
      608.49770      0.12463284E-008
      608.67770      0.11639622E-008
      608.85770      0.10868224E-008
      609.03770      0.10145924E-008
      609.21770      0.94697370E-009
      609.39770      0.88368510E-009
      609.57770      0.82446163E-009
      609.75770      0.76905371E-009
      609.93770      0.71722628E-009
      610.11770      0.66875805E-009
      610.29770      0.62344071E-009
      610.47770      0.58107821E-009
      610.65770      0.54148612E-009
      610.83770      0.50449094E-009
      611.01770      0.46992951E-009
      611.19770      0.43764842E-009
      611.37770      0.40750347E-009
      611.55770      0.37935916E-009
      611.73770      0.35308814E-009
      611.91770      0.32857082E-009
      612.09770      0.30569487E-009
      612.27770      0.28435484E-009
      612.45770      0.26445172E-009
      612.63770      0.24589261E-009
      612.81770      0.22859033E-009
      612.99770      0.21246311E-009
      613.17770      0.19743426E-009
      613.35770      0.18343187E-009
      613.53770      0.17038855E-009
      613.71770      0.15824110E-009
      613.89770      0.14693034E-009
      614.07770      0.13640082E-009
      614.25770      0.12660061E-009
      614.43770      0.11748107E-009
      614.61770      0.10899669E-009
      614.79770      0.10110486E-009
      614.97770      0.93765712E-010
      615.15770      0.86941950E-010
      615.33770      0.80598693E-010
      615.51770      0.74703325E-010
      615.69770      0.69225350E-010
      615.87770      0.64136270E-010
      616.05770      0.59409451E-010
      616.23770      0.55020012E-010
      616.41770      0.50944714E-010
      616.59770      0.47161855E-010
      616.77770      0.43651174E-010
      616.95770      0.40393760E-010
      617.13770      0.37371966E-010
      617.31770      0.34569325E-010
      617.49770      0.31970481E-010
      617.67770      0.29561110E-010
      617.85770      0.27327859E-010
      618.03770      0.25258281E-010
      618.21770      0.23340775E-010
      618.39770      0.21564533E-010
      618.57770      0.19919486E-010
      618.75770      0.18396259E-010
      618.93770      0.16986121E-010
      619.11770      0.15680944E-010
      619.29770      0.14473165E-010
      619.47770      0.13355745E-010
      619.65770      0.12322137E-010
      619.83770      0.11366251E-010
      620.01770      0.10482425E-010
      620.19770      0.96653940E-011
      620.37770      0.89102663E-011
      620.55770      0.82124948E-011
      620.73770      0.75678555E-011
      620.91770      0.69724252E-011
      621.09770      0.64225604E-011
      621.27770      0.59148786E-011
      621.45770      0.54462400E-011
      621.63770      0.50137308E-011
      621.81770      0.46146478E-011
      621.99770      0.42464832E-011
      622.17770      0.39069114E-011
      622.35770      0.35937761E-011
      622.53770      0.33050785E-011
      622.71770      0.30389660E-011
      622.89770      0.27937222E-011
      623.07770      0.25677568E-011
      623.25770      0.23595971E-011
      623.43770      0.21678795E-011
      623.61770      0.19913414E-011
      623.79770      0.18288142E-011
      623.97770      0.16792168E-011
      624.15770      0.15415488E-011
      624.33770      0.14148848E-011
      624.51770      0.12983691E-011
      624.69770      0.11912106E-011
      624.87770      0.10926782E-011
      625.05770      0.10020959E-011
      625.23770      0.91883935E-012
      625.41770      0.84233181E-012
      625.59770      0.77204056E-012
      625.77770      0.70747376E-012
      625.95770      0.64817737E-012
      626.13770      0.59373232E-012
      626.31770      0.54375194E-012
      626.49770      0.49787951E-012
      626.67770      0.45578601E-012
      626.85770      0.41716804E-012
      627.03770      0.38174589E-012
      627.21770      0.34926175E-012
      627.39770      0.31947801E-012
      627.57770      0.29217579E-012
      627.75770      0.26715345E-012
      627.93770      0.24422530E-012
      628.11770      0.22322036E-012
      628.29770      0.20398126E-012
      628.47770      0.18636315E-012
      628.65770      0.17023275E-012
      628.83770      0.15546746E-012
      629.01770      0.14195451E-012
      629.19770      0.12959020E-012
      629.37770      0.11827922E-012
      629.55770      0.10793394E-012
      629.73770      0.98473855E-013
      629.91770      0.89824982E-013
      630.09770      0.81919377E-013
      630.27770      0.74694641E-013
      630.45770      0.68093483E-013
      630.63770      0.62063314E-013
      630.81770      0.56555869E-013
      630.99770      0.51526862E-013
      631.17770      0.46935669E-013
      631.35770      0.42745032E-013
      631.53770      0.38920783E-013
      631.71770      0.35431603E-013
      631.89770      0.32248783E-013
      632.07770      0.29346018E-013
      632.25770      0.26699204E-013
      632.43770      0.24286267E-013
      632.61770      0.22086989E-013
      632.79770      0.20082860E-013
      632.97770      0.18256937E-013
      633.15770      0.16593713E-013
      633.33770      0.15079000E-013
      633.51770      0.13699818E-013
      633.69770      0.12444297E-013
      633.87770      0.11301582E-013
      634.05770      0.10261750E-013
      634.23770      0.93157300E-014
      634.41770      0.84552349E-014
      634.59770      0.76726919E-014
      634.77770      0.69611846E-014
      634.95770      0.63143964E-014
      635.13770      0.57265603E-014
      635.31770      0.51924119E-014
      635.49770      0.47071468E-014
      635.67770      0.42663811E-014
      635.85770      0.38661158E-014
      636.03770      0.35027034E-014
      636.21770      0.31728181E-014
      636.39770      0.28734279E-014
      636.57770      0.26017689E-014
      636.75770      0.23553229E-014
      636.93770      0.21317952E-014
