      395.57870       8.8268263     
      399.32324       7.8707691     
      403.06778       6.7304961     
      406.81232       5.5625228     
      410.55686       4.4801290     
      414.30140       3.5515616     
      418.04594       2.8126163     
      421.79048       2.2801337     
      425.53503       1.9599616     
      429.27957       1.8499204     
      433.02411       1.9405533     
      436.76865       2.2152575     
      440.51319       2.6500149     
      444.25773       3.2126840     
      448.00227       3.8619285     
      451.74681       4.5459172     
      455.49135       5.2017982     
      459.23589       5.7588868     
      462.98043       6.1493705     
      466.72497       6.3271368     
      470.46951       6.2883963     
      474.21405       6.0822646     
      477.95860       5.8013166     
      481.70314       5.5519726     
      485.44768       5.4164462     
      489.19222       5.4242071     
      492.93676       5.5477880     
      496.68130       5.7269079     
      500.42584       5.9109757     
      504.17038       6.0992401     
      507.91492       6.3567065     
      511.65946       6.7958847     
      515.40400       7.5344200     
      519.14854       8.6529065     
      522.89308       10.173041     
      526.63762       12.055737     
      530.38217       14.200929     
      534.12671       16.435582     
      537.87125       18.503047     
      541.61579       20.088941     
      545.36033       20.907455     
      549.10487       20.826389     
      552.84941       19.963324     
      556.59395       18.680626     
      560.33849       17.455597     
      564.08303       16.675690     
      567.82757       16.459381     
      571.57211       16.598004     
      575.31665       16.653446     
      579.06119       16.164385     
      582.80574       14.856444     
      586.55028       12.753102     
      590.29482       10.143458     
      594.03936       7.4418766     
      597.78390       5.0238389     
      601.52844       3.1164242     
      605.27298       1.7750772     
      609.01752      0.92796776     
      612.76206      0.44514505     
      616.50660      0.19593357     
      620.25114      0.79213281E-001
      623.99568      0.29736857E-001
      627.74022      0.11458774E-001
      631.48476      0.78050400E-002
      635.22930      0.14396301E-001
      638.97385      0.35951345E-001
      642.71839      0.87013359E-001
      646.46293      0.19498559     
      650.20747      0.40271862     
      653.95201      0.76643788     
      657.69655       1.3443659     
      661.44109       2.1740051     
      665.18563       3.2427188     
      668.93017       4.4646894     
      672.67471       5.6814724     
      676.41925       6.6968153     
      680.16379       7.3387240     
      683.90833       7.5222343     
      687.65287       7.2796024     
      691.39742       6.7392588     
      695.14196       6.0640453     
      698.88650       5.3834850     
      702.63104       4.7565048     
      706.37558       4.1790242     
      710.12012       3.6217273     
      713.86466       3.0679990     
      717.60920       2.5290210     
      721.35374       2.0335781     
      725.09828       1.6072097     
      728.84282       1.2580195     
      732.58736      0.97671813     
      736.33190      0.74662060     
      740.07644      0.55418766     
      743.82099      0.39359570     
      747.56553      0.26500918     
      751.31007      0.17034432     
      755.05461      0.11041126     
      758.79915      0.84907899E-001
      762.54369      0.94320157E-001
      766.28823      0.14175425     
      770.03277      0.23300351     
      773.77731      0.37405118     
      777.52185      0.56628735     
      781.26639      0.80089158     
      785.01093       1.0549348     
      788.75547       1.2921437     
      792.50001       1.4700766     
      796.24455       1.5524823     
      799.98910       1.5221451     
      803.73364       1.3879625     
      807.47818       1.1821174     
      811.22272      0.94825470     
      814.96726      0.72641485     
      818.71180      0.54183985     
      822.45634      0.40190954     
      826.20088      0.30061586     
      829.94542      0.22643421     
      833.68996      0.16902312     
      837.43450      0.12229566     
      841.17904      0.84081486E-001
      844.92358      0.54151026E-001
      848.66812      0.32374430E-001
      852.41267      0.17872072E-001
      856.15721      0.90828560E-002
      859.90175      0.42429282E-002
      863.64629      0.18217644E-002
      867.39083      0.72402528E-003
      871.13537      0.28303112E-003
      874.87991      0.15502023E-003
      878.62445      0.20678534E-003
      882.36899      0.43945860E-003
      886.11353      0.94981175E-003
      889.85807      0.19075352E-002
      893.60261      0.35192598E-002
      897.34715      0.59564597E-002
      901.09169      0.92472976E-002
      904.83624      0.13168104E-001
      908.58078      0.17199369E-001
      912.32532      0.20605470E-001
      916.06986      0.22642964E-001
      919.81440      0.22822581E-001
      923.55894      0.21099734E-001
      927.30348      0.17892459E-001
      931.04802      0.13916963E-001
      934.79256      0.99289738E-002
      938.53710      0.64979771E-002
      942.28164      0.39027168E-002
      946.02618      0.21581774E-002
      949.77072      0.11238805E-002
      953.51526      0.63206118E-003
      957.25980      0.60393072E-003
      961.00435      0.11626919E-002
      964.74889      0.27754160E-002
      968.49343      0.64490180E-002
      972.23797      0.13974766E-001
      975.98251      0.28196255E-001
      979.72705      0.53333064E-001
      983.47159      0.95573214E-001
      987.21613      0.16435594     
      990.96067      0.27464958     
      994.70521      0.44960655     
      998.44975      0.72119123     
     1002.19429       1.1248025     
     1005.93883       1.6847339     
     1009.68337       2.3922341     
     1013.42792       3.1856030     
     1017.17246       3.9468027     
     1020.91700       4.5251596     
     1024.66154       4.7847593     
     1028.40608       4.6557757     
     1032.15062       4.1635201     
     1035.89516       3.4191944     
     1039.63970       2.5774147     
     1043.38424       1.7830568     
     1047.12878       1.1324621     
     1050.87332      0.66200513     
     1054.61786      0.36079177     
     1058.36240      0.19446012     
     1062.10694      0.12704923     
     1065.85149      0.13381945     
     1069.59603      0.20400588     
     1073.34057      0.33579495     
     1077.08511      0.52686350     
     1080.82965      0.76436588     
     1084.57419       1.0188595     
     1088.31873       1.2461621     
     1092.06327       1.3981929     
     1095.80781       1.4390218     
     1099.55235       1.3585289     
     1103.29689       1.1764380     
     1107.04143      0.93447158     
     1110.78597      0.68086130     
     1114.53051      0.45503619     
     1118.27506      0.27895325     
     1122.01960      0.15687475     
     1125.76414      0.80991135E-001
     1129.50868      0.38629601E-001
     1133.25322      0.17903383E-001
     1136.99776      0.10937613E-001
     1140.74230      0.15680836E-001
     1144.48684      0.38125027E-001
     1148.23138      0.96522990E-001
     1151.97592      0.22789530     
     1155.72046      0.49452535     
     1159.46500      0.98452323     
     1163.20954       1.7978623     
     1166.95408       3.0114045     
     1170.69862       4.6266076     
     1174.44317       6.5198409     
     1178.18771       8.4273711     
     1181.93225       9.9914409     
     1185.67679       10.865393     
     1189.42133       10.837908     
     1193.16587       9.9159264     
     1196.91041       8.3219848     
     1200.65495       6.4075202     
     1204.39949       4.5284305     
     1208.14403       2.9430304     
     1211.88857       1.7701438     
     1215.63311       1.0068886     
     1219.37765      0.57832957     
     1223.12219      0.38709306     
     1226.86674      0.34441730     
     1230.61128      0.38095145     
     1234.35582      0.44560825     
     1238.10036      0.50178542     
     1241.84490      0.52582868     
     1245.58944      0.50752160     
     1249.33398      0.44983900     
     1253.07852      0.36583484     
     1256.82306      0.27291952     
     1260.56760      0.18675680     
     1264.31214      0.11722013     
     1268.05668      0.67485374E-001
     1271.80122      0.35636751E-001
     1275.54576      0.17261055E-001
     1279.29031      0.76686223E-002
     1283.03485      0.31249861E-002
     1286.77939      0.11680449E-002
     1290.52393      0.40045319E-003
     1294.26847      0.12592869E-003
     1298.01301      0.36322719E-004
     1301.75755      0.96097651E-005
     1305.50209      0.23320006E-005
     1309.24663      0.51910238E-006
     1312.99117      0.10624230E-006
     1316.73571      0.21728325E-007
     1320.48025      0.15541842E-007
     1324.22479      0.72244963E-007
     1327.96933      0.38880359E-006
     1331.71387      0.19328720E-005
     1335.45842      0.88153343E-005
     1339.20296      0.36877154E-004
     1342.94750      0.14150012E-003
     1346.69204      0.49800872E-003
     1350.43658      0.16076734E-002
     1354.18112      0.47603561E-002
     1357.92566      0.12928907E-001
     1361.67020      0.32208088E-001
     1365.41474      0.73595105E-001
     1369.15928      0.15424602     
     1372.90382      0.29652451     
     1376.64836      0.52286575     
     1380.39290      0.84568082     
     1384.13744       1.2546406     
     1387.88199       1.7074770     
     1391.62653       2.1319764     
     1395.37107       2.4433495     
     1399.11561       2.5730601     
     1402.86015       2.4971846     
     1406.60469       2.2505227     
     1410.34923       1.9191650     
     1414.09377       1.6148270     
     1417.83831       1.4417280     
     1421.58285       1.4672079     
     1425.32739       1.7030178     
     1429.07193       2.1005197     
     1432.81647       2.5619870     
     1436.56101       2.9689038     
     1440.30556       3.2228997     
     1444.05010       3.2867149     
     1447.79464       3.2074278     
     1451.53918       3.1078228     
     1455.28372       3.1440329     
     1459.02826       3.4424815     
     1462.77280       4.0396805     
     1466.51734       4.8504287     
     1470.26188       5.6819878     
     1474.00642       6.2945838     
     1477.75096       6.4870091     
     1481.49550       6.1708445     
     1485.24004       5.3992555     
     1488.98458       4.3384351     
     1492.72913       3.1992236     
     1496.47367       2.1644157     
     1500.21821       1.3433205     
     1503.96275      0.76493687     
     1507.70729      0.40011754     
     1511.45183      0.19359016     
     1515.19637      0.90077215E-001
     1518.94091      0.48178381E-001
     1522.68545      0.43545493E-001
     1526.42999      0.65904705E-001
     1530.17453      0.11370177     
     1533.91907      0.18824622     
     1537.66361      0.28817023     
     1541.40815      0.40519596     
     1545.15269      0.52276963     
     1548.89724      0.61886845     
     1552.64178      0.67269934     
     1556.38632      0.67287002     
     1560.13086      0.62356036     
     1563.87540      0.54634600     
     1567.61994      0.47794449     
     1571.36448      0.46607685     
     1575.10902      0.56498325     
     1578.85356      0.82924906     
     1582.59810       1.3023416     
     1586.34264       1.9980181     
     1590.08718       2.8793155     
     1593.83172       3.8473397     
     1597.57626       4.7535839     
     1601.32081       5.4402628     
     1605.06535       5.7961397     
     1608.80989       5.8015166     
     1612.55443       5.5370183     
     1616.29897       5.1487893     
     1620.04351       4.7872835     
     1623.78805       4.5517619     
     1627.53259       4.4679252     
     1631.27713       4.5051208     
     1635.02167       4.6161248     
     1638.76621       4.7713539     
     1642.51075       4.9666463     
     1646.25529       5.2036095     
     1649.99983       5.4604370     
     1653.74438       5.6768904     
     1657.48892       5.7668609     
     1661.23346       5.6532327     
     1664.97800       5.3051992     
     1668.72254       4.7566035     
     1672.46708       4.0952093     
     1676.21162       3.4291094     
     1679.95616       2.8478681     
     1683.70070       2.3967406     
     1687.44524       2.0734075     
     1691.18978       1.8441483     
     1694.93432       1.6674224     
     1698.67886       1.5118080     
     1702.42340       1.3615894     
     1706.16794       1.2120659     
     1709.91249       1.0619854     
     1713.65703      0.90961234     
     1717.40157      0.75385821     
     1721.14611      0.59733141     
     1724.89065      0.44737507     
     1728.63519      0.31374438     
     1732.37973      0.20459405     
     1736.12427      0.12345694     
     1739.86881      0.68713718E-001
     1743.61335      0.35202444E-001
     1747.35789      0.16577925E-001
     1751.10243      0.71706050E-002
     1754.84697      0.28472503E-002
     1758.59151      0.10375301E-002
     1762.33606      0.34689259E-003
     1766.08060      0.10640340E-003
     1769.82514      0.29939831E-004
     1773.56968      0.77278087E-005
     1777.31422      0.18296335E-005
     1781.05876      0.39734239E-006
     1784.80330      0.79150565E-007
     1788.54784      0.14462006E-007
     1792.29238      0.24237439E-008
     1796.03692      0.37258948E-009
     1799.78146      0.52567006E-010
     1803.52600      0.71267437E-011
     1807.27054      0.39832309E-011
     1811.01508      0.27951550E-010
     1814.75963      0.22414655E-009
     1818.50417      0.16537507E-008
     1822.24871      0.11191938E-007
     1825.99325      0.69473865E-007
     1829.73779      0.39556547E-006
     1833.48233      0.20658369E-005
     1837.22687      0.98958795E-005
     1840.97141      0.43480398E-004
     1844.71595      0.17523197E-003
     1848.46049      0.64775970E-003
     1852.20503      0.21963180E-002
     1855.94957      0.68305750E-002
     1859.69411      0.19484983E-001
     1863.43865      0.50982783E-001
     1867.18320      0.12235670     
     1870.92774      0.26934736     
     1874.67228      0.54384911     
     1878.41682       1.0072212     
     1882.16136       1.7110079     
     1885.90590       2.6659985     
     1889.65044       3.8102066     
     1893.39498       4.9947974     
     1897.13952       6.0057598     
     1900.88406       6.6236714     
     1904.62860       6.7005480     
     1908.37314       6.2173112     
     1912.11768       5.2914612     
     1915.86222       4.1307543     
     1919.60676       2.9577662     
     1923.35131       1.9425806     
     1927.09585       1.1702401     
     1930.84039      0.64662375     
     1934.58493      0.32772461     
     1938.32947      0.15235166     
     1942.07401      0.64962997E-001
     1945.81855      0.25407717E-001
     1949.56309      0.91147755E-002
     1953.30763      0.29992111E-002
     1957.05217      0.90520892E-003
     1960.79671      0.25059439E-003
     1964.54125      0.63631858E-004
     1968.28579      0.14820354E-004
     1972.03033      0.31660904E-005
     1975.77488      0.62039567E-006
     1979.51942      0.11150515E-006
     1983.26396      0.18382385E-007
     1987.00850      0.27796461E-008
     1990.75304      0.38552973E-009
     1994.49758      0.49046383E-010
     1998.24212      0.57231723E-011
     2001.98666      0.61255825E-012
     2005.73120      0.60136576E-013
     2009.47574      0.54151530E-014
     2013.22028      0.44726354E-015
     2016.96482      0.33884181E-016
     2020.70936      0.23545680E-017
     2024.45390      0.15007425E-018
     2028.19845      0.87736819E-020
     2031.94299      0.47047690E-021
     2035.68753      0.23140645E-022
     2039.43207      0.10439828E-023
     2043.17661      0.43200818E-025
     2046.92115      0.16397262E-026
     2050.66569      0.57086236E-028
     2054.41023      0.18229394E-029
     2058.15477      0.53394161E-031
     2061.89931      0.14344851E-032
     2065.64385      0.35349157E-034
     2069.38839      0.79899268E-036
     2073.13293      0.16564841E-037
     2076.87747      0.31500139E-039
     2080.62201      0.54943765E-041
     2084.36656      0.87903280E-043
     2088.11110      0.12899488E-044
     2091.85564      0.17362834E-046
     2095.60018      0.21436283E-048
     2099.34472      0.24274991E-050
     2103.08926      0.25214444E-052
     2106.83380      0.24022625E-054
     2110.57834      0.20992891E-056
     2114.32288      0.16826925E-058
     2118.06742      0.12371376E-060
     2121.81196      0.83428033E-063
     2125.55650      0.51604398E-065
     2129.30104      0.29278051E-067
     2133.04558      0.15236259E-069
     2136.79013      0.72726931E-072
     2140.53467      0.31841455E-074
     2144.27921      0.12787077E-076
     2148.02375      0.47101028E-079
     2151.76829      0.15913665E-081
     2155.51283      0.49316335E-084
     2159.25737      0.14018195E-086
     2163.00191      0.36548884E-089
     2166.74645      0.87405123E-092
     2170.49099      0.19172572E-094
     2174.23553      0.38574883E-097
     2177.98007      0.71188456E-100
     2181.72461      0.12050228E-102
     2185.46915      0.18709479E-105
     2189.21370      0.26644578E-108
     2192.95824      0.34804607E-111
     2196.70278      0.41700892E-114
     2200.44732      0.45828400E-117
     2204.19186       0.0000000     
     2207.93640       0.0000000     
     2211.68094       0.0000000     
     2215.42548       0.0000000     
     2219.17002       0.0000000     
     2222.91456       0.0000000     
     2226.65910       0.0000000     
     2230.40364       0.0000000     
     2234.14818       0.0000000     
     2237.89272       0.0000000     
     2241.63727       0.0000000     
     2245.38181       0.0000000     
     2249.12635       0.0000000     
     2252.87089       0.0000000     
     2256.61543       0.0000000     
     2260.35997       0.0000000     
     2264.10451       0.0000000     
     2267.84905       0.0000000     
     2271.59359       0.0000000     
     2275.33813       0.0000000     
     2279.08267       0.0000000     
     2282.82721       0.0000000     
     2286.57175       0.0000000     
     2290.31629       0.0000000     
     2294.06083       0.0000000     
     2297.80538       0.0000000     
     2301.54992       0.0000000     
     2305.29446       0.0000000     
     2309.03900       0.0000000     
     2312.78354       0.0000000     
     2316.52808       0.0000000     
     2320.27262       0.0000000     
     2324.01716       0.0000000     
     2327.76170       0.0000000     
     2331.50624       0.0000000     
     2335.25078       0.0000000     
     2338.99532       0.0000000     
     2342.73986       0.0000000     
     2346.48440       0.0000000     
     2350.22895       0.0000000     
     2353.97349       0.0000000     
     2357.71803       0.0000000     
     2361.46257       0.0000000     
     2365.20711       0.0000000     
     2368.95165       0.0000000     
     2372.69619       0.0000000     
     2376.44073       0.0000000     
     2380.18527       0.0000000     
     2383.92981       0.0000000     
     2387.67435       0.0000000     
     2391.41889       0.0000000     
     2395.16343       0.0000000     
     2398.90797       0.0000000     
     2402.65252       0.0000000     
     2406.39706       0.0000000     
     2410.14160       0.0000000     
     2413.88614       0.0000000     
     2417.63068       0.0000000     
     2421.37522       0.0000000     
     2425.11976       0.0000000     
     2428.86430       0.0000000     
     2432.60884       0.0000000     
     2436.35338       0.0000000     
     2440.09792       0.0000000     
     2443.84246       0.0000000     
     2447.58700       0.0000000     
     2451.33154       0.0000000     
     2455.07608       0.0000000     
     2458.82063       0.0000000     
     2462.56517       0.0000000     
     2466.30971       0.0000000     
     2470.05425       0.0000000     
     2473.79879       0.0000000     
     2477.54333       0.0000000     
     2481.28787       0.0000000     
     2485.03241       0.0000000     
     2488.77695       0.0000000     
     2492.52149       0.0000000     
     2496.26603       0.0000000     
     2500.01057       0.0000000     
     2503.75511       0.0000000     
     2507.49965       0.0000000     
     2511.24420       0.0000000     
     2514.98874       0.0000000     
     2518.73328       0.0000000     
     2522.47782       0.0000000     
     2526.22236       0.0000000     
     2529.96690       0.0000000     
     2533.71144       0.0000000     
     2537.45598       0.0000000     
     2541.20052       0.0000000     
     2544.94506       0.0000000     
     2548.68960       0.0000000     
     2552.43414       0.0000000     
     2556.17868      0.26454059E-118
     2559.92322      0.25072683E-115
     2563.66777      0.21796663E-112
     2567.41231      0.17380407E-109
     2571.15685      0.12711905E-106
     2574.90139      0.85278987E-104
     2578.64593      0.52475208E-101
     2582.39047      0.29617407E-098
     2586.13501      0.15332770E-095
     2589.87955      0.72807307E-093
     2593.62409      0.31711007E-090
     2597.36863      0.12668518E-087
     2601.11317      0.46421840E-085
     2604.85771      0.15602695E-082
     2608.60225      0.48101387E-080
     2612.34679      0.13601798E-077
     2616.09134      0.35278960E-075
     2619.83588      0.83929755E-073
     2623.58042      0.18314576E-070
     2627.32496      0.36657135E-068
     2631.06950      0.67297804E-066
     2634.81404      0.11332455E-063
     2638.55858      0.17503619E-061
     2642.30312      0.24797758E-059
     2646.04766      0.32223872E-057
     2649.79220      0.38408183E-055
     2653.53674      0.41990451E-053
     2657.28128      0.42107362E-051
     2661.02582      0.38729891E-049
     2664.77036      0.32674973E-047
     2668.51490      0.25285115E-045
     2672.25945      0.17947144E-043
     2676.00399      0.11684403E-041
     2679.74853      0.69774769E-040
     2683.49307      0.38218271E-038
     2687.23761      0.19201024E-036
     2690.98215      0.88482721E-035
     2694.72669      0.37400145E-033
     2698.47123      0.14500028E-031
     2702.21577      0.51563824E-030
     2705.96031      0.16819076E-028
     2709.70485      0.50319912E-027
     2713.44939      0.13808877E-025
     2717.19393      0.34758222E-024
     2720.93847      0.80248606E-023
     2724.68302      0.16994100E-021
     2728.42756      0.33009547E-020
     2732.17210      0.58811425E-019
     2735.91664      0.96109113E-018
     2739.66118      0.14406158E-016
     2743.40572      0.19806717E-015
     2747.15026      0.24977994E-014
     2750.89480      0.28892382E-013
     2754.63934      0.30654192E-012
     2758.38388      0.29831640E-011
     2762.12842      0.26628403E-010
     2765.87296      0.21801875E-009
     2769.61750      0.16372812E-008
     2773.36204      0.11278036E-007
     2777.10659      0.71256483E-007
     2780.85113      0.41294863E-006
     2784.59567      0.21950702E-005
     2788.34021      0.10702408E-004
     2792.08475      0.47862498E-004
     2795.82929      0.19633148E-003
     2799.57383      0.73869513E-003
     2803.31837      0.25493019E-002
     2807.06291      0.80697120E-002
     2810.80745      0.23430175E-001
     2814.55199      0.62398445E-001
     2818.29653      0.15242378     
     2822.04107      0.34151708     
     2825.78561      0.70186381     
     2829.53015       1.3230431     
     2833.27470       2.2875779     
     2837.01924       3.6279268     
     2840.76378       5.2774225     
     2844.50832       7.0415125     
     2848.25286       8.6176880     
     2851.99740       9.6737824     
     2855.74194       9.9605334     
     2859.48648       9.4069667     
     2863.23102       8.1488692     
     2866.97556       6.4747920     
     2870.72010       4.7188376     
     2874.46464       3.1544596     
     2878.20918       1.9341744     
     2881.95372       1.0877949     
     2885.69827      0.56115026     
     2889.44281      0.26551682     
     2893.18735      0.11523532     
     2896.93189      0.45873297E-001
     2900.67643      0.16750008E-001
     2904.42097      0.56098442E-002
     2908.16551      0.17233255E-002
     2911.91005      0.48558424E-003
     2915.65459      0.12549966E-003
     2919.39913      0.29750980E-004
     2923.14367      0.64690533E-005
     2926.88821      0.12902115E-005
     2930.63275      0.23602707E-006
     2934.37729      0.39604403E-007
     2938.12184      0.60954510E-008
     2941.86638      0.86049619E-009
     2945.61092      0.11142247E-009
     2949.35546      0.13233580E-010
     2953.10000      0.14416594E-011
     2956.84454      0.14405512E-012
     2960.58908      0.13203086E-013
     2964.33362      0.11099488E-014
     2968.07816      0.85587667E-016
     2971.82270      0.60534108E-017
     2975.56724      0.39270808E-018
     2979.31178      0.23367931E-019
     2983.05632      0.12754147E-020
     2986.80086      0.63850354E-022
     2990.54541      0.29319457E-023
     2994.28995      0.12348929E-024
     2998.03449      0.47707137E-026
     3001.77903      0.16905117E-027
     3005.52357      0.54945701E-029
     3009.26811      0.16380607E-030
     3013.01265      0.44792676E-032
     3016.75719      0.11234784E-033
     3020.50173      0.25846588E-035
     3024.24627      0.54540915E-037
     3027.99081      0.10556558E-038
     3031.73535      0.18741443E-040
     3035.47989      0.30518587E-042
     3039.22443      0.45583383E-044
     3042.96897      0.62449565E-046
     3046.71352      0.78475304E-048
     3050.45806      0.90451825E-050
     3054.20260      0.95627409E-052
     3057.94714      0.92731691E-054
     3061.69168      0.82481149E-056
     3065.43622      0.67291770E-058
     3069.18076      0.50355851E-060
     3072.92530      0.34563575E-062
     3076.66984      0.21760461E-064
     3080.41438      0.12566035E-066
     3084.15892      0.66559368E-069
     3087.90346      0.32337082E-071
     3091.64800      0.14410306E-073
     3095.39254      0.58901494E-076
     3099.13709      0.22083105E-078
     3102.88163      0.75940721E-081
     3106.62617      0.23953557E-083
     3110.37071      0.69302091E-086
     3114.11525      0.20305725E-088
     3117.85979      0.72659701E-087
     3121.60433      0.25286210E-084
     3125.34887      0.80720040E-082
     3129.09341      0.23635224E-079
     3132.83795      0.63477355E-077
     3136.58249      0.15637187E-074
     3140.32703      0.35332893E-072
     3144.07157      0.73228558E-070
     3147.81611      0.13920746E-067
     3151.56066      0.24273100E-065
     3155.30520      0.38821180E-063
     3159.04974      0.56949897E-061
     3162.79428      0.76629834E-059
     3166.53882      0.94576571E-057
     3170.28336      0.10706560E-054
     3174.02790      0.11117243E-052
     3177.77244      0.10588269E-050
     3181.51698      0.92498264E-049
     3185.26152      0.74117868E-047
     3189.00606      0.54474466E-045
     3192.75060      0.36723476E-043
     3196.49514      0.22707813E-041
     3200.23968      0.12879161E-039
     3203.98422      0.67000889E-038
     3207.72877      0.31970858E-036
     3211.47331      0.13992933E-034
     3215.21785      0.56175110E-033
     3218.96239      0.20685206E-031
     3222.70693      0.69864491E-030
     3226.45147      0.21643818E-028
     3230.19601      0.61502391E-027
     3233.94055      0.16029901E-025
     3237.68509      0.38322199E-024
     3241.42963      0.84033167E-023
     3245.17417      0.16901754E-021
     3248.91871      0.31181252E-020
     3252.66325      0.52763798E-019
     3256.40779      0.81895357E-018
     3260.15234      0.11659052E-016
     3263.89688      0.15224672E-015
     3267.64142      0.18235320E-014
     3271.38596      0.20033625E-013
     3275.13050      0.20187681E-012
     3278.87504      0.18659245E-011
     3282.61958      0.15819124E-010
     3286.36412      0.12301314E-009
     3290.10866      0.87740747E-009
     3293.85320      0.57402642E-008
     3297.59774      0.34446346E-007
     3301.34228      0.18959862E-006
     3305.08682      0.95721155E-006
     3308.83136      0.44326292E-005
     3312.57591      0.18827628E-004
     3316.32045      0.73351764E-004
     3320.06499      0.26212367E-003
     3323.80953      0.85917699E-003
     3327.55407      0.25830914E-002
     3331.29861      0.71232411E-002
     3335.04315      0.18017571E-001
     3338.78769      0.41801857E-001
     3342.53223      0.88956081E-001
     3346.27677      0.17363467     
     3350.02131      0.31086939     
     3353.76585      0.51050526     
     3357.51039      0.76895906     
     3361.25493       1.0623972     
     3364.99948       1.3463296     
     3368.74402       1.5649360     
     3372.48856       1.6684857     
     3376.23310       1.6316580     
     3379.97764       1.4635802     
     3383.72218       1.2041612     
     3387.46672      0.90872710     
     3391.21126      0.62901798     
     3394.95580      0.39936810     
     3398.70034      0.23257577     
     3402.44488      0.12423297     
     3406.18942      0.60868978E-001
     3409.93396      0.27358842E-001
     3413.67850      0.11295846E-001
     3417.42304      0.43426527E-002
     3421.16759      0.17634272E-002
     3424.91213      0.14072514E-002
     3428.65667      0.29628376E-002
     3432.40121      0.78527434E-002
     3436.14575      0.19839713E-001
     3439.89029      0.46151954E-001
     3443.63483      0.98511411E-001
     3447.37937      0.19287649     
     3451.12391      0.34638119     
     3454.86845      0.57057164     
     3458.61299      0.86207849     
     3462.35753       1.1947146     
     3466.10207       1.5186660     
     3469.84661       1.7706841     
     3473.59116       1.8936540     
     3477.33570       1.8575519     
     3481.08024       1.6713294     
     3484.82478       1.3793176     
     3488.56932       1.0441163     
     3492.31386      0.72497323     
     3496.05840      0.46175540     
     3499.80294      0.26986792     
     3503.54748      0.14492897     
     3507.29202      0.71988648E-001
     3511.03656      0.34052141E-001
     3514.78110      0.17163993E-001
     3518.52564      0.11959932E-001
     3522.27018      0.12994943E-001
     3526.01473      0.17280856E-001
     3529.75927      0.22968776E-001
     3533.50381      0.28569485E-001
     3537.24835      0.32738077E-001
     3540.99289      0.34442549E-001
     3544.73743      0.33243470E-001
     3548.48197      0.29431817E-001
     3552.22651      0.23900809E-001
     3555.97105      0.17802858E-001
     3559.71559      0.12163198E-001
     3563.46013      0.76223096E-002
     3567.20467      0.43813318E-002
     3570.94921      0.23099705E-002
     3574.69375      0.11170882E-002
     3578.43829      0.49550633E-003
     3582.18284      0.20160054E-003
     3585.92738      0.75234131E-004
     3589.67192      0.25752468E-004
     3593.41646      0.80854378E-005
     3597.16100      0.23284609E-005
     3600.90554      0.61505662E-006
     3604.65008      0.14901911E-006
     3608.39462      0.33116892E-007
     3612.13916      0.67505307E-008
     3615.88370      0.12621384E-008
     3619.62824      0.21644960E-009
     3623.37278      0.34047664E-010
     3627.11732      0.49124550E-011
     3630.86186      0.65011560E-012
     3634.60641      0.78915682E-013
     3638.35095      0.87865174E-014
     3642.09549      0.89732748E-015
     3645.84003      0.84055452E-016
     3649.58457      0.72220675E-017
     3653.32911      0.56916467E-018
     3657.07365      0.41142914E-019
     3660.81819      0.27279280E-020
     3664.56273      0.16590195E-021
     3668.30727      0.92544539E-023
     3672.05181      0.47351184E-024
     3675.79635      0.22222434E-025
     3679.54089      0.95660607E-027
     3683.28543      0.37770799E-028
     3687.02998      0.13706997E-029
     3690.77452      0.14776031E-030
     3694.51906      0.34467634E-029
     3698.26360      0.10641299E-027
     3702.00814      0.30146210E-026
     3705.75268      0.78334248E-025
     3709.49722      0.18670304E-023
     3713.24176      0.40816128E-022
     3716.98630      0.81845153E-021
     3720.73084      0.15053409E-019
     3724.47538      0.25395542E-018
     3728.21992      0.39297130E-017
     3731.96446      0.55775687E-016
     3735.70900      0.72612225E-015
     3739.45355      0.86707227E-014
     3743.19809      0.94968937E-013
     3746.94263      0.95408834E-012
     3750.68717      0.87917704E-011
     3754.43171      0.74309581E-010
     3758.17625      0.57609489E-009
     3761.92079      0.40966038E-008
     3765.66533      0.26719888E-007
     3769.40987      0.15985493E-006
     3773.15441      0.87719909E-006
     3776.89895      0.44152067E-005
     3780.64349      0.20383776E-004
     3784.38803      0.86317524E-004
     3788.13257      0.33526950E-003
     3791.87711      0.11944552E-002
     3795.62166      0.39032505E-002
     3799.36620      0.11699405E-001
     3803.11074      0.32164886E-001
     3806.85528      0.81111293E-001
     3810.59982      0.18761266     
     3814.34436      0.39803897     
     3818.08890      0.77459418     
     3821.83344       1.3826562     
     3825.57798       2.2639148     
     3829.32252       3.4005308     
     3833.06706       4.6865929     
     3836.81160       5.9291265     
     3840.55614       6.8932514     
     3844.30068       7.3841050     
     3848.04523       7.3335050     
     3851.78977       6.8496357     
     3855.53431       6.2024471     
     3859.27885       5.7476688     
     3863.02339       5.8190954     
     3866.76793       6.6280737     
     3870.51247       8.2017068     
     3874.25701       10.376990     
     3878.00155       12.853321     
     3881.74609       15.289634     
     3885.49063       17.414431     
     3889.23517       19.105135     
     3892.97971       20.400617     
     3896.72425       21.441191     
     3900.46880       22.369523     
     3904.21334       23.247581     
     3907.95788       24.031411     
     3911.70242       24.605463     
     3915.44696       24.840985     
     3919.19150       24.636566     
     3922.93604       23.924835     
     3926.68058       22.662601     
     3930.42512       20.833164     
     3934.16966       18.471639     
     3937.91420       15.695727     
     3941.65874       12.711715     
     3945.40328       9.7792529     
     3949.14782       7.1464864     
     3952.89236       4.9870064     
     3956.63691       3.3681309     
     3960.38145       2.2600179     
     3964.12599       1.5727744     
     3967.87053       1.1982456     
     3971.61507       1.0380908     
     3975.35961       1.0131833     
     3979.10415       1.0610821     
     3982.84869       1.1319180     
     3986.59323       1.1887975     
     3990.33777       1.2117821     
     3994.08231       1.2001739     
     3997.82685       1.1687147     
     4001.57139       1.1377857     
     4005.31593       1.1219989     
     4009.06048       1.1227127     
     4012.80502       1.1276603     
     4016.54956       1.1170484     
     4020.29410       1.0725613     
     4024.03864      0.98498458     
     4027.78318      0.85747892     
     4031.52772      0.70384044     
     4035.27226      0.54322180     
     4039.01680      0.39392574     
     4042.76134      0.26872956     
     4046.50588      0.17305348     
     4050.25042      0.10584641     
     4053.99496      0.62047747E-001
     4057.73950      0.35251217E-001
     4061.48405      0.19620483E-001
     4065.22859      0.10768970E-001
     4068.97313      0.58231523E-002
     4072.71767      0.30758699E-002
     4076.46221      0.15667222E-002
     4080.20675      0.75929281E-003
     4083.95129      0.34617640E-003
     4087.69583      0.14722427E-003
     4091.44037      0.58064059E-004
     4095.18491      0.21153970E-004
     4098.92945      0.71013093E-005
     4102.67399      0.21930345E-005
     4106.41853      0.62239259E-006
     4110.16307      0.16222123E-006
     4113.90762      0.38814134E-007
     4117.65216      0.85229655E-008
     4121.39670      0.17172417E-008
     4125.14124      0.31743885E-009
     4128.88578      0.53832198E-010
     4132.63032      0.83744143E-011
     4136.37486      0.11950373E-011
     4140.11940      0.15642731E-012
