      386.29580      0.27182704     
      386.47580      0.26672557     
      386.65580      0.26175302     
      386.83580      0.25690760     
      387.01580      0.25218754     
      387.19580      0.24759109     
      387.37580      0.24311654     
      387.55580      0.23876221     
      387.73580      0.23452646     
      387.91580      0.23040767     
      388.09580      0.22640427     
      388.27580      0.22251473     
      388.45580      0.21873753     
      388.63580      0.21507123     
      388.81580      0.21151440     
      388.99580      0.20806567     
      389.17580      0.20472372     
      389.35580      0.20148725     
      389.53580      0.19835504     
      389.71580      0.19532588     
      389.89580      0.19239865     
      390.07580      0.18957225     
      390.25580      0.18684565     
      390.43580      0.18421787     
      390.61580      0.18168797     
      390.79580      0.17925509     
      390.97580      0.17691841     
      391.15580      0.17467717     
      391.33580      0.17253068     
      391.51580      0.17047830     
      391.69580      0.16851945     
      391.87580      0.16665363     
      392.05580      0.16488039     
      392.23580      0.16319933     
      392.41580      0.16161016     
      392.59580      0.16011261     
      392.77580      0.15870651     
      392.95580      0.15739173     
      393.13580      0.15616825     
      393.31580      0.15503609     
      393.49580      0.15399534     
      393.67580      0.15304618     
      393.85580      0.15218885     
      394.03580      0.15142367     
      394.21580      0.15075104     
      394.39580      0.15017143     
      394.57580      0.14968537     
      394.75580      0.14929350     
      394.93580      0.14899651     
      395.11580      0.14879517     
      395.29580      0.14869036     
      395.47580      0.14868299     
      395.65580      0.14877408     
      395.83580      0.14896473     
      396.01580      0.14925612     
      396.19580      0.14964949     
      396.37580      0.15014617     
      396.55580      0.15074760     
      396.73580      0.15145526     
      396.91580      0.15227074     
      397.09580      0.15319568     
      397.27580      0.15423185     
      397.45580      0.15538106     
      397.63580      0.15664521     
      397.81580      0.15802630     
      397.99580      0.15952640     
      398.17580      0.16114765     
      398.35580      0.16289228     
      398.53580      0.16476262     
      398.71580      0.16676105     
      398.89580      0.16889005     
      399.07580      0.17115218     
      399.25580      0.17355006     
      399.43580      0.17608641     
      399.61580      0.17876403     
      399.79580      0.18158578     
      399.97580      0.18455461     
      400.15580      0.18767355     
      400.33580      0.19094569     
      400.51580      0.19437421     
      400.69580      0.19796236     
      400.87580      0.20171346     
      401.05580      0.20563091     
      401.23580      0.20971818     
      401.41580      0.21397879     
      401.59580      0.21841635     
      401.77580      0.22303455     
      401.95580      0.22783710     
      402.13580      0.23282783     
      402.31580      0.23801059     
      402.49580      0.24338931     
      402.67580      0.24896799     
      402.85580      0.25475067     
      403.03580      0.26074146     
      403.21580      0.26694451     
      403.39580      0.27336404     
      403.57580      0.28000431     
      403.75580      0.28686964     
      403.93580      0.29396438     
      404.11580      0.30129295     
      404.29580      0.30885979     
      404.47580      0.31666938     
      404.65580      0.32472626     
      404.83580      0.33303499     
      405.01580      0.34160016     
      405.19580      0.35042640     
      405.37580      0.35951836     
      405.55580      0.36888072     
      405.73580      0.37851819     
      405.91580      0.38843547     
      406.09580      0.39863731     
      406.27580      0.40912845     
      406.45580      0.41991366     
      406.63580      0.43099771     
      406.81580      0.44238535     
      406.99580      0.45408137     
      407.17580      0.46609053     
      407.35580      0.47841759     
      407.53580      0.49106730     
      407.71580      0.50404440     
      407.89580      0.51735361     
      408.07580      0.53099964     
      408.25580      0.54498715     
      408.43580      0.55932079     
      408.61580      0.57400518     
      408.79580      0.58904489     
      408.97580      0.60444447     
      409.15580      0.62020841     
      409.33580      0.63634114     
      409.51580      0.65284708     
      409.69580      0.66973055     
      409.87580      0.68699583     
      410.05580      0.70464713     
      410.23580      0.72268860     
      410.41580      0.74112431     
      410.59580      0.75995824     
      410.77580      0.77919431     
      410.95580      0.79883635     
      411.13580      0.81888808     
      411.31580      0.83935315     
      411.49580      0.86023510     
      411.67580      0.88153737     
      411.85580      0.90326328     
      412.03580      0.92541606     
      412.21580      0.94799880     
      412.39580      0.97101448     
      412.57580      0.99446597     
      412.75580       1.0183560     
      412.93580       1.0426871     
      413.11580       1.0674619     
      413.29580       1.0926825     
      413.47580       1.1183512     
      413.65580       1.1444700     
      413.83580       1.1710407     
      414.01580       1.1980651     
      414.19580       1.2255447     
      414.37580       1.2534810     
      414.55580       1.2818750     
      414.73580       1.3107279     
      414.91580       1.3400405     
      415.09580       1.3698136     
      415.27580       1.4000475     
      415.45580       1.4307427     
      415.63580       1.4618993     
      415.81580       1.4935171     
      415.99580       1.5255960     
      416.17580       1.5581356     
      416.35580       1.5911350     
      416.53580       1.6245935     
      416.71580       1.6585101     
      416.89580       1.6928834     
      417.07580       1.7277120     
      417.25580       1.7629941     
      417.43580       1.7987279     
      417.61580       1.8349112     
      417.79580       1.8715418     
      417.97580       1.9086169     
      418.15580       1.9461340     
      418.33580       1.9840899     
      418.51580       2.0224814     
      418.69580       2.0613051     
      418.87580       2.1005574     
      419.05580       2.1402342     
      419.23580       2.1803316     
      419.41580       2.2208451     
      419.59580       2.2617703     
      419.77580       2.3031022     
      419.95580       2.3448360     
      420.13580       2.3869663     
      420.31580       2.4294877     
      420.49580       2.4723945     
      420.67580       2.5156808     
      420.85580       2.5593405     
      421.03580       2.6033672     
      421.21580       2.6477544     
      421.39580       2.6924954     
      421.57580       2.7375831     
      421.75580       2.7830103     
      421.93580       2.8287697     
      422.11580       2.8748536     
      422.29580       2.9212542     
      422.47580       2.9679636     
      422.65580       3.0149735     
      422.83580       3.0622755     
      423.01580       3.1098610     
      423.19580       3.1577214     
      423.37580       3.2058475     
      423.55580       3.2542302     
      423.73580       3.3028604     
      423.91580       3.3517284     
      424.09580       3.4008246     
      424.27580       3.4501392     
      424.45580       3.4996623     
      424.63580       3.5493836     
      424.81580       3.5992930     
      424.99580       3.6493800     
      425.17580       3.6996341     
      425.35580       3.7500445     
      425.53580       3.8006005     
      425.71580       3.8512911     
      425.89580       3.9021051     
      426.07580       3.9530316     
      426.25580       4.0040591     
      426.43580       4.0551762     
      426.61580       4.1063716     
      426.79580       4.1576336     
      426.97580       4.2089505     
      427.15580       4.2603106     
      427.33580       4.3117021     
      427.51580       4.3631131     
      427.69580       4.4145316     
      427.87580       4.4659457     
      428.05580       4.5173432     
      428.23580       4.5687122     
      428.41580       4.6200403     
      428.59580       4.6713156     
      428.77580       4.7225257     
      428.95580       4.7736584     
      429.13580       4.8247015     
      429.31580       4.8756427     
      429.49580       4.9264698     
      429.67580       4.9771705     
      429.85580       5.0277326     
      430.03580       5.0781437     
      430.21580       5.1283918     
      430.39580       5.1784646     
      430.57580       5.2283498     
      430.75580       5.2780355     
      430.93580       5.3275094     
      431.11580       5.3767596     
      431.29580       5.4257739     
      431.47580       5.4745405     
      431.65580       5.5230475     
      431.83580       5.5712830     
      432.01580       5.6192352     
      432.19580       5.6668926     
      432.37580       5.7142434     
      432.55580       5.7612761     
      432.73580       5.8079793     
      432.91580       5.8543416     
      433.09580       5.9003518     
      433.27580       5.9459988     
      433.45580       5.9912714     
      433.63580       6.0361587     
      433.81580       6.0806498     
      433.99580       6.1247342     
      434.17580       6.1684011     
      434.35580       6.2116401     
      434.53580       6.2544407     
      434.71580       6.2967929     
      434.89580       6.3386865     
      435.07580       6.3801115     
      435.25580       6.4210582     
      435.43580       6.4615168     
      435.61580       6.5014778     
      435.79580       6.5409318     
      435.97580       6.5798696     
      436.15580       6.6182821     
      436.33580       6.6561604     
      436.51580       6.6934957     
      436.69580       6.7302794     
      436.87580       6.7665031     
      437.05580       6.8021584     
      437.23580       6.8372373     
      437.41580       6.8717318     
      437.59580       6.9056342     
      437.77580       6.9389369     
      437.95580       6.9716323     
      438.13580       7.0037134     
      438.31580       7.0351731     
      438.49580       7.0660044     
      438.67580       7.0962006     
      438.85580       7.1257554     
      439.03580       7.1546623     
      439.21580       7.1829153     
      439.39580       7.2105084     
      439.57580       7.2374359     
      439.75580       7.2636922     
      439.93580       7.2892720     
      440.11580       7.3141702     
      440.29580       7.3383818     
      440.47580       7.3619022     
      440.65580       7.3847266     
      440.83580       7.4068510     
      441.01580       7.4282711     
      441.19580       7.4489830     
      441.37580       7.4689831     
      441.55580       7.4882679     
      441.73580       7.5068342     
      441.91580       7.5246788     
      442.09580       7.5417991     
      442.27580       7.5581924     
      442.45580       7.5738564     
      442.63580       7.5887889     
      442.81580       7.6029880     
      442.99580       7.6164521     
      443.17580       7.6291796     
      443.35580       7.6411694     
      443.53580       7.6524205     
      443.71580       7.6629322     
      443.89580       7.6727040     
      444.07580       7.6817355     
      444.25580       7.6900268     
      444.43580       7.6975782     
      444.61580       7.7043900     
      444.79580       7.7104630     
      444.97580       7.7157982     
      445.15580       7.7203967     
      445.33580       7.7242601     
      445.51580       7.7273900     
      445.69580       7.7297885     
      445.87580       7.7314577     
      446.05580       7.7324001     
      446.23580       7.7326185     
      446.41580       7.7321159     
      446.59580       7.7308954     
      446.77580       7.7289607     
      446.95580       7.7263155     
      447.13580       7.7229637     
      447.31580       7.7189097     
      447.49580       7.7141581     
      447.67580       7.7087136     
      447.85580       7.7025812     
      448.03580       7.6957664     
      448.21580       7.6882746     
      448.39580       7.6801117     
      448.57580       7.6712838     
      448.75580       7.6617972     
      448.93580       7.6516585     
      449.11580       7.6408746     
      449.29580       7.6294524     
      449.47580       7.6173995     
      449.65580       7.6047233     
      449.83580       7.5914316     
      450.01580       7.5775326     
      450.19580       7.5630345     
      450.37580       7.5479458     
      450.55580       7.5322753     
      450.73580       7.5160319     
      450.91580       7.4992250     
      451.09580       7.4818638     
      451.27580       7.4639580     
      451.45580       7.4455175     
      451.63580       7.4265523     
      451.81580       7.4070726     
      451.99580       7.3870888     
      452.17580       7.3666116     
      452.35580       7.3456518     
      452.53580       7.3242202     
      452.71580       7.3023281     
      452.89580       7.2799867     
      453.07580       7.2572075     
      453.25580       7.2340021     
      453.43580       7.2103821     
      453.61580       7.1863594     
      453.79580       7.1619460     
      453.97580       7.1371540     
      454.15580       7.1119955     
      454.33580       7.0864829     
      454.51580       7.0606285     
      454.69580       7.0344447     
      454.87580       7.0079441     
      455.05580       6.9811392     
      455.23580       6.9540427     
      455.41580       6.9266672     
      455.59580       6.8990254     
      455.77580       6.8711300     
      455.95580       6.8429937     
      456.13580       6.8146292     
      456.31580       6.7860492     
      456.49580       6.7572664     
      456.67580       6.7282935     
      456.85580       6.6991429     
      457.03580       6.6698273     
      457.21580       6.6403591     
      457.39580       6.6107508     
      457.57580       6.5810145     
      457.75580       6.5511626     
      457.93580       6.5212071     
      458.11580       6.4911600     
      458.29580       6.4610332     
      458.47580       6.4308382     
      458.65580       6.4005868     
      458.83580       6.3702902     
      459.01580       6.3399598     
      459.19580       6.3096064     
      459.37580       6.2792410     
      459.55580       6.2488742     
      459.73580       6.2185164     
      459.91580       6.1881778     
      460.09580       6.1578683     
      460.27580       6.1275978     
      460.45580       6.0973756     
      460.63580       6.0672110     
      460.81580       6.0371129     
      460.99580       6.0070901     
      461.17580       5.9771508     
      461.35580       5.9473033     
      461.53580       5.9175554     
      461.71580       5.8879144     
      461.89580       5.8583877     
      462.07580       5.8289822     
      462.25580       5.7997043     
      462.43580       5.7705604     
      462.61580       5.7415564     
      462.79580       5.7126977     
      462.97580       5.6839897     
      463.15580       5.6554373     
      463.33580       5.6270450     
      463.51580       5.5988170     
      463.69580       5.5707572     
      463.87580       5.5428690     
      464.05580       5.5151557     
      464.23580       5.4876200     
      464.41580       5.4602643     
      464.59580       5.4330908     
      464.77580       5.4061011     
      464.95580       5.3792967     
      465.13580       5.3526786     
      465.31580       5.3262474     
      465.49580       5.3000035     
      465.67580       5.2739469     
      465.85580       5.2480773     
      466.03580       5.2223939     
      466.21580       5.1968957     
      466.39580       5.1715814     
      466.57580       5.1464493     
      466.75580       5.1214974     
      466.93580       5.0967235     
      467.11580       5.0721248     
      467.29580       5.0476985     
      467.47580       5.0234414     
      467.65580       4.9993500     
      467.83580       4.9754206     
      468.01580       4.9516491     
      468.19580       4.9280312     
      468.37580       4.9045624     
      468.55580       4.8812379     
      468.73580       4.8580527     
      468.91580       4.8350016     
      469.09580       4.8120791     
      469.27580       4.7892796     
      469.45580       4.7665972     
      469.63580       4.7440259     
      469.81580       4.7215595     
      469.99580       4.6991917     
      470.17580       4.6769159     
      470.35580       4.6547256     
      470.53580       4.6326140     
      470.71580       4.6105741     
      470.89580       4.5885991     
      471.07580       4.5666819     
      471.25580       4.5448153     
      471.43580       4.5229921     
      471.61580       4.5012052     
      471.79580       4.4794471     
      471.97580       4.4577107     
      472.15580       4.4359885     
      472.33580       4.4142732     
      472.51580       4.3925575     
      472.69580       4.3708341     
      472.87580       4.3490957     
      473.05580       4.3273350     
      473.23580       4.3055450     
      473.41580       4.2837185     
      473.59580       4.2618484     
      473.77580       4.2399279     
      473.95580       4.2179500     
      474.13580       4.1959081     
      474.31580       4.1737955     
      474.49580       4.1516058     
      474.67580       4.1293326     
      474.85580       4.1069697     
      475.03580       4.0845112     
      475.21580       4.0619512     
      475.39580       4.0392840     
      475.57580       4.0165041     
      475.75580       3.9936062     
      475.93580       3.9705852     
      476.11580       3.9474363     
      476.29580       3.9241548     
      476.47580       3.9007362     
      476.65580       3.8771765     
      476.83580       3.8534715     
      477.01580       3.8296175     
      477.19580       3.8056112     
      477.37580       3.7814492     
      477.55580       3.7571286     
      477.73580       3.7326468     
      477.91580       3.7080011     
      478.09580       3.6831895     
      478.27580       3.6582101     
      478.45580       3.6330612     
      478.63580       3.6077415     
      478.81580       3.5822499     
      478.99580       3.5565856     
      479.17580       3.5307480     
      479.35580       3.5047369     
      479.53580       3.4785524     
      479.71580       3.4521947     
      479.89580       3.4256645     
      480.07580       3.3989625     
      480.25580       3.3720900     
      480.43580       3.3450483     
      480.61580       3.3178391     
      480.79580       3.2904643     
      480.97580       3.2629262     
      481.15580       3.2352272     
      481.33580       3.2073699     
      481.51580       3.1793575     
      481.69580       3.1511931     
      481.87580       3.1228801     
      482.05580       3.0944223     
      482.23580       3.0658236     
      482.41580       3.0370882     
      482.59580       3.0082203     
      482.77580       2.9792247     
      482.95580       2.9501060     
      483.13580       2.9208694     
      483.31580       2.8915199     
      483.49580       2.8620630     
      483.67580       2.8325042     
      483.85580       2.8028492     
      484.03580       2.7731040     
      484.21580       2.7432746     
      484.39580       2.7133672     
      484.57580       2.6833881     
      484.75580       2.6533439     
      484.93580       2.6232410     
      485.11580       2.5930863     
      485.29580       2.5628865     
      485.47580       2.5326485     
      485.65580       2.5023794     
      485.83580       2.4720863     
      486.01580       2.4417764     
      486.19580       2.4114568     
      486.37580       2.3811349     
      486.55580       2.3508180     
      486.73580       2.3205134     
      486.91580       2.2902287     
      487.09580       2.2599712     
      487.27580       2.2297484     
      487.45580       2.1995677     
      487.63580       2.1694365     
      487.81580       2.1393624     
      487.99580       2.1093528     
      488.17580       2.0794150     
      488.35580       2.0495565     
      488.53580       2.0197845     
      488.71580       1.9901063     
      488.89580       1.9605292     
      489.07580       1.9310603     
      489.25580       1.9017067     
      489.43580       1.8724754     
      489.61580       1.8433734     
      489.79580       1.8144075     
      489.97580       1.7855844     
      490.15580       1.7569108     
      490.33580       1.7283933     
      490.51580       1.7000383     
      490.69580       1.6718520     
      490.87580       1.6438408     
      491.05580       1.6160105     
      491.23580       1.5883672     
      491.41580       1.5609167     
      491.59580       1.5336647     
      491.77580       1.5066165     
      491.95580       1.4797776     
      492.13580       1.4531533     
      492.31580       1.4267484     
      492.49580       1.4005680     
      492.67580       1.3746168     
      492.85580       1.3488994     
      493.03580       1.3234201     
      493.21580       1.2981832     
      493.39580       1.2731928     
      493.57580       1.2484527     
      493.75580       1.2239667     
      493.93580       1.1997384     
      494.11580       1.1757710     
      494.29580       1.1520679     
      494.47580       1.1286320     
      494.65580       1.1054663     
      494.83580       1.0825732     
      495.01580       1.0599555     
      495.19580       1.0376153     
      495.37580       1.0155549     
      495.55580      0.99377620     
      495.73580      0.97228099     
      495.91580      0.95107093     
      496.09580      0.93014745     
      496.27580      0.90951186     
      496.45580      0.88916527     
      496.63580      0.86910863     
      496.81580      0.84934273     
      496.99580      0.82986821     
      497.17580      0.81068551     
      497.35580      0.79179496     
      497.53580      0.77319671     
      497.71580      0.75489075     
      497.89580      0.73687694     
      498.07580      0.71915498     
      498.25580      0.70172443     
      498.43580      0.68458470     
      498.61580      0.66773509     
      498.79580      0.65117472     
      498.97580      0.63490263     
      499.15580      0.61891768     
      499.33580      0.60321863     
      499.51580      0.58780414     
      499.69580      0.57267271     
      499.87580      0.55782275     
      500.05580      0.54325256     
      500.23580      0.52896032     
      500.41580      0.51494411     
      500.59580      0.50120192     
      500.77580      0.48773164     
      500.95580      0.47453105     
      501.13580      0.46159788     
      501.31580      0.44892972     
      501.49580      0.43652414     
      501.67580      0.42437858     
      501.85580      0.41249044     
      502.03580      0.40085702     
      502.21580      0.38947560     
      502.39580      0.37834334     
      502.57580      0.36745738     
      502.75580      0.35681480     
      502.93580      0.34641261     
      503.11580      0.33624780     
      503.29580      0.32631727     
      503.47580      0.31661793     
      503.65580      0.30714662     
      503.83580      0.29790015     
      504.01580      0.28887530     
      504.19580      0.28006883     
      504.37580      0.27147746     
      504.55580      0.26309791     
      504.73580      0.25492685     
      504.91580      0.24696095     
      505.09580      0.23919688     
      505.27580      0.23163128     
      505.45580      0.22426079     
      505.63580      0.21708204     
      505.81580      0.21009167     
      505.99580      0.20328630     
      506.17580      0.19666258     
      506.35580      0.19021714     
      506.53580      0.18394663     
      506.71580      0.17784772     
      506.89580      0.17191705     
      507.07580      0.16615133     
      507.25580      0.16054725     
      507.43580      0.15510153     
      507.61580      0.14981090     
      507.79580      0.14467212     
      507.97580      0.13968198     
      508.15580      0.13483728     
      508.33580      0.13013486     
      508.51580      0.12557157     
      508.69580      0.12114431     
      508.87580      0.11684999     
      509.05580      0.11268558     
      509.23580      0.10864806     
      509.41580      0.10473444     
      509.59580      0.10094179     
      509.77580      0.97267188E-001
      509.95580      0.93707776E-001
      510.13580      0.90260716E-001
      510.31580      0.86923215E-001
      510.49580      0.83692517E-001
      510.67580      0.80565909E-001
      510.85580      0.77540716E-001
      511.03580      0.74614307E-001
      511.21580      0.71784091E-001
      511.39580      0.69047519E-001
      511.57580      0.66402085E-001
      511.75580      0.63845325E-001
      511.93580      0.61374821E-001
      512.11580      0.58988194E-001
      512.29580      0.56683111E-001
      512.47580      0.54457283E-001
      512.65580      0.52308463E-001
      512.83580      0.50234448E-001
      513.01580      0.48233079E-001
      513.19580      0.46302240E-001
      513.37580      0.44439860E-001
      513.55580      0.42643909E-001
      513.73580      0.40912401E-001
      513.91580      0.39243394E-001
      514.09580      0.37634988E-001
      514.27580      0.36085324E-001
      514.45580      0.34592588E-001
      514.63580      0.33155004E-001
      514.81580      0.31770841E-001
      514.99580      0.30438407E-001
      515.17580      0.29156051E-001
      515.35580      0.27922162E-001
      515.53580      0.26735171E-001
      515.71580      0.25593544E-001
      515.89580      0.24495789E-001
      516.07580      0.23440453E-001
      516.25580      0.22426117E-001
      516.43580      0.21451403E-001
      516.61580      0.20514968E-001
      516.79580      0.19615505E-001
      516.97580      0.18751744E-001
      517.15580      0.17922449E-001
      517.33580      0.17126417E-001
      517.51580      0.16362483E-001
      517.69580      0.15629510E-001
      517.87580      0.14926398E-001
      518.05580      0.14252076E-001
      518.23580      0.13605508E-001
      518.41580      0.12985684E-001
      518.59580      0.12391628E-001
      518.77580      0.11822393E-001
      518.95580      0.11277059E-001
      519.13580      0.10754736E-001
      519.31580      0.10254563E-001
      519.49580      0.97757023E-002
      519.67580      0.93173462E-002
      519.85580      0.88787113E-002
      520.03580      0.84590400E-002
      520.21580      0.80575990E-002
      520.39580      0.76736794E-002
      520.57580      0.73065957E-002
      520.75580      0.69556853E-002
      520.93580      0.66203080E-002
      521.11580      0.62998453E-002
      521.29580      0.59936997E-002
      521.47580      0.57012947E-002
      521.65580      0.54220736E-002
      521.83580      0.51554993E-002
      522.01580      0.49010536E-002
      522.19580      0.46582370E-002
      522.37580      0.44265676E-002
      522.55580      0.42055812E-002
      522.73580      0.39948302E-002
      522.91580      0.37938838E-002
      523.09580      0.36023268E-002
      523.27580      0.34197597E-002
      523.45580      0.32457977E-002
      523.63580      0.30800707E-002
      523.81580      0.29222226E-002
      523.99580      0.27719111E-002
      524.17580      0.26288067E-002
      524.35580      0.24925932E-002
      524.53580      0.23629662E-002
      524.71580      0.22396337E-002
      524.89580      0.21223150E-002
      525.07580      0.20107407E-002
      525.25580      0.19046521E-002
      525.43580      0.18038009E-002
      525.61580      0.17079490E-002
      525.79580      0.16168680E-002
      525.97580      0.15303388E-002
      526.15580      0.14481515E-002
      526.33580      0.13701046E-002
      526.51580      0.12960054E-002
      526.69580      0.12256692E-002
      526.87580      0.11589189E-002
      527.05580      0.10955853E-002
      527.23580      0.10355062E-002
      527.41580      0.97852642E-003
      527.59580      0.92449751E-003
      527.77580      0.87327753E-003
      527.95580      0.82473071E-003
      528.13580      0.77872729E-003
      528.31580      0.73514323E-003
      528.49580      0.69386003E-003
      528.67580      0.65476450E-003
      528.85580      0.61774852E-003
      529.03580      0.58270889E-003
      529.21580      0.54954708E-003
      529.39580      0.51816910E-003
      529.57580      0.48848524E-003
      529.75580      0.46040997E-003
      529.93580      0.43386172E-003
      530.11580      0.40876271E-003
      530.29580      0.38503884E-003
      530.47580      0.36261950E-003
      530.65580      0.34143740E-003
      530.83580      0.32142848E-003
      531.01580      0.30253174E-003
      531.19580      0.28468912E-003
      531.37580      0.26784536E-003
      531.55580      0.25194788E-003
      531.73580      0.23694667E-003
      531.91580      0.22279418E-003
      532.09580      0.20944520E-003
      532.27580      0.19685674E-003
      532.45580      0.18498798E-003
      532.63580      0.17380011E-003
      532.81580      0.16325628E-003
      532.99580      0.15332150E-003
      533.17580      0.14396256E-003
      533.35580      0.13514793E-003
      533.53580      0.12684768E-003
      533.71580      0.11903345E-003
      533.89580      0.11167830E-003
      534.07580      0.10475672E-003
      534.25580      0.98244519E-004
      534.43580      0.92118759E-004
      534.61580      0.86357715E-004
      534.79580      0.80940806E-004
      534.97580      0.75848540E-004
      535.15580      0.71062461E-004
      535.33580      0.66565099E-004
      535.51580      0.62339919E-004
      535.69580      0.58371278E-004
      535.87580      0.54644378E-004
      536.05580      0.51145225E-004
      536.23580      0.47860585E-004
      536.41580      0.44777953E-004
      536.59580      0.41885508E-004
      536.77580      0.39172081E-004
      536.95580      0.36627124E-004
      537.13580      0.34240675E-004
      537.31580      0.32003326E-004
      537.49580      0.29906200E-004
      537.67580      0.27940917E-004
      537.85580      0.26099573E-004
      538.03580      0.24374710E-004
      538.21580      0.22759296E-004
      538.39580      0.21246701E-004
      538.57580      0.19830675E-004
      538.75580      0.18505329E-004
      538.93580      0.17265113E-004
      539.11580      0.16104800E-004
      539.29580      0.15019469E-004
      539.47580      0.14004485E-004
      539.65580      0.13055484E-004
      539.83580      0.12168363E-004
      540.01580      0.11339258E-004
      540.19580      0.10564536E-004
      540.37580      0.98407802E-005
      540.55580      0.91647779E-005
      540.73580      0.85335092E-005
      540.91580      0.79441364E-005
      541.09580      0.73939929E-005
      541.27580      0.68805741E-005
      541.45580      0.64015278E-005
      541.63580      0.59546453E-005
      541.81580      0.55378536E-005
      541.99580      0.51492071E-005
      542.17580      0.47868801E-005
      542.35580      0.44491602E-005
      542.53580      0.41344415E-005
      542.71580      0.38412181E-005
      542.89580      0.35680784E-005
      543.07580      0.33136995E-005
      543.25580      0.30768418E-005
      543.43580      0.28563440E-005
      543.61580      0.26511186E-005
      543.79580      0.24601474E-005
      543.97580      0.22824769E-005
      544.15580      0.21172150E-005
      544.33580      0.19635269E-005
      544.51580      0.18206314E-005
      544.69580      0.16877983E-005
      544.87580      0.15643443E-005
      545.05580      0.14496309E-005
      545.23580      0.13430614E-005
      545.41580      0.12440779E-005
      545.59580      0.11521595E-005
      545.77580      0.10668195E-005
      545.95580      0.98760343E-006
      546.13580      0.91408701E-006
      546.31580      0.84587423E-006
      546.49580      0.78259551E-006
      546.67580      0.72390607E-006
      546.85580      0.66948429E-006
      547.03580      0.61903025E-006
      547.21580      0.57226430E-006
      547.39580      0.52892579E-006
      547.57580      0.48877179E-006
      547.75580      0.45157598E-006
      547.93580      0.41712752E-006
      548.11580      0.38523005E-006
      548.29580      0.35570074E-006
      548.47580      0.32836941E-006
      548.65580      0.30307766E-006
      548.83580      0.27967809E-006
      549.01580      0.25803362E-006
      549.19580      0.23801670E-006
      549.37580      0.21950877E-006
      549.55580      0.20239959E-006
      549.73580      0.18658670E-006
      549.91580      0.17197490E-006
      550.09580      0.15847572E-006
      550.27580      0.14600701E-006
      550.45580      0.13449247E-006
      550.63580      0.12386128E-006
      550.81580      0.11404768E-006
      550.99580      0.10499065E-006
      551.17580      0.96633594E-007
      551.35580      0.88923989E-007
      551.53580      0.81813136E-007
      551.71580      0.75255882E-007
      551.89580      0.69210370E-007
      552.07580      0.63637804E-007
      552.25580      0.58502242E-007
      552.43580      0.53770384E-007
      552.61580      0.49411390E-007
      552.79580      0.45396703E-007
      552.97580      0.41699885E-007
      553.15580      0.38296466E-007
      553.33580      0.35163804E-007
      553.51580      0.32280950E-007
      553.69580      0.29628527E-007
      553.87580      0.27188618E-007
      554.05580      0.24944655E-007
      554.23580      0.22881325E-007
      554.41580      0.20984477E-007
      554.59580      0.19241035E-007
      554.77580      0.17638921E-007
      554.95580      0.16166980E-007
      555.13580      0.14814913E-007
      555.31580      0.13573211E-007
      555.49580      0.12433099E-007
      555.67580      0.11386480E-007
      555.85580      0.10425884E-007
      556.03580      0.95444217E-008
      556.21580      0.87357387E-008
      556.39580      0.79939781E-008
      556.57580      0.73137411E-008
      556.75580      0.66900522E-008
      556.93580      0.61183278E-008
      557.11580      0.55943454E-008
      557.29580      0.51142166E-008
      557.47580      0.46743612E-008
      557.65580      0.42714833E-008
      557.83580      0.39025499E-008
      558.01580      0.35647701E-008
      558.19580      0.32555763E-008
      558.37580      0.29726073E-008
      558.55580      0.27136917E-008
      558.73580      0.24768333E-008
      558.91580      0.22601973E-008
      559.09580      0.20620977E-008
      559.27580      0.18809854E-008
      559.45580      0.17154375E-008
      559.63580      0.15641475E-008
      559.81580      0.14259155E-008
      559.99580      0.12996404E-008
      560.17580      0.11843114E-008
      560.35580      0.10790011E-008
      560.53580      0.98285897E-009
      560.71580      0.89510466E-009
      560.89580      0.81502276E-009
      561.07580      0.74195737E-009
      561.25580      0.67530735E-009
      561.43580      0.61452182E-009
      561.61580      0.55909607E-009
      561.79580      0.50856781E-009
      561.97580      0.46251371E-009
      562.15580      0.42054614E-009
      562.33580      0.38231030E-009
      562.51580      0.34748147E-009
      562.69580      0.31576253E-009
      562.87580      0.28688171E-009
      563.05580      0.26059040E-009
      563.23580      0.23666132E-009
      563.41580      0.21488665E-009
      563.59580      0.19507648E-009
      563.77580      0.17705724E-009
      563.95580      0.16067036E-009
      564.13580      0.14577101E-009
      564.31580      0.13222691E-009
      564.49580      0.11991729E-009
      564.67580      0.10873193E-009
      564.85580      0.98570216E-010
      565.03580      0.89340341E-010
      565.21580      0.80958567E-010
      565.39580      0.73348513E-010
      565.57580      0.66440536E-010
      565.75580      0.60171140E-010
      565.93580      0.54482453E-010
      566.11580      0.49321738E-010
      566.29580      0.44640947E-010
