      392.42910       5.1278827     
      392.60910       5.2008291     
      392.78910       5.2738970     
      392.96910       5.3470553     
      393.14910       5.4202727     
      393.32910       5.4935172     
      393.50910       5.5667569     
      393.68910       5.6399594     
      393.86910       5.7130918     
      394.04910       5.7861214     
      394.22910       5.8590148     
      394.40910       5.9317386     
      394.58910       6.0042593     
      394.76910       6.0765430     
      394.94910       6.1485557     
      395.12910       6.2202633     
      395.30910       6.2916316     
      395.48910       6.3626262     
      395.66910       6.4332127     
      395.84910       6.5033568     
      396.02910       6.5730239     
      396.20910       6.6421797     
      396.38910       6.7107896     
      396.56910       6.7788194     
      396.74910       6.8462348     
      396.92910       6.9130016     
      397.10910       6.9790858     
      397.28910       7.0444535     
      397.46910       7.1090710     
      397.64910       7.1729050     
      397.82910       7.2359221     
      398.00910       7.2980896     
      398.18910       7.3593747     
      398.36910       7.4197451     
      398.54910       7.4791689     
      398.72910       7.5376145     
      398.90910       7.5950507     
      399.08910       7.6514469     
      399.26910       7.7067728     
      399.44910       7.7609985     
      399.62910       7.8140948     
      399.80910       7.8660331     
      399.98910       7.9167851     
      400.16910       7.9663232     
      400.34910       8.0146206     
      400.52910       8.0616510     
      400.70910       8.1073886     
      400.88910       8.1518086     
      401.06910       8.1948867     
      401.24910       8.2365994     
      401.42910       8.2769240     
      401.60910       8.3158385     
      401.78910       8.3533216     
      401.96910       8.3893532     
      402.14910       8.4239136     
      402.32910       8.4569842     
      402.50910       8.4885473     
      402.68910       8.5185858     
      402.86910       8.5470840     
      403.04910       8.5740266     
      403.22910       8.5993997     
      403.40910       8.6231900     
      403.58910       8.6453853     
      403.76910       8.6659745     
      403.94910       8.6849472     
      404.12910       8.7022943     
      404.30910       8.7180076     
      404.48910       8.7320799     
      404.66910       8.7445049     
      404.84910       8.7552777     
      405.02910       8.7643939     
      405.20910       8.7718507     
      405.38910       8.7776459     
      405.56910       8.7817787     
      405.74910       8.7842490     
      405.92910       8.7850581     
      406.10910       8.7842081     
      406.28910       8.7817023     
      406.46910       8.7775450     
      406.64910       8.7717414     
      406.82910       8.7642979     
      407.00910       8.7552220     
      407.18910       8.7445221     
      407.36910       8.7322075     
      407.54910       8.7182888     
      407.72910       8.7027774     
      407.90910       8.6856857     
      408.08910       8.6670272     
      408.26910       8.6468163     
      408.44910       8.6250683     
      408.62910       8.6017994     
      408.80910       8.5770270     
      408.98910       8.5507691     
      409.16910       8.5230448     
      409.34910       8.4938738     
      409.52910       8.4632771     
      409.70910       8.4312762     
      409.88910       8.3978934     
      410.06910       8.3631520     
      410.24910       8.3270760     
      410.42910       8.2896901     
      410.60910       8.2510199     
      410.78910       8.2110914     
      410.96910       8.1699316     
      411.14910       8.1275681     
      411.32910       8.0840289     
      411.50910       8.0393430     
      411.68910       7.9935396     
      411.86910       7.9466489     
      412.04910       7.8987012     
      412.22910       7.8497276     
      412.40910       7.7997596     
      412.58910       7.7488290     
      412.76910       7.6969684     
      412.94910       7.6442106     
      413.12910       7.5905885     
      413.30910       7.5361359     
      413.48910       7.4808865     
      413.66910       7.4248744     
      413.84910       7.3681341     
      414.02910       7.3107002     
      414.20910       7.2526074     
      414.38910       7.1938910     
      414.56910       7.1345859     
      414.74910       7.0747275     
      414.92910       7.0143513     
      415.10910       6.9534926     
      415.28910       6.8921870     
      415.46910       6.8304700     
      415.64910       6.7683770     
      415.82910       6.7059437     
      416.00910       6.6432054     
      416.18910       6.5801974     
      416.36910       6.5169548     
      416.54910       6.4535129     
      416.72910       6.3899064     
      416.90910       6.3261700     
      417.08910       6.2623383     
      417.26910       6.1984455     
      417.44910       6.1345256     
      417.62910       6.0706122     
      417.80910       6.0067388     
      417.98910       5.9429384     
      418.16910       5.8792438     
      418.34910       5.8156873     
      418.52910       5.7523008     
      418.70910       5.6891159     
      418.88910       5.6261637     
      419.06910       5.5634749     
      419.24910       5.5010797     
      419.42910       5.4390078     
      419.60910       5.3772883     
      419.78910       5.3159502     
      419.96910       5.2550214     
      420.14910       5.1945297     
      420.32910       5.1345021     
      420.50910       5.0749652     
      420.68910       5.0159448     
      420.86910       4.9574663     
      421.04910       4.8995545     
      421.22910       4.8422333     
      421.40910       4.7855263     
      421.58910       4.7294564     
      421.76910       4.6740457     
      421.94910       4.6193157     
      422.12910       4.5652873     
      422.30910       4.5119808     
      422.48910       4.4594156     
      422.66910       4.4076106     
      422.84910       4.3565839     
      423.02910       4.3063531     
      423.20910       4.2569349     
      423.38910       4.2083453     
      423.56910       4.1605997     
      423.74910       4.1137128     
      423.92910       4.0676985     
      424.10910       4.0225702     
      424.28910       3.9783402     
      424.46910       3.9350205     
      424.64910       3.8926221     
      424.82910       3.8511555     
      425.00910       3.8106304     
      425.18910       3.7710557     
      425.36910       3.7324398     
      425.54910       3.6947902     
      425.72910       3.6581139     
      425.90910       3.6224170     
      426.08910       3.5877050     
      426.26910       3.5539828     
      426.44910       3.5212544     
      426.62910       3.4895234     
      426.80910       3.4587924     
      426.98910       3.4290637     
      427.16910       3.4003386     
      427.34910       3.3726180     
      427.52910       3.3459019     
      427.70910       3.3201899     
      427.88910       3.2954809     
      428.06910       3.2717730     
      428.24910       3.2490640     
      428.42910       3.2273507     
      428.60910       3.2066295     
      428.78910       3.1868964     
      428.96910       3.1681464     
      429.14910       3.1503742     
      429.32910       3.1335738     
      429.50910       3.1177388     
      429.68910       3.1028620     
      429.86910       3.0889359     
      430.04910       3.0759524     
      430.22910       3.0639027     
      430.40910       3.0527777     
      430.58910       3.0425676     
      430.76910       3.0332625     
      430.94910       3.0248515     
      431.12910       3.0173235     
      431.30910       3.0106670     
      431.48910       3.0048699     
      431.66910       2.9999197     
      431.84910       2.9958035     
      432.02910       2.9925080     
      432.20910       2.9900195     
      432.38910       2.9883238     
      432.56910       2.9874064     
      432.74910       2.9872525     
      432.92910       2.9878467     
      433.10910       2.9891735     
      433.28910       2.9912170     
      433.46910       2.9939609     
      433.64910       2.9973887     
      433.82910       3.0014834     
      434.00910       3.0062280     
      434.18910       3.0116050     
      434.36910       3.0175967     
      434.54910       3.0241853     
      434.72910       3.0313524     
      434.90910       3.0390798     
      435.08910       3.0473488     
      435.26910       3.0561406     
      435.44910       3.0654361     
      435.62910       3.0752164     
      435.80910       3.0854619     
      435.98910       3.0961532     
      436.16910       3.1072708     
      436.34910       3.1187948     
      436.52910       3.1307055     
      436.70910       3.1429828     
      436.88910       3.1556069     
      437.06910       3.1685575     
      437.24910       3.1818146     
      437.42910       3.1953580     
      437.60910       3.2091673     
      437.78910       3.2232226     
      437.96910       3.2375034     
      438.14910       3.2519896     
      438.32910       3.2666609     
      438.50910       3.2814973     
      438.68910       3.2964786     
      438.86910       3.3115847     
      439.04910       3.3267958     
      439.22910       3.3420919     
      439.40910       3.3574532     
      439.58910       3.3728602     
      439.76910       3.3882933     
      439.94910       3.4037331     
      440.12910       3.4191604     
      440.30910       3.4345561     
      440.48910       3.4499014     
      440.66910       3.4651776     
      440.84910       3.4803663     
      441.02910       3.4954491     
      441.20910       3.5104081     
      441.38910       3.5252255     
      441.56910       3.5398838     
      441.74910       3.5543656     
      441.92910       3.5686542     
      442.10910       3.5827327     
      442.28910       3.5965849     
      442.46910       3.6101945     
      442.64910       3.6235460     
      442.82910       3.6366239     
      443.00910       3.6494131     
      443.18910       3.6618990     
      443.36910       3.6740672     
      443.54910       3.6859038     
      443.72910       3.6973951     
      443.90910       3.7085280     
      444.08910       3.7192897     
      444.26910       3.7296679     
      444.44910       3.7396507     
      444.62910       3.7492264     
      444.80910       3.7583840     
      444.98910       3.7671129     
      445.16910       3.7754030     
      445.34910       3.7832443     
      445.52910       3.7906278     
      445.70910       3.7975446     
      445.88910       3.8039864     
      446.06910       3.8099453     
      446.24910       3.8154140     
      446.42910       3.8203856     
      446.60910       3.8248538     
      446.78910       3.8288126     
      446.96910       3.8322566     
      447.14910       3.8351811     
      447.32910       3.8375815     
      447.50910       3.8394541     
      447.68910       3.8407955     
      447.86910       3.8416028     
      448.04910       3.8418736     
      448.22910       3.8416062     
      448.40910       3.8407992     
      448.58910       3.8394518     
      448.76910       3.8375636     
      448.94910       3.8351349     
      449.12910       3.8321663     
      449.30910       3.8286590     
      449.48910       3.8246147     
      449.66910       3.8200356     
      449.84910       3.8149243     
      450.02910       3.8092840     
      450.20910       3.8031182     
      450.38910       3.7964312     
      450.56910       3.7892274     
      450.74910       3.7815119     
      450.92910       3.7732901     
      451.10910       3.7645681     
      451.28910       3.7553520     
      451.46910       3.7456488     
      451.64910       3.7354656     
      451.82910       3.7248102     
      452.00910       3.7136904     
      452.18910       3.7021148     
      452.36910       3.6900921     
      452.54910       3.6776316     
      452.72910       3.6647428     
      452.90910       3.6514356     
      453.08910       3.6377203     
      453.26910       3.6236074     
      453.44910       3.6091079     
      453.62910       3.5942330     
      453.80910       3.5789941     
      453.98910       3.5634030     
      454.16910       3.5474719     
      454.34910       3.5312129     
      454.52910       3.5146387     
      454.70910       3.4977620     
      454.88910       3.4805959     
      455.06910       3.4631535     
      455.24910       3.4454481     
      455.42910       3.4274935     
      455.60910       3.4093031     
      455.78910       3.3908910     
      455.96910       3.3722711     
      456.14910       3.3534574     
      456.32910       3.3344642     
      456.50910       3.3153058     
      456.68910       3.2959964     
      456.86910       3.2765506     
      457.04910       3.2569827     
      457.22910       3.2373072     
      457.40910       3.2175385     
      457.58910       3.1976913     
      457.76910       3.1777798     
      457.94910       3.1578185     
      458.12910       3.1378219     
      458.30910       3.1178041     
      458.48910       3.0977794     
      458.66910       3.0777620     
      458.84910       3.0577658     
      459.02910       3.0378048     
      459.20910       3.0178928     
      459.38910       2.9980434     
      459.56910       2.9782700     
      459.74910       2.9585860     
      459.92910       2.9390044     
      460.10910       2.9195382     
      460.28910       2.9002000     
      460.46910       2.8810024     
      460.64910       2.8619575     
      460.82910       2.8430774     
      461.00910       2.8243739     
      461.18910       2.8058583     
      461.36910       2.7875418     
      461.54910       2.7694354     
      461.72910       2.7515497     
      461.90910       2.7338950     
      462.08910       2.7164811     
      462.26910       2.6993179     
      462.44910       2.6824145     
      462.62910       2.6657801     
      462.80910       2.6494231     
      462.98910       2.6333519     
      463.16910       2.6175743     
      463.34910       2.6020980     
      463.52910       2.5869301     
      463.70910       2.5720773     
      463.88910       2.5575460     
      464.06910       2.5433423     
      464.24910       2.5294717     
      464.42910       2.5159395     
      464.60910       2.5027505     
      464.78910       2.4899090     
      464.96910       2.4774191     
      465.14910       2.4652844     
      465.32910       2.4535081     
      465.50910       2.4420928     
      465.68910       2.4310410     
      465.86910       2.4203547     
      466.04910       2.4100353     
      466.22910       2.4000839     
      466.40910       2.3905014     
      466.58910       2.3812879     
      466.76910       2.3724434     
      466.94910       2.3639674     
      467.12910       2.3558590     
      467.30910       2.3481168     
      467.48910       2.3407392     
      467.66910       2.3337241     
      467.84910       2.3270690     
      468.02910       2.3207711     
      468.20910       2.3148271     
      468.38910       2.3092334     
      468.56910       2.3039861     
      468.74910       2.2990808     
      468.92910       2.2945128     
      469.10910       2.2902772     
      469.28910       2.2863686     
      469.46910       2.2827812     
      469.64910       2.2795092     
      469.82910       2.2765461     
      470.00910       2.2738853     
      470.18910       2.2715200     
      470.36910       2.2694428     
      470.54910       2.2676464     
      470.72910       2.2661229     
      470.90910       2.2648643     
      471.08910       2.2638624     
      471.26910       2.2631086     
      471.44910       2.2625942     
      471.62910       2.2623103     
      471.80910       2.2622477     
      471.98910       2.2623971     
      472.16910       2.2627488     
      472.34910       2.2632932     
      472.52910       2.2640204     
      472.70910       2.2649203     
      472.88910       2.2659828     
      473.06910       2.2671976     
      473.24910       2.2685542     
      473.42910       2.2700421     
      473.60910       2.2716507     
      473.78910       2.2733693     
      473.96910       2.2751871     
      474.14910       2.2770932     
      474.32910       2.2790769     
      474.50910       2.2811270     
      474.68910       2.2832327     
      474.86910       2.2853831     
      475.04910       2.2875671     
      475.22910       2.2897739     
      475.40910       2.2919924     
      475.58910       2.2942118     
      475.76910       2.2964212     
      475.94910       2.2986099     
      476.12910       2.3007670     
      476.30910       2.3028819     
      476.48910       2.3049441     
      476.66910       2.3069430     
      476.84910       2.3088683     
      477.02910       2.3107097     
      477.20910       2.3124572     
      477.38910       2.3141007     
      477.56910       2.3156303     
      477.74910       2.3170364     
      477.92910       2.3183095     
      478.10910       2.3194402     
      478.28910       2.3204194     
      478.46910       2.3212380     
      478.64910       2.3218873     
      478.82910       2.3223587     
      479.00910       2.3226438     
      479.18910       2.3227345     
      479.36910       2.3226229     
      479.54910       2.3223013     
      479.72910       2.3217623     
      479.90910       2.3209986     
      480.08910       2.3200034     
      480.26910       2.3187699     
      480.44910       2.3172917     
      480.62910       2.3155626     
      480.80910       2.3135768     
      480.98910       2.3113286     
      481.16910       2.3088127     
      481.34910       2.3060241     
      481.52910       2.3029580     
      481.70910       2.2996098     
      481.88910       2.2959755     
      482.06910       2.2920511     
      482.24910       2.2878330     
      482.42910       2.2833179     
      482.60910       2.2785028     
      482.78910       2.2733850     
      482.96910       2.2679620     
      483.14910       2.2622318     
      483.32910       2.2561925     
      483.50910       2.2498426     
      483.68910       2.2431808     
      483.86910       2.2362063     
      484.04910       2.2289183     
      484.22910       2.2213166     
      484.40910       2.2134011     
      484.58910       2.2051719     
      484.76910       2.1966297     
      484.94910       2.1877752     
      485.12910       2.1786095     
      485.30910       2.1691340     
      485.48910       2.1593501     
      485.66910       2.1492600     
      485.84910       2.1388656     
      486.02910       2.1281694     
      486.20910       2.1171741     
      486.38910       2.1058825     
      486.56910       2.0942978     
      486.74910       2.0824235     
      486.92910       2.0702631     
      487.10910       2.0578205     
      487.28910       2.0450998     
      487.46910       2.0321053     
      487.64910       2.0188414     
      487.82910       2.0053128     
      488.00910       1.9915245     
      488.18910       1.9774816     
      488.36910       1.9631893     
      488.54910       1.9486530     
      488.72910       1.9338784     
      488.90910       1.9188712     
      489.08910       1.9036374     
      489.26910       1.8881830     
      489.44910       1.8725143     
      489.62910       1.8566375     
      489.80910       1.8405593     
      489.98910       1.8242861     
      490.16910       1.8078246     
      490.34910       1.7911817     
      490.52910       1.7743643     
      490.70910       1.7573793     
      490.88910       1.7402337     
      491.06910       1.7229348     
      491.24910       1.7054896     
      491.42910       1.6879056     
      491.60910       1.6701898     
      491.78910       1.6523498     
      491.96910       1.6343928     
      492.14910       1.6163264     
      492.32910       1.5981578     
      492.50910       1.5798945     
      492.68910       1.5615440     
      492.86910       1.5431137     
      493.04910       1.5246111     
      493.22910       1.5060435     
      493.40910       1.4874183     
      493.58910       1.4687430     
      493.76910       1.4500248     
      493.94910       1.4312711     
      494.12910       1.4124891     
      494.30910       1.3936859     
      494.48910       1.3748687     
      494.66910       1.3560447     
      494.84910       1.3372207     
      495.02910       1.3184037     
      495.20910       1.2996006     
      495.38910       1.2808180     
      495.56910       1.2620628     
      495.74910       1.2433415     
      495.92910       1.2246604     
      496.10910       1.2060261     
      496.28910       1.1874448     
      496.46910       1.1689227     
      496.64910       1.1504657     
      496.82910       1.1320798     
      497.00910       1.1137708     
      497.18910       1.0955444     
      497.36910       1.0774062     
      497.54910       1.0593615     
      497.72910       1.0414157     
      497.90910       1.0235738     
      498.08910       1.0058410     
      498.26910      0.98822199     
      498.44910      0.97072163     
      498.62910      0.95334446     
      498.80910      0.93609494     
      498.98910      0.91897736     
      499.16910      0.90199586     
      499.34910      0.88515446     
      499.52910      0.86845700     
      499.70910      0.85190719     
      499.88910      0.83550859     
      500.06910      0.81926459     
      500.24910      0.80317846     
      500.42910      0.78725329     
      500.60910      0.77149205     
      500.78910      0.75589753     
      500.96910      0.74047239     
      501.14910      0.72521915     
      501.32910      0.71014016     
      501.50910      0.69523763     
      501.68910      0.68051363     
      501.86910      0.66597010     
      502.04910      0.65160880     
      502.22910      0.63743139     
      502.40910      0.62343935     
      502.58910      0.60963406     
      502.76910      0.59601674     
      502.94910      0.58258848     
      503.12910      0.56935024     
      503.30910      0.55630285     
      503.48910      0.54344701     
      503.66910      0.53078329     
      503.84910      0.51831215     
      504.02910      0.50603391     
      504.20910      0.49394879     
      504.38910      0.48205687     
      504.56910      0.47035815     
      504.74910      0.45885249     
      504.92910      0.44753964     
      505.10910      0.43641928     
      505.28910      0.42549094     
      505.46910      0.41475409     
      505.64910      0.40420807     
      505.82910      0.39385215     
      506.00910      0.38368550     
      506.18910      0.37370721     
      506.36910      0.36391625     
      506.54910      0.35431156     
      506.72910      0.34489196     
      506.90910      0.33565621     
      507.08910      0.32660299     
      507.26910      0.31773091     
      507.44910      0.30903852     
      507.62910      0.30052430     
      507.80910      0.29218666     
      507.98910      0.28402396     
      508.16910      0.27603451     
      508.34910      0.26821654     
      508.52910      0.26056826     
      508.70910      0.25308782     
      508.88910      0.24577333     
      509.06910      0.23862283     
      509.24910      0.23163437     
      509.42910      0.22480591     
      509.60910      0.21813543     
      509.78910      0.21162082     
      509.96910      0.20525999     
      510.14910      0.19905080     
      510.32910      0.19299109     
      510.50910      0.18707867     
      510.68910      0.18131135     
      510.86910      0.17568691     
      511.04910      0.17020311     
      511.22910      0.16485770     
      511.40910      0.15964843     
      511.58910      0.15457304     
      511.76910      0.14962924     
      511.94910      0.14481477     
      512.12910      0.14012735     
      512.30910      0.13556469     
      512.48910      0.13112451     
      512.66910      0.12680454     
      512.84910      0.12260252     
      513.02910      0.11851616     
      513.20910      0.11454321     
      513.38910      0.11068143     
      513.56910      0.10692858     
      513.74910      0.10328242     
      513.92910      0.99740751E-001
      514.10910      0.96301366E-001
      514.28910      0.92962084E-001
      514.46910      0.89720738E-001
      514.64910      0.86575181E-001
      514.82910      0.83523283E-001
      515.00910      0.80562935E-001
      515.18910      0.77692049E-001
      515.36910      0.74908557E-001
      515.54910      0.72210418E-001
      515.72910      0.69595609E-001
      515.90910      0.67062136E-001
      516.08910      0.64608026E-001
      516.26910      0.62231335E-001
      516.44910      0.59930142E-001
      516.62910      0.57702554E-001
      516.80910      0.55546706E-001
      516.98910      0.53460759E-001
      517.16910      0.51442902E-001
      517.34910      0.49491354E-001
      517.52910      0.47604361E-001
      517.70910      0.45780199E-001
      517.88910      0.44017171E-001
      518.06910      0.42313612E-001
      518.24910      0.40667885E-001
      518.42910      0.39078383E-001
      518.60910      0.37543530E-001
      518.78910      0.36061777E-001
      518.96910      0.34631608E-001
      519.14910      0.33251534E-001
      519.32910      0.31920099E-001
      519.50910      0.30635873E-001
      519.68910      0.29397459E-001
      519.86910      0.28203488E-001
      520.04910      0.27052621E-001
      520.22910      0.25943547E-001
      520.40910      0.24874986E-001
      520.58910      0.23845687E-001
      520.76910      0.22854425E-001
      520.94910      0.21900007E-001
      521.12910      0.20981265E-001
      521.30910      0.20097062E-001
      521.48910      0.19246287E-001
      521.66910      0.18427856E-001
      521.84910      0.17640713E-001
      522.02910      0.16883828E-001
      522.20910      0.16156199E-001
      522.38910      0.15456847E-001
      522.56910      0.14784822E-001
      522.74910      0.14139197E-001
      522.92910      0.13519071E-001
      523.10910      0.12923568E-001
      523.28910      0.12351834E-001
      523.46910      0.11803042E-001
      523.64910      0.11276384E-001
      523.82910      0.10771080E-001
      524.00910      0.10286369E-001
      524.18910      0.98215123E-002
      524.36910      0.93757947E-002
      524.54910      0.89485210E-002
      524.72910      0.85390169E-002
      524.90910      0.81466288E-002
      525.08910      0.77707229E-002
      525.26910      0.74106851E-002
      525.44910      0.70659202E-002
      525.62910      0.67358520E-002
      525.80910      0.64199223E-002
      525.98910      0.61175911E-002
      526.16910      0.58283356E-002
      526.34910      0.55516500E-002
      526.52910      0.52870454E-002
      526.70910      0.50340489E-002
      526.88910      0.47922034E-002
      527.06910      0.45610673E-002
      527.24910      0.43402139E-002
      527.42910      0.41292314E-002
      527.60910      0.39277218E-002
      527.78910      0.37353013E-002
      527.96910      0.35515995E-002
      528.14910      0.33762588E-002
      528.32910      0.32089349E-002
      528.50910      0.30492953E-002
      528.68910      0.28970200E-002
      528.86910      0.27518002E-002
      529.04910      0.26133388E-002
      529.22910      0.24813495E-002
      529.40910      0.23555568E-002
      529.58910      0.22356953E-002
      529.76910      0.21215099E-002
      529.94910      0.20127551E-002
      530.12910      0.19091945E-002
      530.30910      0.18106014E-002
      530.48910      0.17167573E-002
      530.66910      0.16274527E-002
      530.84910      0.15424860E-002
      531.02910      0.14616638E-002
      531.20910      0.13848003E-002
      531.38910      0.13117172E-002
      531.56910      0.12422433E-002
      531.74910      0.11762144E-002
      531.92910      0.11134731E-002
      532.10910      0.10538684E-002
      532.28910      0.99725538E-003
      532.46910      0.94349543E-003
      532.64910      0.89245557E-003
      532.82910      0.84400845E-003
      533.00910      0.79803212E-003
      533.18910      0.75440983E-003
      533.36910      0.71302982E-003
      533.54910      0.67378514E-003
      533.72910      0.63657349E-003
      533.90910      0.60129703E-003
      534.08910      0.56786218E-003
      534.26910      0.53617951E-003
      534.44910      0.50616355E-003
      534.62910      0.47773262E-003
      534.80910      0.45080872E-003
      534.98910      0.42531734E-003
      535.16910      0.40118738E-003
      535.34910      0.37835093E-003
      535.52910      0.35674322E-003
      535.70910      0.33630244E-003
      535.88910      0.31696966E-003
      536.06910      0.29868866E-003
      536.24910      0.28140587E-003
      536.42910      0.26507022E-003
      536.60910      0.24963306E-003
      536.78910      0.23504804E-003
      536.96910      0.22127102E-003
      537.14910      0.20825997E-003
      537.32910      0.19597490E-003
      537.50910      0.18437773E-003
      537.68910      0.17343224E-003
      537.86910      0.16310399E-003
      538.04910      0.15336021E-003
      538.22910      0.14416976E-003
      538.40910      0.13550303E-003
      538.58910      0.12733190E-003
      538.76910      0.11962964E-003
      538.94910      0.11237086E-003
      539.12910      0.10553147E-003
      539.30910      0.99088592E-004
      539.48910      0.93020501E-004
      539.66910      0.87306595E-004
      539.84910      0.81927328E-004
      540.02910      0.76864160E-004
      540.20910      0.72099515E-004
      540.38910      0.67616728E-004
      540.56910      0.63400010E-004
      540.74910      0.59434396E-004
      540.92910      0.55705713E-004
      541.10910      0.52200538E-004
      541.28910      0.48906161E-004
      541.46910      0.45810552E-004
      541.64910      0.42902325E-004
      541.82910      0.40170708E-004
      542.00910      0.37605511E-004
      542.18910      0.35197098E-004
      542.36910      0.32936358E-004
      542.54910      0.30814679E-004
      542.72910      0.28823922E-004
      542.90910      0.26956397E-004
      543.08910      0.25204841E-004
      543.26910      0.23562395E-004
      543.44910      0.22022583E-004
      543.62910      0.20579291E-004
      543.80910      0.19226752E-004
      543.98910      0.17959523E-004
      544.16910      0.16772469E-004
      544.34910      0.15660750E-004
      544.52910      0.14619801E-004
      544.70910      0.13645320E-004
      544.88910      0.12733252E-004
      545.06910      0.11879776E-004
      545.24910      0.11081296E-004
      545.42910      0.10334422E-004
      545.60910      0.96359636E-005
      545.78910      0.89829187E-005
      545.96910      0.83724609E-005
      546.14910      0.78019315E-005
      546.32910      0.72688294E-005
      546.50910      0.67708028E-005
      546.68910      0.63056403E-005
      546.86910      0.58712634E-005
      547.04910      0.54657186E-005
      547.22910      0.50871708E-005
      547.40910      0.47338960E-005
      547.58910      0.44042751E-005
      547.76910      0.40967882E-005
      547.94910      0.38100082E-005
      548.12910      0.35425963E-005
      548.30910      0.32932958E-005
      548.48910      0.30609284E-005
      548.66910      0.28443886E-005
      548.84910      0.26426401E-005
      549.02910      0.24547115E-005
      549.20910      0.22796922E-005
      549.38910      0.21167293E-005
      549.56910      0.19650235E-005
      549.74910      0.18238265E-005
      549.92910      0.16924375E-005
      550.10910      0.15702004E-005
      550.28910      0.14565013E-005
      550.46910      0.13507655E-005
      550.64910      0.12524558E-005
      550.82910      0.11610695E-005
      551.00910      0.10761364E-005
      551.18910      0.99721718E-006
      551.36910      0.92390120E-006
      551.54910      0.85580464E-006
      551.72910      0.79256899E-006
      551.90910      0.73385938E-006
      552.08910      0.67936310E-006
      552.26910      0.62878820E-006
      552.44910      0.58186220E-006
      552.62910      0.53833082E-006
      552.80910      0.49795680E-006
      552.98910      0.46051886E-006
      553.16910      0.42581063E-006
      553.34910      0.39363972E-006
      553.52910      0.36382678E-006
      553.70910      0.33620466E-006
      553.88910      0.31061765E-006
      554.06910      0.28692068E-006
      554.24910      0.26497866E-006
      554.42910      0.24466581E-006
      554.60910      0.22586503E-006
      554.78910      0.20846734E-006
      554.96910      0.19237135E-006
      555.14910      0.17748272E-006
      555.32910      0.16371373E-006
      555.50910      0.15098279E-006
      555.68910      0.13921406E-006
      555.86910      0.12833707E-006
      556.04910      0.11828629E-006
      556.22910      0.10900090E-006
      556.40910      0.10042435E-006
      556.58910      0.92504175E-007
      556.76910      0.85191635E-007
      556.94910      0.78441501E-007
      557.12910      0.72211799E-007
      557.30910      0.66463584E-007
      557.48910      0.61160731E-007
      557.66910      0.56269740E-007
      557.84910      0.51759547E-007
      558.02910      0.47601359E-007
      558.20910      0.43768490E-007
      558.38910      0.40236212E-007
      558.56910      0.36981621E-007
      558.74910      0.33983501E-007
      558.92910      0.31222208E-007
      559.10910      0.28679557E-007
      559.28910      0.26338715E-007
      559.46910      0.24184106E-007
      559.64910      0.22201321E-007
      559.82910      0.20377032E-007
      560.00910      0.18698912E-007
      560.18910      0.17155568E-007
      560.36910      0.15736464E-007
      560.54910      0.14431868E-007
      560.72910      0.13232785E-007
      560.90910      0.12130907E-007
      561.08910      0.11118562E-007
      561.26910      0.10188665E-007
      561.44910      0.93346766E-008
      561.62910      0.85505605E-008
      561.80910      0.78307473E-008
      561.98910      0.71700990E-008
      562.16910      0.65638767E-008
      562.34910      0.60077105E-008
      562.52910      0.54975716E-008
      562.70910      0.50297467E-008
      562.88910      0.46008137E-008
      563.06910      0.42076199E-008
      563.24910      0.38472612E-008
      563.42910      0.35170631E-008
      563.60910      0.32145632E-008
      563.78910      0.29374947E-008
      563.96910      0.26837715E-008
      564.14910      0.24514740E-008
      564.32910      0.22388365E-008
      564.50910      0.20442347E-008
      564.68910      0.18661755E-008
      564.86910      0.17032857E-008
      565.04910      0.15543036E-008
      565.22910      0.14180694E-008
      565.40910      0.12935180E-008
      565.58910      0.11796706E-008
      565.76910      0.10756287E-008
      565.94910      0.98056705E-009
      566.12910      0.89372835E-009
      566.30910      0.81441749E-009
      566.48910      0.74199668E-009
      566.66910      0.67588086E-009
      566.84910      0.61553343E-009
      567.02910      0.56046237E-009
      567.20910      0.51021661E-009
      567.38910      0.46438270E-009
      567.56910      0.42258181E-009
      567.74910      0.38446682E-009
      567.92910      0.34971983E-009
      568.10910      0.31804968E-009
      568.28910      0.28918980E-009
      568.46910      0.26289620E-009
      568.64910      0.23894555E-009
      568.82910      0.21713354E-009
      569.00910      0.19727324E-009
      569.18910      0.17919371E-009
      569.36910      0.16273864E-009
      569.54910      0.14776510E-009
      569.72910      0.13414250E-009
      569.90910      0.12175148E-009
      570.08910      0.11048299E-009
      570.26910      0.10023742E-009
      570.44910      0.90923815E-010
      570.62910      0.82459129E-010
      570.80910      0.74767550E-010
      570.98910      0.67779891E-010
      571.16910      0.61433024E-010
      571.34910      0.55669361E-010
      571.52910      0.50436378E-010
      571.70910      0.45686181E-010
      571.88910      0.41375108E-010
      572.06910      0.37463360E-010
      572.24910      0.33914673E-010
      572.42910      0.30696004E-010
