      355.62560       5.2669220     
      359.40530       5.4871135     
      363.18500       5.6380585     
      366.96470       5.6165229     
      370.74439       5.3825037     
      374.52409       4.9865543     
      378.30379       4.5520041     
      382.08349       4.2183300     
      385.86319       4.0746475     
      389.64289       4.1177752     
      393.42258       4.2555874     
      397.20228       4.3523142     
      400.98198       4.2913779     
      404.76168       4.0240566     
      408.54138       3.5821120     
      412.32108       3.0533681     
      416.10077       2.5385395     
      419.88047       2.1141799     
      423.66017       1.8181177     
      427.43987       1.6574979     
      431.21957       1.6265110     
      434.99927       1.7181986     
      438.77896       1.9223098     
      442.55866       2.2132233     
      446.33836       2.5406585     
      450.11806       2.8356162     
      453.89776       3.0344298     
      457.67746       3.1107632     
      461.45716       3.0975119     
      465.23685       3.0834064     
      469.01655       3.1811534     
      472.79625       3.4781047     
      476.57595       3.9896382     
      480.35565       4.6363736     
      484.13535       5.2589217     
      487.91504       5.6694410     
      491.69474       5.7218409     
      495.47444       5.3703620     
      499.25414       4.6886789     
      503.03384       3.8402883     
      506.81354       3.0155811     
      510.59323       2.3661308     
      514.37293       1.9638754     
      518.15263       1.7966196     
      521.93233       1.7936524     
      525.71203       1.8655457     
      529.49173       1.9420354     
      533.27142       1.9976959     
      537.05112       2.0622237     
      540.83082       2.2167199     
      544.61052       2.5773413     
      548.39022       3.2646908     
      552.16992       4.3572738     
      555.94962       5.8361771     
      559.72931       7.5437946     
      563.50901       9.1888024     
      567.28871       10.417301     
      571.06841       10.934841     
      574.84811       10.626770     
      578.62781       9.6147579     
      582.40750       8.2181960     
      586.18720       6.8411811     
      589.96690       5.8420496     
      593.74660       5.4395675     
      597.52630       5.6770051     
      601.30600       6.4330353     
      605.08569       7.4595444     
      608.86539       8.4375386     
      612.64509       9.0514655     
      616.42479       9.0738878     
      620.20449       8.4338577     
      623.98419       7.2358365     
      627.76388       5.7149530     
      631.54358       4.1481953     
      635.32328       2.7643021     
      639.10298       1.6909348     
      642.88268      0.95196137     
      646.66238      0.50083232     
      650.44208      0.26446171     
      654.22177      0.17718912     
      658.00147      0.19676103     
      661.78117      0.30409145     
      665.56087      0.49256130     
      669.34057      0.75305442     
      673.12027       1.0608670     
      676.89996       1.3705289     
      680.67966       1.6225713     
      684.45936       1.7611100     
      688.23906       1.7546981     
      692.01876       1.6096587     
      695.79846       1.3682489     
      699.57815       1.0921781     
      703.35785      0.83983512     
      707.13755      0.64802259     
      710.91725      0.52521316     
      714.69695      0.45668804     
      718.47665      0.41668387     
      722.25634      0.38104169     
      726.03604      0.33542557     
      729.81574      0.27728552     
      733.59544      0.21272067     
      737.37514      0.15112489     
      741.15484      0.10053655     
      744.93454      0.65326489E-001
      748.71423      0.46195874E-001
      752.49393      0.41378052E-001
      756.27363      0.47841947E-001
      760.05333      0.61908525E-001
      763.83303      0.79417488E-001
      767.61273      0.95936965E-001
      771.39242      0.10736455     
      775.17212      0.11083358     
      778.95182      0.10547787     
      782.73152      0.92590749E-001
      786.51122      0.75038648E-001
      790.29092      0.56206859E-001
      794.07061      0.38974986E-001
      797.85031      0.25133867E-001
      801.63001      0.15384667E-001
      805.40971      0.98165485E-002
      809.18941      0.86674542E-002
      812.96911      0.13197153E-001
      816.74880      0.26502712E-001
      820.52850      0.53968918E-001
      824.30820      0.10281280     
      828.08790      0.18011415     
      831.86760      0.28918672     
      835.64730      0.42525755     
      839.42700      0.57268071     
      843.20669      0.70623422     
      846.98639      0.79755090     
      850.76609      0.82478556     
      854.54579      0.78108195     
      858.32549      0.67736857     
      862.10519      0.53793074     
      865.88488      0.39120157     
      869.66458      0.26052407     
      873.44428      0.15887999     
      877.22398      0.88730511E-001
      881.00368      0.45386355E-001
      884.78338      0.21288733E-001
      888.56307      0.92440281E-002
      892.34277      0.39859836E-002
      896.12247      0.24475653E-002
      899.90217      0.34539076E-002
      903.68187      0.73730568E-002
      907.46157      0.15900852E-001
      911.24126      0.31827387E-001
      915.02096      0.58450023E-001
      918.80066      0.98359885E-001
      922.58036      0.15170572     
      926.36006      0.21463384     
      930.13976      0.27904344     
      933.91946      0.33458749     
      937.69915      0.37279940     
      941.47885      0.39180117     
      945.25855      0.39919650     
      949.03825      0.41118970     
      952.81795      0.44757451     
      956.59765      0.52413869     
      960.37734      0.64532666     
      964.15704      0.80025102     
      967.93674      0.96425409     
      971.71644       1.1062069     
      975.49614       1.1990073     
      979.27584       1.2286008     
      983.05553       1.1970581     
      986.83523       1.1183955     
      990.61493       1.0101639     
      994.39463      0.88617350     
      998.17433      0.75421433     
     1001.95403      0.61858991     
     1005.73372      0.48404565     
     1009.51342      0.35758141     
     1013.29312      0.24713853     
     1017.07282      0.15875056     
     1020.85252      0.94484563E-001
     1024.63222      0.52387276E-001
     1028.41192      0.28066379E-001
     1032.19161      0.16712749E-001
     1035.97131      0.14530435E-001
     1039.75101      0.19174257E-001
     1043.53071      0.29354170E-001
     1047.31041      0.44067293E-001
     1051.09011      0.62057309E-001
     1054.86980      0.82190587E-001
     1058.64950      0.10547887     
     1062.42920      0.13936985     
     1066.20890      0.20446424     
     1069.98860      0.34261513     
     1073.76830      0.62301191     
     1077.54799       1.1397053     
     1081.32769       1.9923413     
     1085.10739       3.2456690     
     1088.88709       4.8753671     
     1092.66679       6.7241931     
     1096.44649       8.5014031     
     1100.22618       9.8465577     
     1104.00588       10.445193     
     1107.78558       10.147206     
     1111.56528       9.0273351     
     1115.34498       7.3544883     
     1119.12468       5.4870359     
     1122.90438       3.7497076     
     1126.68407       2.3495760     
     1130.46377       1.3578206     
     1134.24347      0.74655198     
     1138.02317      0.44989568     
     1141.80287      0.42082652     
     1145.58257      0.66823578     
     1149.36226       1.2682704     
     1153.14196       2.3454572     
     1156.92166       4.0192120     
     1160.70136       6.3206155     
     1164.48106       9.1058161     
     1168.26076       12.013832     
     1172.04045       14.515185     
     1175.82015       16.059701     
     1179.59985       16.271418     
     1183.37955       15.096847     
     1187.15925       12.826850     
     1190.93895       9.9799101     
     1194.71864       7.1105983     
     1198.49834       4.6393650     
     1202.27804       2.7719400     
     1206.05774       1.5166382     
     1209.83744      0.75989404     
     1213.61714      0.34865589     
     1217.39684      0.14649219     
     1221.17653      0.56365529E-001
     1224.95623      0.19866163E-001
     1228.73593      0.64396346E-002
     1232.51563      0.20313741E-002
     1236.29533      0.10591095E-002
     1240.07503      0.21096555E-002
     1243.85472      0.66119416E-002
     1247.63442      0.20021907E-001
     1251.41412      0.55731373E-001
     1255.19382      0.14209526     
     1258.97352      0.33177223     
     1262.75322      0.70937173     
     1266.53291       1.3889309     
     1270.31261       2.4903495     
     1274.09231       4.0889597     
     1277.87201       6.1480621     
     1281.65171       8.4651868     
     1285.43141       10.673521     
     1289.21110       12.324003     
     1292.99080       13.030730     
     1296.77050       12.617072     
     1300.55020       11.187197     
     1304.32990       9.0835770     
     1308.10960       6.7540679     
     1311.88930       4.5988267     
     1315.66899       2.8674970     
     1319.44869       1.6373489     
     1323.22839      0.85627809     
     1327.00809      0.41046327     
     1330.78779      0.18131165     
     1334.56749      0.76344489E-001
     1338.34718      0.36689484E-001
     1342.12688      0.31552747E-001
     1345.90658      0.48896727E-001
     1349.68628      0.86979995E-001
     1353.46598      0.14767538     
     1357.24568      0.23108788     
     1361.02537      0.33147106     
     1364.80507      0.43546320     
     1368.58477      0.52388979     
     1372.36447      0.57716868     
     1376.14417      0.58228915     
     1379.92387      0.53795698     
     1383.70356      0.45512353     
     1387.48326      0.35260130     
     1391.26296      0.25015628     
     1395.04266      0.16252187     
     1398.82236      0.96690785E-001
     1402.60206      0.52678241E-001
     1406.38176      0.26281524E-001
     1410.16145      0.12007278E-001
     1413.94115      0.50237539E-002
     1417.72085      0.19254676E-002
     1421.50055      0.67790810E-003
     1425.28025      0.22464426E-003
     1429.05995      0.84165755E-004
     1432.83964      0.66368831E-004
     1436.61934      0.11310468E-003
     1440.39904      0.22166276E-003
     1444.17874      0.40996700E-003
     1447.95844      0.69679813E-003
     1451.73814      0.10851597E-002
     1455.51783      0.15483019E-002
     1459.29753      0.20247391E-002
     1463.07723      0.24289837E-002
     1466.85693      0.26780424E-002
     1470.63663      0.27235793E-002
     1474.41633      0.25733737E-002
     1478.19602      0.22892326E-002
     1481.97572      0.19609685E-002
     1485.75542      0.16695130E-002
     1489.53512      0.14577876E-002
     1493.31482      0.13224268E-002
     1497.09452      0.12272299E-002
     1500.87422      0.11282328E-002
     1504.65391      0.99652508E-003
     1508.43361      0.82951196E-003
     1512.21331      0.65178685E-003
     1515.99301      0.52184162E-003
     1519.77271      0.58826855E-003
     1523.55241      0.13055586E-002
     1527.33210      0.40767317E-002
     1531.11180      0.12896186E-001
     1534.89150      0.38001482E-001
     1538.67120      0.10282252     
     1542.45090      0.25488244     
     1546.23060      0.57863599     
     1550.01029       1.2030028     
     1553.78999       2.2904904     
     1557.56969       3.9939567     
     1561.34939       6.3783914     
     1565.12909       9.3300348     
     1568.90879       12.501741     
     1572.68848       15.348243     
     1576.46818       17.270284     
     1580.24788       17.822727     
     1584.02758       16.889934     
     1587.80728       14.735206     
     1591.58698       11.896159     
     1595.36668       8.9823331     
     1599.14637       6.4774754     
     1602.92607       4.6307500     
     1606.70577       3.4606805     
     1610.48547       2.8380702     
     1614.26517       2.5899046     
     1618.04487       2.5760239     
     1621.82456       2.7168622     
     1625.60426       2.9769683     
     1629.38396       3.3265784     
     1633.16366       3.7089958     
     1636.94336       4.0343093     
     1640.72306       4.2031182     
     1644.50275       4.1456688     
     1648.28245       3.8526172     
     1652.06215       3.3793040     
     1655.84185       2.8221512     
     1659.62155       2.2821988     
     1663.40125       1.8361444     
     1667.18094       1.5271146     
     1670.96064       1.3727730     
     1674.74034       1.3777934     
     1678.52004       1.5377465     
     1682.29974       1.8309053     
     1686.07944       2.2061738     
     1689.85914       2.5810040     
     1693.63883       2.8585777     
     1697.41853       2.9612724     
     1701.19823       2.8655969     
     1704.97793       2.6205334     
     1708.75763       2.3387150     
     1712.53733       2.1625880     
     1716.31702       2.2174798     
     1720.09672       2.5664982     
     1723.87642       3.1807328     
     1727.65612       3.9356826     
     1731.43582       4.6402331     
     1735.21552       5.0943134     
     1738.99521       5.1567351     
     1742.77491       4.7949085     
     1746.55461       4.0935431     
     1750.33431       3.2203301     
     1754.11401       2.3700057     
     1757.89371       1.7176286     
     1761.67340       1.4009578     
     1765.45310       1.5286704     
     1769.23280       2.1915343     
     1773.01250       3.4502566     
     1776.79220       5.2899951     
     1780.57190       7.5601455     
     1784.35160       9.9422520     
     1788.13129       11.988936     
     1791.91099       13.243480     
     1795.69069       13.397924     
     1799.47039       12.412429     
     1803.25009       10.530570     
     1807.02979       8.1812685     
     1810.80948       5.8205298     
     1814.58918       3.7920786     
     1818.36888       2.2623773     
     1822.14858       1.2360204     
     1825.92828      0.61838524     
     1829.70798      0.28331233     
     1833.48767      0.11886246     
     1837.26737      0.45666408E-001
     1841.04707      0.16066522E-001
     1844.82677      0.51763039E-002
     1848.60647      0.15271811E-002
     1852.38617      0.41260474E-003
     1856.16586      0.10208237E-003
     1859.94556      0.23128112E-004
     1863.72526      0.47984669E-005
     1867.50496      0.91167007E-006
     1871.28466      0.15861556E-006
     1875.06436      0.25271251E-007
     1878.84406      0.36870632E-008
     1882.62375      0.49261464E-009
     1886.40345      0.60270796E-010
     1890.18315      0.67527306E-011
     1893.96285      0.69282699E-012
     1897.74255      0.65094315E-013
     1901.52225      0.56005955E-014
     1905.30194      0.44126378E-015
     1909.08164      0.31838245E-016
     1912.86134      0.21238688E-017
     1916.64104      0.49775018E-018
     1920.42074      0.61813490E-017
     1924.20044      0.94229132E-016
     1927.98013      0.13168989E-014
     1931.75983      0.16853658E-013
     1935.53953      0.19751897E-012
     1939.31923      0.21198071E-011
     1943.09893      0.20833237E-010
     1946.87863      0.18749516E-009
     1950.65832      0.15452410E-008
     1954.43802      0.11662060E-007
     1958.21772      0.80598550E-007
     1961.99742      0.51009616E-006
     1965.77712      0.29563086E-005
     1969.55682      0.15689907E-004
     1973.33652      0.76254211E-004
     1977.11621      0.33937527E-003
     1980.89591      0.13831505E-002
     1984.67561      0.51621612E-002
     1988.45531      0.17642762E-001
     1992.23501      0.55217210E-001
     1996.01471      0.15825420     
     1999.79440      0.41534491     
     2003.57410      0.99824106     
     2007.35380       2.1970243     
     2011.13350       4.4279954     
     2014.91320       8.1724515     
     2018.69290       13.812441     
     2022.47259       21.377720     
     2026.25229       30.298786     
     2030.03199       39.324386     
     2033.81169       46.738154     
     2037.59139       50.869099     
     2041.37109       50.700170     
     2045.15078       46.274067     
     2048.93048       38.675756     
     2052.71018       29.601440     
     2056.48988       20.747212     
     2060.26958       13.316176     
     2064.04928       7.8265831     
     2067.82898       4.2124791     
     2071.60867       2.0762335     
     2075.38837      0.93710341     
     2079.16807      0.38732161     
     2082.94777      0.14659826     
     2086.72747      0.50811122E-001
     2090.50717      0.16127299E-001
     2094.28686      0.46874578E-002
     2098.06656      0.12476305E-002
     2101.84626      0.30409375E-003
     2105.62596      0.67873757E-004
     2109.40566      0.13872961E-004
     2113.18536      0.25966255E-005
     2116.96505      0.44506388E-006
     2120.74475      0.69856733E-007
     2124.52445      0.10040771E-007
     2128.30415      0.13215961E-008
     2132.08385      0.15929543E-009
     2135.86355      0.17582506E-010
     2139.64324      0.17771788E-011
     2143.42294      0.16449562E-012
     2147.20264      0.13942814E-013
     2150.98234      0.10822296E-014
     2154.76204      0.76923900E-016
     2158.54174      0.50069822E-017
     2162.32144      0.29844457E-018
     2166.10113      0.16290117E-019
     2169.88083      0.81424969E-021
     2173.66053      0.37270386E-022
     2177.44023      0.15622231E-023
     2181.21993      0.59964623E-025
     2184.99963      0.21077546E-026
     2188.77932      0.67845002E-028
     2192.55902      0.19998092E-029
     2196.33872      0.53979909E-031
     2200.11842      0.13342850E-032
     2203.89812      0.30202157E-034
     2207.67782      0.62603728E-036
     2211.45751      0.11883252E-037
     2215.23721      0.20655862E-039
     2219.01691      0.32879424E-041
     2222.79661      0.47926748E-043
     2226.57631      0.63974163E-045
     2230.35601      0.78199531E-047
     2234.13570      0.87533957E-049
     2237.91540      0.89726734E-051
     2241.69510      0.84224811E-053
     2245.47480      0.72398757E-055
     2249.25450      0.56989528E-057
     2253.03420      0.41080138E-059
     2256.81390      0.27116998E-061
     2260.59359      0.16391708E-063
     2264.37329      0.90736012E-066
     2268.15299      0.45994728E-068
     2271.93269      0.21350561E-070
     2275.71239      0.90757690E-073
     2279.49209      0.35328927E-075
     2283.27178      0.12593613E-077
     2287.05148      0.41109588E-080
     2290.83118      0.12288781E-082
     2294.61088      0.33639330E-085
     2298.39058      0.84325469E-088
     2302.17028      0.19357224E-090
     2305.94997      0.40691179E-093
     2309.72967      0.78330402E-096
     2313.50937      0.13808081E-098
     2317.28907      0.22289954E-101
     2321.06877      0.32950188E-104
     2324.84847      0.44604586E-107
     2328.62816      0.55293490E-110
     2332.40786      0.62768447E-113
     2336.18756      0.65250170E-116
     2339.96726       0.0000000     
     2343.74696       0.0000000     
     2347.52666       0.0000000     
     2351.30636       0.0000000     
     2355.08605       0.0000000     
     2358.86575       0.0000000     
     2362.64545       0.0000000     
     2366.42515       0.0000000     
     2370.20485       0.0000000     
     2373.98455       0.0000000     
     2377.76424       0.0000000     
     2381.54394       0.0000000     
     2385.32364       0.0000000     
     2389.10334       0.0000000     
     2392.88304       0.0000000     
     2396.66274       0.0000000     
     2400.44243       0.0000000     
     2404.22213       0.0000000     
     2408.00183       0.0000000     
     2411.78153       0.0000000     
     2415.56123       0.0000000     
     2419.34093       0.0000000     
     2423.12062       0.0000000     
     2426.90032       0.0000000     
     2430.68002       0.0000000     
     2434.45972       0.0000000     
     2438.23942       0.0000000     
     2442.01912       0.0000000     
     2445.79882       0.0000000     
     2449.57851       0.0000000     
     2453.35821       0.0000000     
     2457.13791       0.0000000     
     2460.91761       0.0000000     
     2464.69731       0.0000000     
     2468.47701       0.0000000     
     2472.25670       0.0000000     
     2476.03640       0.0000000     
     2479.81610       0.0000000     
     2483.59580       0.0000000     
     2487.37550       0.0000000     
     2491.15520       0.0000000     
     2494.93489       0.0000000     
     2498.71459       0.0000000     
     2502.49429       0.0000000     
     2506.27399       0.0000000     
     2510.05369       0.0000000     
     2513.83339       0.0000000     
     2517.61308       0.0000000     
     2521.39278       0.0000000     
     2525.17248       0.0000000     
     2528.95218       0.0000000     
     2532.73188       0.0000000     
     2536.51158       0.0000000     
     2540.29128       0.0000000     
     2544.07097       0.0000000     
     2547.85067       0.0000000     
     2551.63037       0.0000000     
     2555.41007       0.0000000     
     2559.18977       0.0000000     
     2562.96947       0.0000000     
     2566.74916       0.0000000     
     2570.52886       0.0000000     
     2574.30856       0.0000000     
     2578.08826       0.0000000     
     2581.86796       0.0000000     
     2585.64766       0.0000000     
     2589.42735       0.0000000     
     2593.20705       0.0000000     
     2596.98675       0.0000000     
     2600.76645       0.0000000     
     2604.54615       0.0000000     
     2608.32585       0.0000000     
     2612.10554       0.0000000     
     2615.88524       0.0000000     
     2619.66494       0.0000000     
     2623.44464       0.0000000     
     2627.22434       0.0000000     
     2631.00404       0.0000000     
     2634.78374       0.0000000     
     2638.56343       0.0000000     
     2642.34313       0.0000000     
     2646.12283       0.0000000     
     2649.90253       0.0000000     
     2653.68223       0.0000000     
     2657.46193       0.0000000     
     2661.24162       0.0000000     
     2665.02132       0.0000000     
     2668.80102       0.0000000     
     2672.58072       0.0000000     
     2676.36042       0.0000000     
     2680.14012       0.0000000     
     2683.91981       0.0000000     
     2687.69951       0.0000000     
     2691.47921       0.0000000     
     2695.25891       0.0000000     
     2699.03861       0.0000000     
     2702.81831       0.0000000     
     2706.59800       0.0000000     
     2710.37770       0.0000000     
     2714.15740       0.0000000     
     2717.93710       0.0000000     
     2721.71680       0.0000000     
     2725.49650       0.0000000     
     2729.27620       0.0000000     
     2733.05589       0.0000000     
     2736.83559       0.0000000     
     2740.61529       0.0000000     
     2744.39499       0.0000000     
     2748.17469       0.0000000     
     2751.95439       0.0000000     
     2755.73408       0.0000000     
     2759.51378       0.0000000     
     2763.29348       0.0000000     
     2767.07318       0.0000000     
     2770.85288       0.0000000     
     2774.63258       0.0000000     
     2778.41227       0.0000000     
     2782.19197       0.0000000     
     2785.97167       0.0000000     
     2789.75137       0.0000000     
     2793.53107       0.0000000     
     2797.31077       0.0000000     
     2801.09046       0.0000000     
     2804.87016       0.0000000     
     2808.64986       0.0000000     
     2812.42956       0.0000000     
     2816.20926       0.0000000     
     2819.98896       0.0000000     
     2823.76866       0.0000000     
     2827.54835       0.0000000     
     2831.32805       0.0000000     
     2835.10775       0.0000000     
     2838.88745       0.0000000     
     2842.66715       0.0000000     
     2846.44685       0.0000000     
     2850.22654       0.0000000     
     2854.00624      0.90019471E-120
     2857.78594      0.93154737E-117
     2861.56564      0.88276745E-114
     2865.34534      0.76605608E-111
     2869.12504      0.60876223E-108
     2872.90473      0.44300407E-105
     2876.68443      0.29521649E-102
     2880.46413      0.18015503E-099
     2884.24383      0.10067580E-096
     2888.02353      0.51520091E-094
     2891.80323      0.24143546E-091
     2895.58292      0.10360921E-088
     2899.36262      0.40716325E-086
     2903.14232      0.14652498E-083
     2906.92202      0.48286711E-081
     2910.70172      0.14571910E-078
     2914.48142      0.40269683E-076
     2918.26112      0.10190907E-073
     2922.04081      0.23616760E-071
     2925.82051      0.50118805E-069
     2929.60021      0.97398882E-067
     2933.37991      0.17333255E-064
     2937.15961      0.28247444E-062
     2940.93931      0.42155192E-060
     2944.71900      0.57609734E-058
     2948.49870      0.72096395E-056
     2952.27840      0.82623600E-054
     2956.05810      0.86709676E-052
     2959.83780      0.83330482E-050
     2963.61750      0.73335306E-048
     2967.39719      0.59101052E-046
     2971.17689      0.43616438E-044
     2974.95659      0.29476645E-042
     2978.73629      0.18242267E-040
     2982.51599      0.10338379E-038
     2986.29569      0.53653610E-037
     2990.07538      0.25498718E-035
     2993.85508      0.11097129E-033
     2997.63478      0.44225809E-032
     3001.41448      0.16140383E-030
     3005.19418      0.53941717E-029
     3008.97388      0.16508537E-027
     3012.75358      0.46266354E-026
     3016.53327      0.11873940E-024
     3020.31297      0.27905983E-023
     3024.09267      0.60058249E-022
     3027.87237      0.11836434E-020
     3031.65207      0.21362005E-019
     3035.43177      0.35304983E-018
     3039.21146      0.53432179E-017
     3042.99116      0.74052998E-016
     3046.77086      0.93984295E-015
     3050.55056      0.10922972E-013
     3054.33026      0.11625168E-012
     3058.10996      0.11330016E-011
     3061.88965      0.10111945E-010
     3065.66935      0.82644083E-010
     3069.44905      0.61853134E-009
     3073.22875      0.42392061E-008
     3077.00845      0.26606040E-007
     3080.78815      0.15291456E-006
     3084.56784      0.80480436E-006
     3088.34754      0.38788651E-005
     3092.12724      0.17119533E-004
     3095.90694      0.69191389E-004
     3099.68664      0.25608554E-003
     3103.46634      0.86794250E-003
     3107.24604      0.26938272E-002
     3111.02573      0.76563431E-002
     3114.80543      0.19927184E-001
     3118.58513      0.47494504E-001
     3122.36483      0.10366059     
     3126.14453      0.20718431     
     3129.92423      0.37920402     
     3133.70392      0.63556781     
     3137.48362      0.97549206     
     3141.26332       1.3710663     
     3145.04302       1.7646804     
     3148.82272       2.0799197     
     3152.60242       2.2449152     
     3156.38211       2.2188411     
     3160.16181       2.0082850     
     3163.94151       1.6645520     
     3167.72121       1.2634041     
     3171.50091      0.87813274     
     3175.28061      0.55892241     
     3179.06030      0.32577657     
     3182.84000      0.17389615     
     3186.61970      0.85042687E-001
     3190.39940      0.38211405E-001
     3194.17910      0.16087265E-001
     3197.95880      0.71647699E-002
     3201.73850      0.51956108E-002
     3205.51819      0.77068381E-002
     3209.29789      0.14573183E-001
     3213.07759      0.26857723E-001
     3216.85729      0.45748938E-001
     3220.63699      0.71456217E-001
     3224.41669      0.10222420     
     3228.19638      0.13392244     
     3231.97608      0.16066943     
     3235.75578      0.17652598     
     3239.53548      0.17764108     
     3243.31518      0.16382698     
     3247.09488      0.13876829     
     3250.87457      0.10886774     
     3254.65427      0.81565259E-001
     3258.43397      0.64236551E-001
     3262.21367      0.64268909E-001
     3265.99337      0.89916026E-001
     3269.77307      0.15062875     
     3273.55276      0.25533491     
     3277.33246      0.40799758     
     3281.11216      0.60165591     
     3284.89186      0.81418890     
     3288.67156       1.0096757     
     3292.45126       1.1471767     
     3296.23096       1.1944958     
     3300.01065       1.1406297     
     3303.79035       1.0002744     
     3307.57005      0.80778907     
     3311.34975      0.60388649     
     3315.12945      0.42196686     
     3318.90915      0.28018823     
     3322.68884      0.18124543     
     3326.46854      0.11761381     
     3330.24824      0.78207615E-001
     3334.02794      0.53262994E-001
     3337.80764      0.36348773E-001
     3341.58734      0.24138453E-001
     3345.36703      0.15220264E-001
     3349.14673      0.89656923E-002
     3352.92643      0.48876875E-002
     3356.70613      0.24533710E-002
     3360.48583      0.11308460E-002
     3364.26553      0.47800095E-003
     3368.04522      0.18515535E-003
     3371.82492      0.65701113E-004
     3375.60462      0.21353091E-004
     3379.38432      0.63556694E-005
     3383.16402      0.17324261E-005
     3386.94372      0.43244519E-006
     3390.72342      0.98851982E-007
     3394.50311      0.20692603E-007
     3398.28281      0.39666058E-008
     3402.06251      0.69630016E-009
     3405.84221      0.11193017E-009
     3409.62191      0.16476724E-010
     3413.40161      0.22210970E-011
     3417.18130      0.27418085E-012
     3420.96100      0.30994142E-013
     3424.74070      0.32084481E-014
     3428.52040      0.30414683E-015
     3432.30010      0.26402464E-016
     3436.07980      0.20988361E-017
     3439.85949      0.15278667E-018
     3443.63919      0.10185099E-019
     3447.41889      0.62175312E-021
     3451.19859      0.34757102E-022
     3454.97829      0.17792707E-023
     3458.75799      0.83409091E-025
     3462.53768      0.35806150E-026
     3466.31738      0.14075854E-027
     3470.09708      0.50671615E-029
     3473.87678      0.16704275E-030
     3477.65648      0.50427031E-032
     3481.43618      0.13940298E-033
     3485.21588      0.35290157E-035
     3488.99557      0.81810304E-037
     3492.77527      0.17367420E-038
     3496.55497      0.33762570E-040
     3500.33467      0.60104718E-042
     3504.11437      0.97983853E-044
     3507.89407      0.14627609E-045
     3511.67376      0.19997010E-047
     3515.45346      0.25033966E-049
     3519.23316      0.28699025E-051
     3523.01286      0.30128500E-053
     3526.79256      0.28964149E-055
     3530.57226      0.25498633E-057
     3534.35195      0.20556346E-059
     3538.13165      0.15175668E-061
     3541.91135      0.10259415E-063
     3545.69105      0.63514118E-066
     3549.47075      0.36007322E-068
     3553.25045      0.18693226E-070
     3557.03014      0.88869056E-073
     3560.80984      0.38689202E-075
     3564.58954      0.15424172E-077
     3568.36924      0.56310167E-080
     3572.14894      0.18825420E-082
     3575.92864      0.57633553E-085
     3579.70834      0.16157680E-087
     3583.48803      0.41481601E-090
     3587.26773      0.97522515E-093
     3591.04743      0.20995545E-095
     3594.82713      0.41493555E-098
     3598.60683      0.60078205E-098
     3602.38653      0.32646410E-095
     3606.16622      0.16265574E-092
     3609.94592      0.74212745E-090
     3613.72562      0.31007229E-087
     3617.50532      0.11863779E-084
     3621.28502      0.41567984E-082
     3625.06472      0.13337396E-079
     3628.84441      0.39188588E-077
     3632.62411      0.10544475E-074
     3636.40381      0.25981699E-072
     3640.18351      0.58625657E-070
     3643.96321      0.12113955E-067
     3647.74291      0.22922542E-065
     3651.52260      0.39720867E-063
     3655.30230      0.63031025E-061
     3659.08200      0.91594710E-059
     3662.86170      0.12188984E-056
     3666.64140      0.14854107E-054
     3670.42110      0.16577091E-052
     3674.20080      0.16941576E-050
     3677.98049      0.15855650E-048
     3681.76019      0.13589397E-046
     3685.53989      0.10666047E-044
     3689.31959      0.76664669E-043
     3693.09929      0.50463465E-041
     3696.87899      0.30419392E-039
     3700.65868      0.16792581E-037
     3704.43838      0.84894542E-036
     3708.21808      0.39304264E-034
     3711.99778      0.16664777E-032
     3715.77748      0.64708575E-031
     3719.55718      0.23010682E-029
     3723.33687      0.74938594E-028
     3727.11657      0.22350815E-026
     3730.89627      0.61051542E-025
     3734.67597      0.15272825E-023
     3738.45567      0.34991773E-022
     3742.23537      0.73424527E-021
     3746.01506      0.14110754E-019
     3749.79476      0.24836982E-018
     3753.57446      0.40039915E-017
     3757.35416      0.59120752E-016
     3761.13386      0.79955174E-015
     3764.91356      0.99042360E-014
     3768.69326      0.11237555E-012
     3772.47295      0.11679078E-011
     3776.25265      0.11118375E-010
     3780.03235      0.96957434E-010
     3783.81205      0.77453298E-009
     3787.59175      0.56680098E-008
     3791.37145      0.37998551E-007
     3795.15114      0.23338029E-006
     3798.93084      0.13132219E-005
     3802.71054      0.67702710E-005
     3806.49024      0.31980589E-004
     3810.26994      0.13842006E-003
     3814.04964      0.54899037E-003
     3817.82933      0.19952893E-002
     3821.60903      0.66457817E-002
     3825.38873      0.20286647E-001
     3829.16843      0.56757690E-001
     3832.94813      0.14555160     
     3836.72783      0.34214953     
     3840.50752      0.73731309     
     3844.28722       1.4566560     
     3848.06692       2.6385521     
     3851.84662       4.3824537     
     3855.62632       6.6751535     
     3859.40602       9.3254413     
     3863.18572       11.952717     
     3866.96541       14.063814     
     3870.74511       15.209872     
     3874.52481       15.162898     
     3878.30451       14.026634     
     3882.08421       12.222092     
     3885.86391       10.351373     
     3889.64360       9.0025044     
     3893.42330       8.5769351     
     3897.20300       9.1967994     
     3900.98270       10.706487     
     3904.76240       12.750043     
     3908.54210       14.891209     
     3912.32179       16.739405     
     3916.10149       18.045454     
     3919.88119       18.737646     
     3923.66089       18.888039     
     3927.44059       18.628538     
     3931.22029       18.061486     
     3934.99998       17.211929     
     3938.77968       16.042903     
     3942.55938       14.516196     
     3946.33908       12.655189     
     3950.11878       10.570481     
     3953.89848       8.4370340     
     3957.67818       6.4413524     
     3961.45787       4.7291997     
     3965.23757       3.3759448     
     3969.01727       2.3846663     
     3972.79697       1.7044409     
     3976.57667       1.2572689     
     3980.35637      0.96382481     
     3984.13606      0.76158604     
     3987.91576      0.61239555     
     3991.69546      0.50015060     
     3995.47516      0.42240778     
     3999.25486      0.38091997     
     4003.03456      0.37496568     
     4006.81425      0.39879603     
     4010.59395      0.44227516     
     4014.37365      0.49289696     
     4018.15335      0.53780426     
     4021.93305      0.56543956     
     4025.71275      0.56712179     
     4029.49244      0.53871250     
     4033.27214      0.48187472     
     4037.05184      0.40400897     
     4040.83154      0.31635576     
     4044.61124      0.23078520     
     4048.39094      0.15662525     
     4052.17064      0.98837532E-001
     4055.95033      0.58012059E-001
     4059.73003      0.31698834E-001
     4063.50973      0.16145519E-001
     4067.28943      0.76762259E-002
     4071.06913      0.34108330E-002
     4074.84883      0.14175356E-002
     4078.62852      0.55111537E-003
     4082.40822      0.20033394E-003
     4086.18792      0.68006434E-004
     4089.96762      0.21522012E-004
     4093.74732      0.63367739E-005
     4097.52702      0.17320954E-005
     4101.30671      0.43861642E-006
     4105.08641      0.10270127E-006
     4108.86611      0.22198223E-007
     4112.64581      0.44228322E-008
     4116.42551      0.81137569E-009
     4120.20521      0.13692488E-009
     4123.98490      0.21240622E-010
     4127.76460      0.30271463E-011
     4131.54430      0.39618271E-012
     4135.32400      0.47600759E-013
