      459.15490      0.10160060E-001
      459.33490      0.10185307E-001
      459.51490      0.10208745E-001
      459.69490      0.10230358E-001
      459.87490      0.10250128E-001
      460.05490      0.10268044E-001
      460.23490      0.10284090E-001
      460.41490      0.10298257E-001
      460.59490      0.10310532E-001
      460.77490      0.10320907E-001
      460.95490      0.10329374E-001
      461.13490      0.10335924E-001
      461.31490      0.10340554E-001
      461.49490      0.10343257E-001
      461.67490      0.10344031E-001
      461.85490      0.10342873E-001
      462.03490      0.10339783E-001
      462.21490      0.10334761E-001
      462.39490      0.10327807E-001
      462.57490      0.10318926E-001
      462.75490      0.10308121E-001
      462.93490      0.10295396E-001
      463.11490      0.10280758E-001
      463.29490      0.10264215E-001
      463.47490      0.10245775E-001
      463.65490      0.10225447E-001
      463.83490      0.10203243E-001
      464.01490      0.10179174E-001
      464.19490      0.10153253E-001
      464.37490      0.10125496E-001
      464.55490      0.10095916E-001
      464.73490      0.10064530E-001
      464.91490      0.10031355E-001
      465.09490      0.99964103E-002
      465.27490      0.99597145E-002
      465.45490      0.99212880E-002
      465.63490      0.98811521E-002
      465.81490      0.98393289E-002
      465.99490      0.97958416E-002
      466.17490      0.97507140E-002
      466.35490      0.97039711E-002
      466.53490      0.96556385E-002
      466.71490      0.96057427E-002
      466.89490      0.95543109E-002
      467.07490      0.95013712E-002
      467.25490      0.94469522E-002
      467.43490      0.93910835E-002
      467.61490      0.93337951E-002
      467.79490      0.92751177E-002
      467.97490      0.92150828E-002
      468.15490      0.91537223E-002
      468.33490      0.90910685E-002
      468.51490      0.90271547E-002
      468.69490      0.89620142E-002
      468.87490      0.88956810E-002
      469.05490      0.88281895E-002
      469.23490      0.87595744E-002
      469.41490      0.86898711E-002
      469.59490      0.86191148E-002
      469.77490      0.85473415E-002
      469.95490      0.84745871E-002
      470.13490      0.84008880E-002
      470.31490      0.83262807E-002
      470.49490      0.82508019E-002
      470.67490      0.81744884E-002
      470.85490      0.80973772E-002
      471.03490      0.80195054E-002
      471.21490      0.79409101E-002
      471.39490      0.78616283E-002
      471.57490      0.77816973E-002
      471.75490      0.77011542E-002
      471.93490      0.76200360E-002
      472.11490      0.75383796E-002
      472.29490      0.74562220E-002
      472.47490      0.73735999E-002
      472.65490      0.72905497E-002
      472.83490      0.72071078E-002
      473.01490      0.71233104E-002
      473.19490      0.70391934E-002
      473.37490      0.69547923E-002
      473.55490      0.68701425E-002
      473.73490      0.67852790E-002
      473.91490      0.67002364E-002
      474.09490      0.66150491E-002
      474.27490      0.65297509E-002
      474.45490      0.64443754E-002
      474.63490      0.63589556E-002
      474.81490      0.62735243E-002
      474.99490      0.61881135E-002
      475.17490      0.61027550E-002
      475.35490      0.60174800E-002
      475.53490      0.59323192E-002
      475.71490      0.58473028E-002
      475.89490      0.57624603E-002
      476.07490      0.56778208E-002
      476.25490      0.55934128E-002
      476.43490      0.55092643E-002
      476.61490      0.54254024E-002
      476.79490      0.53418540E-002
      476.97490      0.52586452E-002
      477.15490      0.51758013E-002
      477.33490      0.50933472E-002
      477.51490      0.50113070E-002
      477.69490      0.49297044E-002
      477.87490      0.48485622E-002
      478.05490      0.47679027E-002
      478.23490      0.46877472E-002
      478.41490      0.46081168E-002
      478.59490      0.45290317E-002
      478.77490      0.44505113E-002
      478.95490      0.43725746E-002
      479.13490      0.42952396E-002
      479.31490      0.42185239E-002
      479.49490      0.41424443E-002
      479.67490      0.40670169E-002
      479.85490      0.39922572E-002
      480.03490      0.39181799E-002
      480.21490      0.38447991E-002
      480.39490      0.37721282E-002
      480.57490      0.37001801E-002
      480.75490      0.36289668E-002
      480.93490      0.35584997E-002
      481.11490      0.34887896E-002
      481.29490      0.34198467E-002
      481.47490      0.33516804E-002
      481.65490      0.32842996E-002
      481.83490      0.32177126E-002
      482.01490      0.31519269E-002
      482.19490      0.30869495E-002
      482.37490      0.30227869E-002
      482.55490      0.29594449E-002
      482.73490      0.28969286E-002
      482.91490      0.28352428E-002
      483.09490      0.27743915E-002
      483.27490      0.27143781E-002
      483.45490      0.26552058E-002
      483.63490      0.25968769E-002
      483.81490      0.25393934E-002
      483.99490      0.24827567E-002
      484.17490      0.24269676E-002
      484.35490      0.23720267E-002
      484.53490      0.23179338E-002
      484.71490      0.22646884E-002
      484.89490      0.22122895E-002
      485.07490      0.21607358E-002
      485.25490      0.21100254E-002
      485.43490      0.20601560E-002
      485.61490      0.20111249E-002
      485.79490      0.19629292E-002
      485.97490      0.19155653E-002
      486.15490      0.18690294E-002
      486.33490      0.18233175E-002
      486.51490      0.17784249E-002
      486.69490      0.17343469E-002
      486.87490      0.16910784E-002
      487.05490      0.16486138E-002
      487.23490      0.16069474E-002
      487.41490      0.15660732E-002
      487.59490      0.15259850E-002
      487.77490      0.14866761E-002
      487.95490      0.14481399E-002
      488.13490      0.14103692E-002
      488.31490      0.13733568E-002
      488.49490      0.13370953E-002
      488.67490      0.13015771E-002
      488.85490      0.12667944E-002
      489.03490      0.12327390E-002
      489.21490      0.11994029E-002
      489.39490      0.11667778E-002
      489.57490      0.11348552E-002
      489.75490      0.11036266E-002
      489.93490      0.10730831E-002
      490.11490      0.10432160E-002
      490.29490      0.10140165E-002
      490.47490      0.98547544E-003
      490.65490      0.95758379E-003
      490.83490      0.93033240E-003
      491.01490      0.90371205E-003
      491.19490      0.87771347E-003
      491.37490      0.85232734E-003
      491.55490      0.82754431E-003
      491.73490      0.80335500E-003
      491.91490      0.77975002E-003
      492.09490      0.75671996E-003
      492.27490      0.73425539E-003
      492.45490      0.71234691E-003
      492.63490      0.69098510E-003
      492.81490      0.67016059E-003
      492.99490      0.64986401E-003
      493.17490      0.63008603E-003
      493.35490      0.61081735E-003
      493.53490      0.59204871E-003
      493.71490      0.57377091E-003
      493.89490      0.55597478E-003
      494.07490      0.53865125E-003
      494.25490      0.52179126E-003
      494.43490      0.50538586E-003
      494.61490      0.48942617E-003
      494.79490      0.47390336E-003
      494.97490      0.45880871E-003
      495.15490      0.44413357E-003
      495.33490      0.42986940E-003
      495.51490      0.41600773E-003
      495.69490      0.40254020E-003
      495.87490      0.38945857E-003
      496.05490      0.37675466E-003
      496.23490      0.36442044E-003
      496.41490      0.35244797E-003
      496.59490      0.34082942E-003
      496.77490      0.32955710E-003
      496.95490      0.31862341E-003
      497.13490      0.30802088E-003
      497.31490      0.29774217E-003
      497.49490      0.28778006E-003
      497.67490      0.27812746E-003
      497.85490      0.26877741E-003
      498.03490      0.25972306E-003
      498.21490      0.25095772E-003
      498.39490      0.24247483E-003
      498.57490      0.23426793E-003
      498.75490      0.22633075E-003
      498.93490      0.21865711E-003
      499.11490      0.21124099E-003
      499.29490      0.20407652E-003
      499.47490      0.19715794E-003
      499.65490      0.19047965E-003
      499.83490      0.18403619E-003
      500.01490      0.17782224E-003
      500.19490      0.17183263E-003
      500.37490      0.16606231E-003
      500.55490      0.16050640E-003
      500.73490      0.15516015E-003
      500.91490      0.15001897E-003
      501.09490      0.14507838E-003
      501.27490      0.14033408E-003
      501.45490      0.13578191E-003
      501.63490      0.13141784E-003
      501.81490      0.12723799E-003
      501.99490      0.12323865E-003
      502.17490      0.11941621E-003
      502.35490      0.11576726E-003
      502.53490      0.11228848E-003
      502.71490      0.10897675E-003
      502.89490      0.10582906E-003
      503.07490      0.10284256E-003
      503.25490      0.10001455E-003
      503.43490      0.97342461E-004
      503.61490      0.94823891E-004
      503.79490      0.92456574E-004
      503.97490      0.90238390E-004
      504.15490      0.88167370E-004
      504.33490      0.86241690E-004
      504.51490      0.84459674E-004
      504.69490      0.82819794E-004
      504.87490      0.81320667E-004
      505.05490      0.79961060E-004
      505.23490      0.78739886E-004
      505.41490      0.77656208E-004
      505.59490      0.76709234E-004
      505.77490      0.75898324E-004
      505.95490      0.75222982E-004
      506.13490      0.74682865E-004
      506.31490      0.74277776E-004
      506.49490      0.74007668E-004
      506.67490      0.73872643E-004
      506.85490      0.73872953E-004
      507.03490      0.74009000E-004
      507.21490      0.74281335E-004
      507.39490      0.74690662E-004
      507.57490      0.75237833E-004
      507.75490      0.75923853E-004
      507.93490      0.76749877E-004
      508.11490      0.77717214E-004
      508.29490      0.78827322E-004
      508.47490      0.80081815E-004
      508.65490      0.81482456E-004
      508.83490      0.83031164E-004
      509.01490      0.84730010E-004
      509.19490      0.86581220E-004
      509.37490      0.88587172E-004
      509.55490      0.90750400E-004
      509.73490      0.93073593E-004
      509.91490      0.95559592E-004
      510.09490      0.98211397E-004
      510.27490      0.10103216E-003
      510.45490      0.10402519E-003
      510.63490      0.10719395E-003
      510.81490      0.11054206E-003
      510.99490      0.11407330E-003
      511.17490      0.11779160E-003
      511.35490      0.12170104E-003
      511.53490      0.12580586E-003
      511.71490      0.13011047E-003
      511.89490      0.13461942E-003
      512.07490      0.13933742E-003
      512.25490      0.14426932E-003
      512.43490      0.14942014E-003
      512.61490      0.15479505E-003
      512.79490      0.16039938E-003
      512.97490      0.16623859E-003
      513.15490      0.17231832E-003
      513.33490      0.17864434E-003
      513.51490      0.18522257E-003
      513.69490      0.19205909E-003
      513.87490      0.19916012E-003
      514.05490      0.20653201E-003
      514.23490      0.21418129E-003
      514.41490      0.22211460E-003
      514.59490      0.23033874E-003
      514.77490      0.23886063E-003
      514.95490      0.24768734E-003
      515.13490      0.25682607E-003
      515.31490      0.26628415E-003
      515.49490      0.27606905E-003
      515.67490      0.28618835E-003
      515.85490      0.29664976E-003
      516.03490      0.30746112E-003
      516.21490      0.31863037E-003
      516.39490      0.33016557E-003
      516.57490      0.34207489E-003
      516.75490      0.35436661E-003
      516.93490      0.36704911E-003
      517.11490      0.38013087E-003
      517.29490      0.39362044E-003
      517.47490      0.40752650E-003
      517.65490      0.42185777E-003
      517.83490      0.43662308E-003
      518.01490      0.45183132E-003
      518.19490      0.46749144E-003
      518.37490      0.48361246E-003
      518.55490      0.50020345E-003
      518.73490      0.51727354E-003
      518.91490      0.53483188E-003
      519.09490      0.55288769E-003
      519.27490      0.57145018E-003
      519.45490      0.59052860E-003
      519.63490      0.61013221E-003
      519.81490      0.63027029E-003
      519.99490      0.65095208E-003
      520.17490      0.67218686E-003
      520.35490      0.69398385E-003
      520.53490      0.71635226E-003
      520.71490      0.73930127E-003
      520.89490      0.76283998E-003
      521.07490      0.78697748E-003
      521.25490      0.81172277E-003
      521.43490      0.83708478E-003
      521.61490      0.86307235E-003
      521.79490      0.88969423E-003
      521.97490      0.91695906E-003
      522.15490      0.94487538E-003
      522.33490      0.97345159E-003
      522.51490      0.10026959E-002
      522.69490      0.10326166E-002
      522.87490      0.10632214E-002
      523.05490      0.10945182E-002
      523.23490      0.11265146E-002
      523.41490      0.11592180E-002
      523.59490      0.11926356E-002
      523.77490      0.12267743E-002
      523.95490      0.12616409E-002
      524.13490      0.12972420E-002
      524.31490      0.13335836E-002
      524.49490      0.13706718E-002
      524.67490      0.14085124E-002
      524.85490      0.14471106E-002
      525.03490      0.14864715E-002
      525.21490      0.15266000E-002
      525.39490      0.15675004E-002
      525.57490      0.16091768E-002
      525.75490      0.16516330E-002
      525.93490      0.16948723E-002
      526.11490      0.17388977E-002
      526.29490      0.17837118E-002
      526.47490      0.18293166E-002
      526.65490      0.18757140E-002
      526.83490      0.19229053E-002
      527.01490      0.19708913E-002
      527.19490      0.20196725E-002
      527.37490      0.20692487E-002
      527.55490      0.21196195E-002
      527.73490      0.21707837E-002
      527.91490      0.22227398E-002
      528.09490      0.22754858E-002
      528.27490      0.23290192E-002
      528.45490      0.23833366E-002
      528.63490      0.24384346E-002
      528.81490      0.24943088E-002
      528.99490      0.25509546E-002
      529.17490      0.26083664E-002
      529.35490      0.26665383E-002
      529.53490      0.27254639E-002
      529.71490      0.27851360E-002
      529.89490      0.28455467E-002
      530.07490      0.29066878E-002
      530.25490      0.29685502E-002
      530.43490      0.30311244E-002
      530.61490      0.30944000E-002
      530.79490      0.31583662E-002
      530.97490      0.32230115E-002
      531.15490      0.32883236E-002
      531.33490      0.33542898E-002
      531.51490      0.34208965E-002
      531.69490      0.34881296E-002
      531.87490      0.35559743E-002
      532.05490      0.36244152E-002
      532.23490      0.36934361E-002
      532.41490      0.37630202E-002
      532.59490      0.38331502E-002
      532.77490      0.39038078E-002
      532.95490      0.39749745E-002
      533.13490      0.40466307E-002
      533.31490      0.41187564E-002
      533.49490      0.41913310E-002
      533.67490      0.42643331E-002
      533.85490      0.43377408E-002
      534.03490      0.44115315E-002
      534.21490      0.44856820E-002
      534.39490      0.45601685E-002
      534.57490      0.46349665E-002
      534.75490      0.47100512E-002
      534.93490      0.47853968E-002
      535.11490      0.48609773E-002
      535.29490      0.49367660E-002
      535.47490      0.50127355E-002
      535.65490      0.50888582E-002
      535.83490      0.51651057E-002
      536.01490      0.52414493E-002
      536.19490      0.53178596E-002
      536.37490      0.53943069E-002
      536.55490      0.54707609E-002
      536.73490      0.55471911E-002
      536.91490      0.56235664E-002
      537.09490      0.56998554E-002
      537.27490      0.57760261E-002
      537.45490      0.58520464E-002
      537.63490      0.59278837E-002
      537.81490      0.60035053E-002
      537.99490      0.60788780E-002
      538.17490      0.61539684E-002
      538.35490      0.62287428E-002
      538.53490      0.63031673E-002
      538.71490      0.63772080E-002
      538.89490      0.64508305E-002
      539.07490      0.65240004E-002
      539.25490      0.65966834E-002
      539.43490      0.66688446E-002
      539.61490      0.67404496E-002
      539.79490      0.68114635E-002
      539.97490      0.68818516E-002
      540.15490      0.69515793E-002
      540.33490      0.70206118E-002
      540.51490      0.70889146E-002
      540.69490      0.71564531E-002
      540.87490      0.72231930E-002
      541.05490      0.72891001E-002
      541.23490      0.73541403E-002
      541.41490      0.74182799E-002
      541.59490      0.74814851E-002
      541.77490      0.75437229E-002
      541.95490      0.76049601E-002
      542.13490      0.76651640E-002
      542.31490      0.77243025E-002
      542.49490      0.77823435E-002
      542.67490      0.78392555E-002
      542.85490      0.78950076E-002
      543.03490      0.79495690E-002
      543.21490      0.80029098E-002
      543.39490      0.80550003E-002
      543.57490      0.81058116E-002
      543.75490      0.81553152E-002
      543.93490      0.82034833E-002
      544.11490      0.82502888E-002
      544.29490      0.82957052E-002
      544.47490      0.83397066E-002
      544.65490      0.83822679E-002
      544.83490      0.84233646E-002
      545.01490      0.84629733E-002
      545.19490      0.85010711E-002
      545.37490      0.85376358E-002
      545.55490      0.85726463E-002
      545.73490      0.86060822E-002
      545.91490      0.86379239E-002
      546.09490      0.86681530E-002
      546.27490      0.86967515E-002
      546.45490      0.87237027E-002
      546.63490      0.87489908E-002
      546.81490      0.87726007E-002
      546.99490      0.87945186E-002
      547.17490      0.88147314E-002
      547.35490      0.88332271E-002
      547.53490      0.88499948E-002
      547.71490      0.88650244E-002
      547.89490      0.88783071E-002
      548.07490      0.88898348E-002
      548.25490      0.88996007E-002
      548.43490      0.89075990E-002
      548.61490      0.89138248E-002
      548.79490      0.89182745E-002
      548.97490      0.89209454E-002
      549.15490      0.89218359E-002
      549.33490      0.89209454E-002
      549.51490      0.89182745E-002
      549.69490      0.89138248E-002
      549.87490      0.89075989E-002
      550.05490      0.88996007E-002
      550.23490      0.88898348E-002
      550.41490      0.88783070E-002
      550.59490      0.88650244E-002
      550.77490      0.88499948E-002
      550.95490      0.88332271E-002
      551.13490      0.88147314E-002
      551.31490      0.87945186E-002
      551.49490      0.87726007E-002
      551.67490      0.87489908E-002
      551.85490      0.87237027E-002
      552.03490      0.86967515E-002
      552.21490      0.86681529E-002
      552.39490      0.86379239E-002
      552.57490      0.86060821E-002
      552.75490      0.85726462E-002
      552.93490      0.85376357E-002
      553.11490      0.85010710E-002
      553.29490      0.84629732E-002
      553.47490      0.84233645E-002
      553.65490      0.83822677E-002
      553.83490      0.83397064E-002
      554.01490      0.82957051E-002
      554.19490      0.82502887E-002
      554.37490      0.82034832E-002
      554.55490      0.81553150E-002
      554.73490      0.81058114E-002
      554.91490      0.80550001E-002
      555.09490      0.80029095E-002
      555.27490      0.79495688E-002
      555.45490      0.78950073E-002
      555.63490      0.78392553E-002
      555.81490      0.77823432E-002
      555.99490      0.77243022E-002
      556.17490      0.76651637E-002
      556.35490      0.76049597E-002
      556.53490      0.75437225E-002
      556.71490      0.74814847E-002
      556.89490      0.74182794E-002
      557.07490      0.73541398E-002
      557.25490      0.72890995E-002
      557.43490      0.72231924E-002
      557.61490      0.71564525E-002
      557.79490      0.70889139E-002
      557.97490      0.70206110E-002
      558.15490      0.69515785E-002
      558.33490      0.68818507E-002
      558.51490      0.68114625E-002
      558.69490      0.67404486E-002
      558.87490      0.66688435E-002
      559.05490      0.65966822E-002
      559.23490      0.65239992E-002
      559.41490      0.64508291E-002
      559.59490      0.63772065E-002
      559.77490      0.63031658E-002
      559.95490      0.62287411E-002
      560.13490      0.61539666E-002
      560.31490      0.60788761E-002
      560.49490      0.60035032E-002
      560.67490      0.59278815E-002
      560.85490      0.58520439E-002
      561.03490      0.57760235E-002
      561.21490      0.56998526E-002
      561.39490      0.56235634E-002
      561.57490      0.55471879E-002
      561.75490      0.54707575E-002
      561.93490      0.53943032E-002
      562.11490      0.53178556E-002
      562.29490      0.52414450E-002
      562.47490      0.51651012E-002
      562.65490      0.50888533E-002
      562.83490      0.50127303E-002
      563.01490      0.49367603E-002
      563.19490      0.48609713E-002
      563.37490      0.47853903E-002
      563.55490      0.47100442E-002
      563.73490      0.46349591E-002
      563.91490      0.45601605E-002
      564.09490      0.44856735E-002
      564.27490      0.44115224E-002
      564.45490      0.43377310E-002
      564.63490      0.42643227E-002
      564.81490      0.41913198E-002
      564.99490      0.41187444E-002
      565.17490      0.40466178E-002
      565.35490      0.39749607E-002
      565.53490      0.39037931E-002
      565.71490      0.38331344E-002
      565.89490      0.37630034E-002
      566.07490      0.36934181E-002
      566.25490      0.36243960E-002
      566.43490      0.35559539E-002
      566.61490      0.34881077E-002
      566.79490      0.34208731E-002
      566.97490      0.33542648E-002
      567.15490      0.32882970E-002
      567.33490      0.32229831E-002
      567.51490      0.31583359E-002
      567.69490      0.30943676E-002
      567.87490      0.30310898E-002
      568.05490      0.29685134E-002
      568.23490      0.29066485E-002
      568.41490      0.28455048E-002
      568.59490      0.27850913E-002
      568.77490      0.27254163E-002
      568.95490      0.26664876E-002
      569.13490      0.26083123E-002
      569.31490      0.25508969E-002
      569.49490      0.24942475E-002
      569.67490      0.24383692E-002
      569.85490      0.23832670E-002
      570.03490      0.23289451E-002
      570.21490      0.22754070E-002
      570.39490      0.22226559E-002
      570.57490      0.21706944E-002
      570.75490      0.21195244E-002
      570.93490      0.20691477E-002
      571.11490      0.20195650E-002
      571.29490      0.19707771E-002
      571.47490      0.19227839E-002
      571.65490      0.18755849E-002
      571.83490      0.18291794E-002
      572.01490      0.17835660E-002
      572.19490      0.17387429E-002
      572.37490      0.16947079E-002
      572.55490      0.16514584E-002
      572.73490      0.16089914E-002
      572.91490      0.15673035E-002
      573.09490      0.15263910E-002
      573.27490      0.14862498E-002
      573.45490      0.14468753E-002
      573.63490      0.14082628E-002
      573.81490      0.13704072E-002
      573.99490      0.13333029E-002
      574.17490      0.12969444E-002
      574.35490      0.12613255E-002
      574.53490      0.12264400E-002
      574.71490      0.11922813E-002
      574.89490      0.11588426E-002
      575.07490      0.11261169E-002
      575.25490      0.10940970E-002
      575.43490      0.10627753E-002
      575.61490      0.10321442E-002
      575.79490      0.10021959E-002
      575.97490      0.97292237E-003
      576.15490      0.94431533E-003
      576.33490      0.91636649E-003
      576.51490      0.88906734E-003
      576.69490      0.86240928E-003
      576.87490      0.83638356E-003
      577.05490      0.81098133E-003
      577.23490      0.78619364E-003
      577.41490      0.76201146E-003
      577.59490      0.73842567E-003
      577.77490      0.71542706E-003
      577.95490      0.69300641E-003
      578.13490      0.67115440E-003
      578.31490      0.64986169E-003
      578.49490      0.62911890E-003
      578.67490      0.60891662E-003
      578.85490      0.58924544E-003
      579.03490      0.57009593E-003
      579.21490      0.55145864E-003
      579.39490      0.53332416E-003
      579.57490      0.51568308E-003
      579.75490      0.49852598E-003
      579.93490      0.48184352E-003
      580.11490      0.46562635E-003
      580.29490      0.44986518E-003
      580.47490      0.43455076E-003
      580.65490      0.41967389E-003
      580.83490      0.40522543E-003
      581.01490      0.39119629E-003
      581.19490      0.37757747E-003
      581.37490      0.36436003E-003
      581.55490      0.35153509E-003
      581.73490      0.33909387E-003
      581.91490      0.32702767E-003
      582.09490      0.31532787E-003
      582.27490      0.30398596E-003
      582.45490      0.29299351E-003
      582.63490      0.28234218E-003
      582.81490      0.27202377E-003
      582.99490      0.26203013E-003
      583.17490      0.25235326E-003
      583.35490      0.24298524E-003
      583.53490      0.23391829E-003
      583.71490      0.22514473E-003
      583.89490      0.21665698E-003
      584.07490      0.20844759E-003
      584.25490      0.20050924E-003
      584.43490      0.19283470E-003
      584.61490      0.18541689E-003
      584.79490      0.17824884E-003
      584.97490      0.17132369E-003
      585.15490      0.16463473E-003
      585.33490      0.15817534E-003
      585.51490      0.15193905E-003
      585.69490      0.14591950E-003
      585.87490      0.14011046E-003
      586.05490      0.13450583E-003
      586.23490      0.12909961E-003
      586.41490      0.12388596E-003
      586.59490      0.11885913E-003
      586.77490      0.11401350E-003
      586.95490      0.10934359E-003
      587.13490      0.10484403E-003
      587.31490      0.10050956E-003
      587.49490      0.96335050E-004
      587.67490      0.92315493E-004
      587.85490      0.88445994E-004
      588.03490      0.84721774E-004
      588.21490      0.81138172E-004
      588.39490      0.77690640E-004
      588.57490      0.74374744E-004
      588.75490      0.71186161E-004
      588.93490      0.68120678E-004
      589.11490      0.65174192E-004
      589.29490      0.62342707E-004
      589.47490      0.59622331E-004
      589.65490      0.57009280E-004
      589.83490      0.54499870E-004
      590.01490      0.52090518E-004
      590.19490      0.49777742E-004
      590.37490      0.47558156E-004
      590.55490      0.45428472E-004
      590.73490      0.43385495E-004
      590.91490      0.41426123E-004
      591.09490      0.39547344E-004
      591.27490      0.37746236E-004
      591.45490      0.36019965E-004
      591.63490      0.34365782E-004
      591.81490      0.32781021E-004
      591.99490      0.31263099E-004
      592.17490      0.29809513E-004
      592.35490      0.28417838E-004
      592.53490      0.27085727E-004
      592.71490      0.25810906E-004
      592.89490      0.24591177E-004
      593.07490      0.23424411E-004
      593.25490      0.22308551E-004
      593.43490      0.21241605E-004
      593.61490      0.20221651E-004
      593.79490      0.19246829E-004
      593.97490      0.18315344E-004
      594.15490      0.17425461E-004
      594.33490      0.16575505E-004
      594.51490      0.15763859E-004
      594.69490      0.14988965E-004
      594.87490      0.14249317E-004
      595.05490      0.13543464E-004
      595.23490      0.12870007E-004
      595.41490      0.12227596E-004
      595.59490      0.11614933E-004
      595.77490      0.11030765E-004
      595.95490      0.10473886E-004
      596.13490      0.99431356E-005
      596.31490      0.94373963E-005
      596.49490      0.89555925E-005
      596.67490      0.84966898E-005
      596.85490      0.80596930E-005
      597.03490      0.76436456E-005
      597.21490      0.72476279E-005
      597.39490      0.68707562E-005
      597.57490      0.65121814E-005
      597.75490      0.61710881E-005
      597.93490      0.58466932E-005
      598.11490      0.55382450E-005
      598.29490      0.52450222E-005
      598.47490      0.49663326E-005
      598.65490      0.47015123E-005
      598.83490      0.44499246E-005
      599.01490      0.42109592E-005
      599.19490      0.39840310E-005
      599.37490      0.37685797E-005
      599.55490      0.35640681E-005
      599.73490      0.33699820E-005
      599.91490      0.31858291E-005
      600.09490      0.30111381E-005
      600.27490      0.28454580E-005
      600.45490      0.26883573E-005
      600.63490      0.25394233E-005
      600.81490      0.23982614E-005
      600.99490      0.22644943E-005
      601.17490      0.21377615E-005
      601.35490      0.20177185E-005
      601.53490      0.19040362E-005
      601.71490      0.17964003E-005
      601.89490      0.16945109E-005
      602.07490      0.15980814E-005
      602.25490      0.15068386E-005
      602.43490      0.14205217E-005
      602.61490      0.13388821E-005
      602.79490      0.12616825E-005
      602.97490      0.11886969E-005
      603.15490      0.11197098E-005
      603.33490      0.10545159E-005
      603.51490      0.99291965E-006
      603.69490      0.93473472E-006
      603.87490      0.87978377E-006
      604.05490      0.82789797E-006
      604.23490      0.77891666E-006
      604.41490      0.73268698E-006
      604.59490      0.68906352E-006
      604.77490      0.64790800E-006
      604.95490      0.60908897E-006
      605.13490      0.57248146E-006
      605.31490      0.53796674E-006
      605.49490      0.50543199E-006
      605.67490      0.47477007E-006
      605.85490      0.44587923E-006
      606.03490      0.41866287E-006
      606.21490      0.39302933E-006
      606.39490      0.36889161E-006
      606.57490      0.34616719E-006
      606.75490      0.32477779E-006
      606.93490      0.30464921E-006
      607.11490      0.28571108E-006
      607.29490      0.26789673E-006
      607.47490      0.25114299E-006
      607.65490      0.23538999E-006
      607.83490      0.22058107E-006
      608.01490      0.20666255E-006
      608.19490      0.19358363E-006
      608.37490      0.18129624E-006
      608.55490      0.16975487E-006
      608.73490      0.15891651E-006
      608.91490      0.14874044E-006
      609.09490      0.13918821E-006
      609.27490      0.13022342E-006
      609.45490      0.12181172E-006
      609.63490      0.11392063E-006
      609.81490      0.10651946E-006
      609.99490      0.99579245E-007
      610.17490      0.93072637E-007
      610.35490      0.86973813E-007
      610.53490      0.81258407E-007
      610.71490      0.75903430E-007
      610.89490      0.70887197E-007
      611.07490      0.66189257E-007
      611.25490      0.61790330E-007
      611.43490      0.57672241E-007
      611.61490      0.53817862E-007
      611.79490      0.50211056E-007
      611.97490      0.46836624E-007
      612.15490      0.43680249E-007
      612.33490      0.40728455E-007
      612.51490      0.37968555E-007
      612.69490      0.35388610E-007
      612.87490      0.32977387E-007
      613.05490      0.30724320E-007
      613.23490      0.28619472E-007
      613.41490      0.26653502E-007
      613.59490      0.24817625E-007
      613.77490      0.23103591E-007
      613.95490      0.21503643E-007
      614.13490      0.20010498E-007
      614.31490      0.18617316E-007
      614.49490      0.17317673E-007
      614.67490      0.16105540E-007
      614.85490      0.14975260E-007
      615.03490      0.13921523E-007
      615.21490      0.12939349E-007
      615.39490      0.12024068E-007
      615.57490      0.11171300E-007
      615.75490      0.10376940E-007
      615.93490      0.96371407E-008
      616.11490      0.89482972E-008
      616.29490      0.83070323E-008
      616.47490      0.77101834E-008
      616.65490      0.71547888E-008
      616.83490      0.66380761E-008
      617.01490      0.61574507E-008
      617.19490      0.57104846E-008
      617.37490      0.52949064E-008
      617.55490      0.49085917E-008
      617.73490      0.45495542E-008
      617.91490      0.42159366E-008
      618.09490      0.39060033E-008
      618.27490      0.36181323E-008
      618.45490      0.33508083E-008
      618.63490      0.31026160E-008
      618.81490      0.28722338E-008
      618.99490      0.26584276E-008
      619.17490      0.24600458E-008
      619.35490      0.22760136E-008
      619.53490      0.21053282E-008
      619.71490      0.19470544E-008
      619.89490      0.18003198E-008
      620.07490      0.16643111E-008
      620.25490      0.15382704E-008
      620.43490      0.14214912E-008
      620.61490      0.13133152E-008
      620.79490      0.12131292E-008
      620.97490      0.11203622E-008
      621.15490      0.10344825E-008
      621.33490      0.95499506E-009
      621.51490      0.88143933E-009
      621.69490      0.81338662E-009
      621.87490      0.75043820E-009
      622.05490      0.69222319E-009
      622.23490      0.63839673E-009
      622.41490      0.58863824E-009
      622.59490      0.54264973E-009
      622.77490      0.50015431E-009
      622.95490      0.46089473E-009
      623.13490      0.42463205E-009
      623.31490      0.39114439E-009
      623.49490      0.36022574E-009
      623.67490      0.33168488E-009
      623.85490      0.30534437E-009
      624.03490      0.28103957E-009
      624.21490      0.25861774E-009
      624.39490      0.23793727E-009
      624.57490      0.21886682E-009
      624.75490      0.20128467E-009
      624.93490      0.18507798E-009
      625.11490      0.17014223E-009
      625.29490      0.15638057E-009
      625.47490      0.14370331E-009
      625.65490      0.13202739E-009
      625.83490      0.12127593E-009
      626.01490      0.11137777E-009
      626.19490      0.10226704E-009
      626.37490      0.93882832E-010
      626.55490      0.86168786E-010
      626.73490      0.79072792E-010
      626.91490      0.72546668E-010
      627.09490      0.66545881E-010
      627.27490      0.61029271E-010
      627.45490      0.55958813E-010
      627.63490      0.51299379E-010
      627.81490      0.47018528E-010
      627.99490      0.43086304E-010
      628.17490      0.39475057E-010
      628.35490      0.36159265E-010
      628.53490      0.33115379E-010
      628.71490      0.30321673E-010
      628.89490      0.27758110E-010
      629.07490      0.25406213E-010
      629.25490      0.23248947E-010
      629.43490      0.21270609E-010
      629.61490      0.19456731E-010
      629.79490      0.17793982E-010
      629.97490      0.16270080E-010
      630.15490      0.14873718E-010
      630.33490      0.13594484E-010
      630.51490      0.12422791E-010
      630.69490      0.11349820E-010
      630.87490      0.10367452E-010
      631.05490      0.94682215E-011
      631.23490      0.86452606E-011
      631.41490      0.78922544E-011
      631.59490      0.72033972E-011
      631.77490      0.65733530E-011
      631.95490      0.59972182E-011
      632.13490      0.54704877E-011
      632.31490      0.49890235E-011
      632.49490      0.45490253E-011
      632.67490      0.41470041E-011
      632.85490      0.37797569E-011
      633.03490      0.34443445E-011
      633.21490      0.31380698E-011
      633.39490      0.28584587E-011
      633.57490      0.26032420E-011
      633.75490      0.23703391E-011
      633.93490      0.21578423E-011
      634.11490      0.19640034E-011
      634.29490      0.17872203E-011
      634.47490      0.16260250E-011
      634.65490      0.14790732E-011
      634.83490      0.13451336E-011
      635.01490      0.12230789E-011
      635.19490      0.11118772E-011
      635.37490      0.10105841E-011
      635.55490      0.91833565E-012
      635.73490      0.83434124E-012
      635.91490      0.75787796E-012
      636.09490      0.68828475E-012
      636.27490      0.62495727E-012
      636.45490      0.56734313E-012
      636.63490      0.51493758E-012
      636.81490      0.46727944E-012
      636.99490      0.42394748E-012
      637.17490      0.38455703E-012
      637.35490      0.34875685E-012
      637.53490      0.31622634E-012
      637.71490      0.28667290E-012
      637.89490      0.25982956E-012
      638.07490      0.23545275E-012
      638.25490      0.21332034E-012
      638.43490      0.19322979E-012
      638.61490      0.17499644E-012
      638.79490      0.15845197E-012
      638.97490      0.14344300E-012
      639.15490      0.12982980E-012
