      419.10520       14.628722     
      419.28520       14.545882     
      419.46520       14.460987     
      419.64520       14.374076     
      419.82520       14.285192     
      420.00520       14.194376     
      420.18520       14.101671     
      420.36520       14.007119     
      420.54520       13.910765     
      420.72520       13.812653     
      420.90520       13.712830     
      421.08520       13.611341     
      421.26520       13.508233     
      421.44520       13.403553     
      421.62520       13.297348     
      421.80520       13.189667     
      421.98520       13.080558     
      422.16520       12.970071     
      422.34520       12.858253     
      422.52520       12.745157     
      422.70520       12.630830     
      422.88520       12.515323     
      423.06520       12.398686     
      423.24520       12.280971     
      423.42520       12.162227     
      423.60520       12.042506     
      423.78520       11.921858     
      423.96520       11.800334     
      424.14520       11.677984     
      424.32520       11.554861     
      424.50520       11.431013     
      424.68520       11.306492     
      424.86520       11.181348     
      425.04520       11.055631     
      425.22520       10.929392     
      425.40520       10.802679     
      425.58520       10.675543     
      425.76520       10.548033     
      425.94520       10.420197     
      426.12520       10.292083     
      426.30520       10.163740     
      426.48520       10.035215     
      426.66520       9.9065548     
      426.84520       9.7778066     
      427.02520       9.6490161     
      427.20520       9.5202288     
      427.38520       9.3914896     
      427.56520       9.2628428     
      427.74520       9.1343321     
      427.92520       9.0060005     
      428.10520       8.8778904     
      428.28520       8.7500434     
      428.46520       8.6225005     
      428.64520       8.4953020     
      428.82520       8.3684873     
      429.00520       8.2420952     
      429.18520       8.1161636     
      429.36520       7.9907297     
      429.54520       7.8658298     
      429.72520       7.7414995     
      429.90520       7.6177733     
      430.08520       7.4946851     
      430.26520       7.3722679     
      430.44520       7.2505539     
      430.62520       7.1295741     
      430.80520       7.0093589     
      430.98520       6.8899378     
      431.16520       6.7713394     
      431.34520       6.6535911     
      431.52520       6.5367198     
      431.70520       6.4207512     
      431.88520       6.3057102     
      432.06520       6.1916208     
      432.24520       6.0785061     
      432.42520       5.9663881     
      432.60520       5.8552881     
      432.78520       5.7452262     
      432.96520       5.6362220     
      433.14520       5.5282939     
      433.32520       5.4214593     
      433.50520       5.3157350     
      433.68520       5.2111367     
      433.86520       5.1076791     
      434.04520       5.0053764     
      434.22520       4.9042414     
      434.40520       4.8042865     
      434.58520       4.7055230     
      434.76520       4.6079614     
      434.94520       4.5116113     
      435.12520       4.4164814     
      435.30520       4.3225799     
      435.48520       4.2299138     
      435.66520       4.1384894     
      435.84520       4.0483125     
      436.02520       3.9593877     
      436.20520       3.8717191     
      436.38520       3.7853100     
      436.56520       3.7001630     
      436.74520       3.6162797     
      436.92520       3.5336615     
      437.10520       3.4523086     
      437.28520       3.3722209     
      437.46520       3.2933974     
      437.64520       3.2158366     
      437.82520       3.1395362     
      438.00520       3.0644935     
      438.18520       2.9907051     
      438.36520       2.9181669     
      438.54520       2.8468745     
      438.72520       2.7768226     
      438.90520       2.7080058     
      439.08520       2.6404178     
      439.26520       2.5740520     
      439.44520       2.5089013     
      439.62520       2.4449581     
      439.80520       2.3822143     
      439.98520       2.3206615     
      440.16520       2.2602908     
      440.34520       2.2010928     
      440.52520       2.1430581     
      440.70520       2.0861765     
      440.88520       2.0304376     
      441.06520       1.9758308     
      441.24520       1.9223451     
      441.42520       1.8699690     
      441.60520       1.8186912     
      441.78520       1.7684995     
      441.96520       1.7193821     
      442.14520       1.6713264     
      442.32520       1.6243200     
      442.50520       1.5783501     
      442.68520       1.5334036     
      442.86520       1.4894675     
      443.04520       1.4465284     
      443.22520       1.4045729     
      443.40520       1.3635874     
      443.58520       1.3235583     
      443.76520       1.2844715     
      443.94520       1.2463134     
      444.12520       1.2090698     
      444.30520       1.1727267     
      444.48520       1.1372700     
      444.66520       1.1026855     
      444.84520       1.0689590     
      445.02520       1.0360763     
      445.20520       1.0040231     
      445.38520      0.97278519     
      445.56520      0.94234835     
      445.74520      0.91269834     
      445.92520      0.88382097     
      446.10520      0.85570208     
      446.28520      0.82832756     
      446.46520      0.80168335     
      446.64520      0.77575546     
      446.82520      0.75052995     
      447.00520      0.72599298     
      447.18520      0.70213078     
      447.36520      0.67892968     
      447.54520      0.65637609     
      447.72520      0.63445655     
      447.90520      0.61315769     
      448.08520      0.59246627     
      448.26520      0.57236916     
      448.44520      0.55285337     
      448.62520      0.53390604     
      448.80520      0.51551443     
      448.98520      0.49766595     
      449.16520      0.48034817     
      449.34520      0.46354878     
      449.52520      0.44725566     
      449.70520      0.43145680     
      449.88520      0.41614039     
      450.06520      0.40129476     
      450.24520      0.38690840     
      450.42520      0.37296998     
      450.60520      0.35946833     
      450.78520      0.34639246     
      450.96520      0.33373153     
      451.14520      0.32147489     
      451.32520      0.30961207     
      451.50520      0.29813277     
      451.68520      0.28702685     
      451.86520      0.27628436     
      452.04520      0.26589555     
      452.22520      0.25585080     
      452.40520      0.24614072     
      452.58520      0.23675604     
      452.76520      0.22768773     
      452.94520      0.21892688     
      453.12520      0.21046481     
      453.30520      0.20229297     
      453.48520      0.19440301     
      453.66520      0.18678675     
      453.84520      0.17943618     
      454.02520      0.17234348     
      454.20520      0.16550097     
      454.38520      0.15890117     
      454.56520      0.15253675     
      454.74520      0.14640055     
      454.92520      0.14048558     
      455.10520      0.13478501     
      455.28520      0.12929218     
      455.46520      0.12400058     
      455.64520      0.11890386     
      455.82520      0.11399582     
      456.00520      0.10927045     
      456.18520      0.10472184     
      456.36520      0.10034426     
      456.54520      0.96132121E-001
      456.72520      0.92079989E-001
      456.90520      0.88182560E-001
      457.08520      0.84434679E-001
      457.26520      0.80831326E-001
      457.44520      0.77367620E-001
      457.62520      0.74038812E-001
      457.80520      0.70840287E-001
      457.98520      0.67767559E-001
      458.16520      0.64816267E-001
      458.34520      0.61982177E-001
      458.52520      0.59261176E-001
      458.70520      0.56649270E-001
      458.88520      0.54142584E-001
      459.06520      0.51737357E-001
      459.24520      0.49429940E-001
      459.42520      0.47216796E-001
      459.60520      0.45094494E-001
      459.78520      0.43059708E-001
      459.96520      0.41109217E-001
      460.14520      0.39239898E-001
      460.32520      0.37448729E-001
      460.50520      0.35732782E-001
      460.68520      0.34089222E-001
      460.86520      0.32515309E-001
      461.04520      0.31008389E-001
      461.22520      0.29565894E-001
      461.40520      0.28185345E-001
      461.58520      0.26864341E-001
      461.76520      0.25600564E-001
      461.94520      0.24391773E-001
      462.12520      0.23235805E-001
      462.30520      0.22130569E-001
      462.48520      0.21074047E-001
      462.66520      0.20064292E-001
      462.84520      0.19099423E-001
      463.02520      0.18177627E-001
      463.20520      0.17297154E-001
      463.38520      0.16456319E-001
      463.56520      0.15653495E-001
      463.74520      0.14887115E-001
      463.92520      0.14155668E-001
      464.10520      0.13457700E-001
      464.28520      0.12791811E-001
      464.46520      0.12156650E-001
      464.64520      0.11550919E-001
      464.82520      0.10973369E-001
      465.00520      0.10422798E-001
      465.18520      0.98980482E-002
      465.36520      0.93980079E-002
      465.54520      0.89216078E-002
      465.72520      0.84678199E-002
      465.90520      0.80356566E-002
      466.08520      0.76241687E-002
      466.26520      0.72324450E-002
      466.44520      0.68596099E-002
      466.62520      0.65048233E-002
      466.80520      0.61672786E-002
      466.98520      0.58462017E-002
      467.16520      0.55408503E-002
      467.34520      0.52505121E-002
      467.52520      0.49745043E-002
      467.70520      0.47121722E-002
      467.88520      0.44628882E-002
      468.06520      0.42260513E-002
      468.24520      0.40010853E-002
      468.42520      0.37874387E-002
      468.60520      0.35845831E-002
      468.78520      0.33920129E-002
      468.96520      0.32092440E-002
      469.14520      0.30358135E-002
      469.32520      0.28712781E-002
      469.50520      0.27152143E-002
      469.68520      0.25672168E-002
      469.86520      0.24268983E-002
      470.04520      0.22938887E-002
      470.22520      0.21678342E-002
      470.40520      0.20483969E-002
      470.58520      0.19352541E-002
      470.76520      0.18280977E-002
      470.94520      0.17266335E-002
      471.12520      0.16305808E-002
      471.30520      0.15396716E-002
      471.48520      0.14536506E-002
      471.66520      0.13722738E-002
      471.84520      0.12953090E-002
      472.02520      0.12225346E-002
      472.20520      0.11537394E-002
      472.38520      0.10887225E-002
      472.56520      0.10272920E-002
      472.74520      0.96926550E-003
      472.92520      0.91446924E-003
      473.10520      0.86273780E-003
      473.28520      0.81391376E-003
      473.46520      0.76784733E-003
      473.64520      0.72439603E-003
      473.82520      0.68342438E-003
      474.00520      0.64480354E-003
      474.18520      0.60841106E-003
      474.36520      0.57413057E-003
      474.54520      0.54185151E-003
      474.72520      0.51146886E-003
      474.90520      0.48288291E-003
      475.08520      0.45599898E-003
      475.26520      0.43072722E-003
      475.44520      0.40698235E-003
      475.62520      0.38468349E-003
      475.80520      0.36375392E-003
      475.98520      0.34412092E-003
      476.16520      0.32571553E-003
      476.34520      0.30847240E-003
      476.52520      0.29232964E-003
      476.70520      0.27722861E-003
      476.88520      0.26311378E-003
      477.06520      0.24993260E-003
      477.24520      0.23763533E-003
      477.42520      0.22617489E-003
      477.60520      0.21550677E-003
      477.78520      0.20558888E-003
      477.96520      0.19638142E-003
      478.14520      0.18784678E-003
      478.32520      0.17994942E-003
      478.50520      0.17265580E-003
      478.68520      0.16593421E-003
      478.86520      0.15975474E-003
      479.04520      0.15408917E-003
      479.22520      0.14891086E-003
      479.40520      0.14419470E-003
      479.58520      0.13991700E-003
      479.76520      0.13605546E-003
      479.94520      0.13258903E-003
      480.12520      0.12949793E-003
      480.30520      0.12676349E-003
      480.48520      0.12436816E-003
      480.66520      0.12229543E-003
      480.84520      0.12052975E-003
      481.02520      0.11905651E-003
      481.20520      0.11786197E-003
      481.38520      0.11693322E-003
      481.56520      0.11625814E-003
      481.74520      0.11582533E-003
      481.92520      0.11562409E-003
      482.10520      0.11564439E-003
      482.28520      0.11587680E-003
      482.46520      0.11631249E-003
      482.64520      0.11694317E-003
      482.82520      0.11776106E-003
      483.00520      0.11875889E-003
      483.18520      0.11992981E-003
      483.36520      0.12126745E-003
      483.54520      0.12276579E-003
      483.72520      0.12441923E-003
      483.90520      0.12622250E-003
      484.08520      0.12817066E-003
      484.26520      0.13025911E-003
      484.44520      0.13248350E-003
      484.62520      0.13483980E-003
      484.80520      0.13732418E-003
      484.98520      0.13993308E-003
      485.16520      0.14266315E-003
      485.34520      0.14551125E-003
      485.52520      0.14847442E-003
      485.70520      0.15154988E-003
      485.88520      0.15473500E-003
      486.06520      0.15802732E-003
      486.24520      0.16142450E-003
      486.42520      0.16492434E-003
      486.60520      0.16852473E-003
      486.78520      0.17222370E-003
      486.96520      0.17601934E-003
      487.14520      0.17990985E-003
      487.32520      0.18389350E-003
      487.50520      0.18796863E-003
      487.68520      0.19213363E-003
      487.86520      0.19638697E-003
      488.04520      0.20072713E-003
      488.22520      0.20515266E-003
      488.40520      0.20966213E-003
      488.58520      0.21425414E-003
      488.76520      0.21892733E-003
      488.94520      0.22368032E-003
      489.12520      0.22851178E-003
      489.30520      0.23342036E-003
      489.48520      0.23840473E-003
      489.66520      0.24346356E-003
      489.84520      0.24859550E-003
      490.02520      0.25379920E-003
      490.20520      0.25907329E-003
      490.38520      0.26441641E-003
      490.56520      0.26982715E-003
      490.74520      0.27530409E-003
      490.92520      0.28084580E-003
      491.10520      0.28645081E-003
      491.28520      0.29211762E-003
      491.46520      0.29784470E-003
      491.64520      0.30363050E-003
      491.82520      0.30947342E-003
      492.00520      0.31537183E-003
      492.18520      0.32132406E-003
      492.36520      0.32732841E-003
      492.54520      0.33338314E-003
      492.72520      0.33948645E-003
      492.90520      0.34563652E-003
      493.08520      0.35183148E-003
      493.26520      0.35806941E-003
      493.44520      0.36434836E-003
      493.62520      0.37066633E-003
      493.80520      0.37702126E-003
      493.98520      0.38341108E-003
      494.16520      0.38983364E-003
      494.34520      0.39628678E-003
      494.52520      0.40276825E-003
      494.70520      0.40927580E-003
      494.88520      0.41580713E-003
      495.06520      0.42235986E-003
      495.24520      0.42893161E-003
      495.42520      0.43551995E-003
      495.60520      0.44212239E-003
      495.78520      0.44873641E-003
      495.96520      0.45535946E-003
      496.14520      0.46198894E-003
      496.32520      0.46862221E-003
      496.50520      0.47525662E-003
      496.68520      0.48188945E-003
      496.86520      0.48851797E-003
      497.04520      0.49513942E-003
      497.22520      0.50175099E-003
      497.40520      0.50834985E-003
      497.58520      0.51493317E-003
      497.76520      0.52149804E-003
      497.94520      0.52804158E-003
      498.12520      0.53456087E-003
      498.30520      0.54105294E-003
      498.48520      0.54751486E-003
      498.66520      0.55394363E-003
      498.84520      0.56033627E-003
      499.02520      0.56668978E-003
      499.20520      0.57300114E-003
      499.38520      0.57926734E-003
      499.56520      0.58548535E-003
      499.74520      0.59165216E-003
      499.92520      0.59776472E-003
      500.10520      0.60382002E-003
      500.28520      0.60981504E-003
      500.46520      0.61574676E-003
      500.64520      0.62161218E-003
      500.82520      0.62740831E-003
      501.00520      0.63313217E-003
      501.18520      0.63878080E-003
      501.36520      0.64435126E-003
      501.54520      0.64984062E-003
      501.72520      0.65524599E-003
      501.90520      0.66056450E-003
      502.08520      0.66579331E-003
      502.26520      0.67092960E-003
      502.44520      0.67597061E-003
      502.62520      0.68091359E-003
      502.80520      0.68575584E-003
      502.98520      0.69049470E-003
      503.16520      0.69512756E-003
      503.34520      0.69965185E-003
      503.52520      0.70406505E-003
      503.70520      0.70836468E-003
      503.88520      0.71254833E-003
      504.06520      0.71661364E-003
      504.24520      0.72055831E-003
      504.42520      0.72438009E-003
      504.60520      0.72807679E-003
      504.78520      0.73164630E-003
      504.96520      0.73508656E-003
      505.14520      0.73839559E-003
      505.32520      0.74157148E-003
      505.50520      0.74461238E-003
      505.68520      0.74751651E-003
      505.86520      0.75028219E-003
      506.04520      0.75290779E-003
      506.22520      0.75539177E-003
      506.40520      0.75773268E-003
      506.58520      0.75992913E-003
      506.76520      0.76197982E-003
      506.94520      0.76388355E-003
      507.12520      0.76563918E-003
      507.30520      0.76724566E-003
      507.48520      0.76870206E-003
      507.66520      0.77000749E-003
      507.84520      0.77116118E-003
      508.02520      0.77216245E-003
      508.20520      0.77301068E-003
      508.38520      0.77370539E-003
      508.56520      0.77424614E-003
      508.74520      0.77463262E-003
      508.92520      0.77486460E-003
      509.10520      0.77494193E-003
      509.28520      0.77486458E-003
      509.46520      0.77463258E-003
      509.64520      0.77424607E-003
      509.82520      0.77370529E-003
      510.00520      0.77301056E-003
      510.18520      0.77216230E-003
      510.36520      0.77116100E-003
      510.54520      0.77000728E-003
      510.72520      0.76870182E-003
      510.90520      0.76724539E-003
      511.08520      0.76563886E-003
      511.26520      0.76388320E-003
      511.44520      0.76197943E-003
      511.62520      0.75992869E-003
      511.80520      0.75773219E-003
      511.98520      0.75539123E-003
      512.16520      0.75290719E-003
      512.34520      0.75028152E-003
      512.52520      0.74751577E-003
      512.70520      0.74461156E-003
      512.88520      0.74157058E-003
      513.06520      0.73839460E-003
      513.24520      0.73508547E-003
      513.42520      0.73164510E-003
      513.60520      0.72807547E-003
      513.78520      0.72437864E-003
      513.96520      0.72055672E-003
      514.14520      0.71661190E-003
      514.32520      0.71254642E-003
      514.50520      0.70836258E-003
      514.68520      0.70406274E-003
      514.86520      0.69964932E-003
      515.04520      0.69512479E-003
      515.22520      0.69049166E-003
      515.40520      0.68575251E-003
      515.58520      0.68090994E-003
      515.76520      0.67596661E-003
      515.94520      0.67092523E-003
      516.12520      0.66578852E-003
      516.30520      0.66055926E-003
      516.48520      0.65524025E-003
      516.66520      0.64983434E-003
      516.84520      0.64434439E-003
      517.02520      0.63877329E-003
      517.20520      0.63312396E-003
      517.38520      0.62739933E-003
      517.56520      0.62160236E-003
      517.74520      0.61573603E-003
      517.92520      0.60980331E-003
      518.10520      0.60380721E-003
      518.28520      0.59775073E-003
      518.46520      0.59163688E-003
      518.64520      0.58546868E-003
      518.82520      0.57924914E-003
      519.00520      0.57298127E-003
      519.18520      0.56666810E-003
      519.36520      0.56031262E-003
      519.54520      0.55391783E-003
      519.72520      0.54748673E-003
      519.90520      0.54102227E-003
      520.08520      0.53452743E-003
      520.26520      0.52800514E-003
      520.44520      0.52145834E-003
      520.62520      0.51488991E-003
      520.80520      0.50830273E-003
      520.98520      0.50169967E-003
      521.16520      0.49508354E-003
      521.34520      0.48845714E-003
      521.52520      0.48182324E-003
      521.70520      0.47518457E-003
      521.88520      0.46854382E-003
      522.06520      0.46190366E-003
      522.24520      0.45526671E-003
      522.42520      0.44863556E-003
      522.60520      0.44201275E-003
      522.78520      0.43540078E-003
      522.96520      0.42880210E-003
      523.14520      0.42221914E-003
      523.32520      0.41565426E-003
      523.50520      0.40910977E-003
      523.68520      0.40258795E-003
      523.86520      0.39609102E-003
      524.04520      0.38962115E-003
      524.22520      0.38318046E-003
      524.40520      0.37677102E-003
      524.58520      0.37039484E-003
      524.76520      0.36405388E-003
      524.94520      0.35775005E-003
      525.12520      0.35148521E-003
      525.30520      0.34526115E-003
      525.48520      0.33907960E-003
      525.66520      0.33294226E-003
      525.84520      0.32685074E-003
      526.02520      0.32080664E-003
      526.20520      0.31481144E-003
      526.38520      0.30886662E-003
      526.56520      0.30297358E-003
      526.74520      0.29713365E-003
      526.92520      0.29134812E-003
      527.10520      0.28561821E-003
      527.28520      0.27994511E-003
      527.46520      0.27432992E-003
      527.64520      0.26877370E-003
      527.82520      0.26327745E-003
      528.00520      0.25784213E-003
      528.18520      0.25246860E-003
      528.36520      0.24715772E-003
      528.54520      0.24191026E-003
      528.72520      0.23672695E-003
      528.90520      0.23160847E-003
      529.08520      0.22655542E-003
      529.26520      0.22156838E-003
      529.44520      0.21664786E-003
      529.62520      0.21179433E-003
      529.80520      0.20700821E-003
      529.98520      0.20228986E-003
      530.16520      0.19763959E-003
      530.34520      0.19305769E-003
      530.52520      0.18854436E-003
      530.70520      0.18409979E-003
      530.88520      0.17972411E-003
      531.06520      0.17541742E-003
      531.24520      0.17117974E-003
      531.42520      0.16701110E-003
      531.60520      0.16291145E-003
      531.78520      0.15888071E-003
      531.96520      0.15491877E-003
      532.14520      0.15102548E-003
      532.32520      0.14720064E-003
      532.50520      0.14344404E-003
      532.68520      0.13975540E-003
      532.86520      0.13613443E-003
      533.04520      0.13258081E-003
      533.22520      0.12909418E-003
      533.40520      0.12567415E-003
      533.58520      0.12232031E-003
      533.76520      0.11903221E-003
      533.94520      0.11580937E-003
      534.12520      0.11265130E-003
      534.30520      0.10955748E-003
      534.48520      0.10652736E-003
      534.66520      0.10356037E-003
      534.84520      0.10065592E-003
      535.02520      0.97813397E-004
      535.20520      0.95032177E-004
      535.38520      0.92311608E-004
      535.56520      0.89651025E-004
      535.74520      0.87049746E-004
      535.92520      0.84507072E-004
      536.10520      0.82022293E-004
      536.28520      0.79594684E-004
      536.46520      0.77223507E-004
      536.64520      0.74908014E-004
      536.82520      0.72647446E-004
      537.00520      0.70441034E-004
      537.18520      0.68288000E-004
      537.36520      0.66187560E-004
      537.54520      0.64138921E-004
      537.72520      0.62141285E-004
      537.90520      0.60193849E-004
      538.08520      0.58295805E-004
      538.26520      0.56446342E-004
      538.44520      0.54644643E-004
      538.62520      0.52889894E-004
      538.80520      0.51181275E-004
      538.98520      0.49517967E-004
      539.16520      0.47899151E-004
      539.34520      0.46324008E-004
      539.52520      0.44791720E-004
      539.70520      0.43301472E-004
      539.88520      0.41852450E-004
      540.06520      0.40443843E-004
      540.24520      0.39074843E-004
      540.42520      0.37744648E-004
      540.60520      0.36452458E-004
      540.78520      0.35197479E-004
      540.96520      0.33978922E-004
      541.14520      0.32796005E-004
      541.32520      0.31647951E-004
      541.50520      0.30533989E-004
      541.68520      0.29453357E-004
      541.86520      0.28405299E-004
      542.04520      0.27389066E-004
      542.22520      0.26403919E-004
      542.40520      0.25449125E-004
      542.58520      0.24523962E-004
      542.76520      0.23627714E-004
      542.94520      0.22759677E-004
      543.12520      0.21919153E-004
      543.30520      0.21105457E-004
      543.48520      0.20317911E-004
      543.66520      0.19555848E-004
      543.84520      0.18818610E-004
      544.02520      0.18105551E-004
      544.20520      0.17416033E-004
      544.38520      0.16749431E-004
      544.56520      0.16105127E-004
      544.74520      0.15482518E-004
      544.92520      0.14881006E-004
      545.10520      0.14300009E-004
      545.28520      0.13738953E-004
      545.46520      0.13197275E-004
      545.64520      0.12674423E-004
      545.82520      0.12169856E-004
      546.00520      0.11683043E-004
      546.18520      0.11213464E-004
      546.36520      0.10760612E-004
      546.54520      0.10323986E-004
      546.72520      0.99030998E-005
      546.90520      0.94974761E-005
      547.08520      0.91066483E-005
      547.26520      0.87301605E-005
      547.44520      0.83675669E-005
      547.62520      0.80184322E-005
      547.80520      0.76823313E-005
      547.98520      0.73588492E-005
      548.16520      0.70475811E-005
      548.34520      0.67481319E-005
      548.52520      0.64601165E-005
      548.70520      0.61831593E-005
      548.88520      0.59168945E-005
      549.06520      0.56609657E-005
      549.24520      0.54150257E-005
      549.42520      0.51787366E-005
      549.60520      0.49517696E-005
      549.78520      0.47338047E-005
      549.96520      0.45245308E-005
      550.14520      0.43236453E-005
      550.32520      0.41308543E-005
      550.50520      0.39458720E-005
      550.68520      0.37684211E-005
      550.86520      0.35982319E-005
      551.04520      0.34350430E-005
      551.22520      0.32786006E-005
      551.40520      0.31286585E-005
      551.58520      0.29849777E-005
      551.76520      0.28473270E-005
      551.94520      0.27154818E-005
      552.12520      0.25892247E-005
      552.30520      0.24683452E-005
      552.48520      0.23526393E-005
      552.66520      0.22419097E-005
      552.84520      0.21359652E-005
      553.02520      0.20346211E-005
      553.20520      0.19376986E-005
      553.38520      0.18450248E-005
      553.56520      0.17564325E-005
      553.74520      0.16717605E-005
      553.92520      0.15908526E-005
      554.10520      0.15135582E-005
      554.28520      0.14397319E-005
      554.46520      0.13692332E-005
      554.64520      0.13019267E-005
      554.82520      0.12376816E-005
      555.00520      0.11763719E-005
      555.18520      0.11178760E-005
      555.36520      0.10620769E-005
      555.54520      0.10088615E-005
      555.72520      0.95812127E-006
      555.90520      0.90975134E-006
      556.08520      0.86365090E-006
      556.26520      0.81972288E-006
      556.44520      0.77787388E-006
      556.62520      0.73801404E-006
      556.80520      0.70005694E-006
      556.98520      0.66391947E-006
      557.16520      0.62952177E-006
      557.34520      0.59678707E-006
      557.52520      0.56564162E-006
      557.70520      0.53601459E-006
      557.88520      0.50783797E-006
      558.06520      0.48104647E-006
      558.24520      0.45557743E-006
      558.42520      0.43137072E-006
      558.60520      0.40836869E-006
      558.78520      0.38651604E-006
      558.96520      0.36575974E-006
      559.14520      0.34604898E-006
      559.32520      0.32733509E-006
      559.50520      0.30957142E-006
      559.68520      0.29271329E-006
      559.86520      0.27671796E-006
      560.04520      0.26154447E-006
      560.22520      0.24715366E-006
      560.40520      0.23350805E-006
      560.58520      0.22057179E-006
      560.76520      0.20831060E-006
      560.94520      0.19669173E-006
      561.12520      0.18568384E-006
      561.30520      0.17525702E-006
      561.48520      0.16538269E-006
      561.66520      0.15603355E-006
      561.84520      0.14718353E-006
      562.02520      0.13880776E-006
      562.20520      0.13088251E-006
      562.38520      0.12338511E-006
      562.56520      0.11629397E-006
      562.74520      0.10958849E-006
      562.92520      0.10324903E-006
      563.10520      0.97256884E-007
      563.28520      0.91594208E-007
      563.46520      0.86244016E-007
      563.64520      0.81190131E-007
      563.82520      0.76417145E-007
      564.00520      0.71910397E-007
      564.18520      0.67655929E-007
      564.36520      0.63640464E-007
      564.54520      0.59851374E-007
      564.72520      0.56276647E-007
      564.90520      0.52904864E-007
      565.08520      0.49725172E-007
      565.26520      0.46727257E-007
      565.44520      0.43901321E-007
      565.62520      0.41238057E-007
      565.80520      0.38728627E-007
      565.98520      0.36364642E-007
      566.16520      0.34138138E-007
      566.34520      0.32041559E-007
      566.52520      0.30067739E-007
      566.70520      0.28209877E-007
      566.88520      0.26461528E-007
      567.06520      0.24816581E-007
      567.24520      0.23269244E-007
      567.42520      0.21814031E-007
      567.60520      0.20445741E-007
      567.78520      0.19159453E-007
      567.96520      0.17950504E-007
      568.14520      0.16814482E-007
      568.32520      0.15747211E-007
      568.50520      0.14744740E-007
      568.68520      0.13803330E-007
      568.86520      0.12919447E-007
      569.04520      0.12089750E-007
      569.22520      0.11311077E-007
      569.40520      0.10580445E-007
      569.58520      0.98950326E-008
      569.76520      0.92521744E-008
      569.94520      0.86493544E-008
      570.12520      0.80841969E-008
      570.30520      0.75544591E-008
      570.48520      0.70580246E-008
      570.66520      0.65928966E-008
      570.84520      0.61571916E-008
      571.02520      0.57491332E-008
      571.20520      0.53670468E-008
      571.38520      0.50093536E-008
      571.56520      0.46745661E-008
      571.74520      0.43612825E-008
      571.92520      0.40681827E-008
      572.10520      0.37940231E-008
      572.28520      0.35376332E-008
      572.46520      0.32979110E-008
      572.64520      0.30738195E-008
      572.82520      0.28643831E-008
      573.00520      0.26686840E-008
      573.18520      0.24858590E-008
      573.36520      0.23150967E-008
      573.54520      0.21556343E-008
      573.72520      0.20067550E-008
      573.90520      0.18677851E-008
      574.08520      0.17380920E-008
      574.26520      0.16170816E-008
      574.44520      0.15041959E-008
      574.62520      0.13989113E-008
      574.80520      0.13007363E-008
      574.98520      0.12092097E-008
      575.16520      0.11238991E-008
      575.34520      0.10443986E-008
      575.52520      0.97032803E-009
      575.70520      0.90133071E-009
      575.88520      0.83707248E-009
      576.06520      0.77724022E-009
      576.24520      0.72154059E-009
      576.42520      0.66969888E-009
      576.60520      0.62145785E-009
      576.78520      0.57657671E-009
      576.96520      0.53483006E-009
      577.14520      0.49600703E-009
      577.32520      0.45991031E-009
      577.50520      0.42635541E-009
      577.68520      0.39516976E-009
      577.86520      0.36619207E-009
      578.04520      0.33927157E-009
      578.22520      0.31426738E-009
      578.40520      0.29104789E-009
      578.58520      0.26949015E-009
      578.76520      0.24947938E-009
      578.94520      0.23090838E-009
      579.12520      0.21367714E-009
      579.30520      0.19769228E-009
      579.48520      0.18286672E-009
      579.66520      0.16911921E-009
      579.84520      0.15637399E-009
      580.02520      0.14456042E-009
      580.20520      0.13361265E-009
      580.38520      0.12346932E-009
      580.56520      0.11407325E-009
      580.74520      0.10537120E-009
      580.92520      0.97313547E-010
      581.10520      0.89854120E-010
      581.28520      0.82949923E-010
      581.46520      0.76560946E-010
      581.64520      0.70649955E-010
      581.82520      0.65182318E-010
      582.00520      0.60125819E-010
      582.18520      0.55450507E-010
      582.36520      0.51128534E-010
      582.54520      0.47134017E-010
      582.72520      0.43442907E-010
      582.90520      0.40032859E-010
      583.08520      0.36883119E-010
      583.26520      0.33974414E-010
      583.44520      0.31288850E-010
      583.62520      0.28809820E-010
      583.80520      0.26521910E-010
      583.98520      0.24410818E-010
      584.16520      0.22463281E-010
      584.34520      0.20666995E-010
      584.52520      0.19010555E-010
      584.70520      0.17483386E-010
      584.88520      0.16075690E-010
      585.06520      0.14778385E-010
      585.24520      0.13583061E-010
      585.42520      0.12481927E-010
      585.60520      0.11467768E-010
      585.78520      0.10533907E-010
      585.96520      0.96741623E-011
      586.14520      0.88828138E-011
      586.32520      0.81545697E-011
      586.50520      0.74845353E-011
      586.68520      0.68681843E-011
      586.86520      0.63013317E-011
      587.04520      0.57801092E-011
      587.22520      0.53009420E-011
      587.40520      0.48605270E-011
      587.58520      0.44558132E-011
      587.76520      0.40839827E-011
      587.94520      0.37424337E-011
      588.12520      0.34287643E-011
      588.30520      0.31407579E-011
      588.48520      0.28763690E-011
      588.66520      0.26337105E-011
      588.84520      0.24110419E-011
      589.02520      0.22067585E-011
      589.20520      0.20193805E-011
      589.38520      0.18475440E-011
      589.56520      0.16899924E-011
      589.74520      0.15455676E-011
      589.92520      0.14132030E-011
      590.10520      0.12919164E-011
      590.28520      0.11808034E-011
      590.46520      0.10790313E-011
      590.64520      0.98583407E-012
      590.82520      0.90050659E-012
      591.00520      0.82240033E-012
      591.18520      0.75091876E-012
      591.36520      0.68551339E-012
      591.54520      0.62567994E-012
      591.72520      0.57095492E-012
      591.90520      0.52091242E-012
      592.08520      0.47516114E-012
      592.26520      0.43334163E-012
      592.44520      0.39512382E-012
      592.62520      0.36020466E-012
      592.80520      0.32830594E-012
      592.98520      0.29917235E-012
      593.16520      0.27256963E-012
      593.34520      0.24828289E-012
      593.52520      0.22611502E-012
      593.70520      0.20588530E-012
      593.88520      0.18742804E-012
      594.06520      0.17059139E-012
      594.24520      0.15523618E-012
      594.42520      0.14123492E-012
      594.60520      0.12847083E-012
      594.78520      0.11683697E-012
      594.96520      0.10623542E-012
      595.14520      0.96576550E-013
      595.32520      0.87778337E-013
      595.50520      0.79765724E-013
      595.68520      0.72470052E-013
      595.86520      0.65828528E-013
      596.04520      0.59783731E-013
      596.22520      0.54283169E-013
      596.40520      0.49278862E-013
      596.58520      0.44726967E-013
      596.76520      0.40587428E-013
      596.94520      0.36823658E-013
      597.12520      0.33402242E-013
      597.30520      0.30292674E-013
      597.48520      0.27467106E-013
      597.66520      0.24900124E-013
      597.84520      0.22568538E-013
      598.02520      0.20451192E-013
      598.20520      0.18528793E-013
      598.38520      0.16783748E-013
      598.56520      0.15200017E-013
      598.74520      0.13762981E-013
      598.92520      0.12459317E-013
      599.10520      0.11276888E-013
