      397.71670      0.62317102     
      397.89670      0.61983649     
      398.07670      0.61684409     
      398.25670      0.61419276     
      398.43670      0.61188131     
      398.61670      0.60990845     
      398.79670      0.60827274     
      398.97670      0.60697260     
      399.15670      0.60600634     
      399.33670      0.60537214     
      399.51670      0.60506806     
      399.69670      0.60509203     
      399.87670      0.60544186     
      400.05670      0.60611524     
      400.23670      0.60710975     
      400.41670      0.60842282     
      400.59670      0.61005180     
      400.77670      0.61199390     
      400.95670      0.61424621     
      401.13670      0.61680573     
      401.31670      0.61966931     
      401.49670      0.62283373     
      401.67670      0.62629561     
      401.85670      0.63005150     
      402.03670      0.63409781     
      402.21670      0.63843086     
      402.39670      0.64304685     
      402.57670      0.64794187     
      402.75670      0.65311191     
      402.93670      0.65855285     
      403.11670      0.66426047     
      403.29670      0.67023044     
      403.47670      0.67645833     
      403.65670      0.68293959     
      403.83670      0.68966961     
      404.01670      0.69664363     
      404.19670      0.70385682     
      404.37670      0.71130426     
      404.55670      0.71898090     
      404.73670      0.72688161     
      404.91670      0.73500119     
      405.09670      0.74333429     
      405.27670      0.75187553     
      405.45670      0.76061940     
      405.63670      0.76956030     
      405.81670      0.77869256     
      405.99670      0.78801041     
      406.17670      0.79750801     
      406.35670      0.80717941     
      406.53670      0.81701860     
      406.71670      0.82701949     
      406.89670      0.83717590     
      407.07670      0.84748157     
      407.25670      0.85793019     
      407.43670      0.86851534     
      407.61670      0.87923058     
      407.79670      0.89006935     
      407.97670      0.90102507     
      408.15670      0.91209105     
      408.33670      0.92326058     
      408.51670      0.93452687     
      408.69670      0.94588308     
      408.87670      0.95732232     
      409.05670      0.96883764     
      409.23670      0.98042206     
      409.41670      0.99206855     
      409.59670       1.0037700     
      409.77670       1.0155194     
      409.95670       1.0273094     
      410.13670       1.0391331     
      410.31670       1.0509830     
      410.49670       1.0628521     
      410.67670       1.0747330     
      410.85670       1.0866186     
      411.03670       1.0985014     
      411.21670       1.1103742     
      411.39670       1.1222298     
      411.57670       1.1340608     
      411.75670       1.1458600     
      411.93670       1.1576199     
      412.11670       1.1693335     
      412.29670       1.1809933     
      412.47670       1.1925922     
      412.65670       1.2041229     
      412.83670       1.2155782     
      413.01670       1.2269510     
      413.19670       1.2382342     
      413.37670       1.2494207     
      413.55670       1.2605033     
      413.73670       1.2714752     
      413.91670       1.2823295     
      414.09670       1.2930591     
      414.27670       1.3036574     
      414.45670       1.3141176     
      414.63670       1.3244329     
      414.81670       1.3345969     
      414.99670       1.3446031     
      415.17670       1.3544449     
      415.35670       1.3641160     
      415.53670       1.3736103     
      415.71670       1.3829216     
      415.89670       1.3920438     
      416.07670       1.4009710     
      416.25670       1.4096975     
      416.43670       1.4182175     
      416.61670       1.4265254     
      416.79670       1.4346159     
      416.97670       1.4424835     
      417.15670       1.4501232     
      417.33670       1.4575298     
      417.51670       1.4646985     
      417.69670       1.4716245     
      417.87670       1.4783032     
      418.05670       1.4847301     
      418.23670       1.4909010     
      418.41670       1.4968116     
      418.59670       1.5024581     
      418.77670       1.5078366     
      418.95670       1.5129434     
      419.13670       1.5177750     
      419.31670       1.5223282     
      419.49670       1.5265999     
      419.67670       1.5305870     
      419.85670       1.5342869     
      420.03670       1.5376968     
      420.21670       1.5408145     
      420.39670       1.5436377     
      420.57670       1.5461644     
      420.75670       1.5483926     
      420.93670       1.5503209     
      421.11670       1.5519476     
      421.29670       1.5532716     
      421.47670       1.5542918     
      421.65670       1.5550072     
      421.83670       1.5554173     
      422.01670       1.5555214     
      422.19670       1.5553193     
      422.37670       1.5548109     
      422.55670       1.5539963     
      422.73670       1.5528757     
      422.91670       1.5514497     
      423.09670       1.5497188     
      423.27670       1.5476839     
      423.45670       1.5453461     
      423.63670       1.5427067     
      423.81670       1.5397669     
      423.99670       1.5365284     
      424.17670       1.5329930     
      424.35670       1.5291626     
      424.53670       1.5250394     
      424.71670       1.5206257     
      424.89670       1.5159240     
      425.07670       1.5109369     
      425.25670       1.5056673     
      425.43670       1.5001181     
      425.61670       1.4942925     
      425.79670       1.4881938     
      425.97670       1.4818255     
      426.15670       1.4751911     
      426.33670       1.4682944     
      426.51670       1.4611394     
      426.69670       1.4537300     
      426.87670       1.4460705     
      427.05670       1.4381651     
      427.23670       1.4300183     
      427.41670       1.4216346     
      427.59670       1.4130188     
      427.77670       1.4041755     
      427.95670       1.3951098     
      428.13670       1.3858265     
      428.31670       1.3763308     
      428.49670       1.3666279     
      428.67670       1.3567231     
      428.85670       1.3466217     
      429.03670       1.3363292     
      429.21670       1.3258511     
      429.39670       1.3151931     
      429.57670       1.3043606     
      429.75670       1.2933596     
      429.93670       1.2821957     
      430.11670       1.2708748     
      430.29670       1.2594027     
      430.47670       1.2477853     
      430.65670       1.2360286     
      430.83670       1.2241385     
      431.01670       1.2121211     
      431.19670       1.1999823     
      431.37670       1.1877282     
      431.55670       1.1753647     
      431.73670       1.1628980     
      431.91670       1.1503340     
      432.09670       1.1376788     
      432.27670       1.1249384     
      432.45670       1.1121188     
      432.63670       1.0992260     
      432.81670       1.0862660     
      432.99670       1.0732446     
      433.17670       1.0601677     
      433.35670       1.0470413     
      433.53670       1.0338712     
      433.71670       1.0206630     
      433.89670       1.0074226     
      434.07670      0.99415556     
      434.25670      0.98086753     
      434.43670      0.96756405     
      434.61670      0.95425059     
      434.79670      0.94093258     
      434.97670      0.92761534     
      435.15670      0.91430416     
      435.33670      0.90100421     
      435.51670      0.88772061     
      435.69670      0.87445837     
      435.87670      0.86122242     
      436.05670      0.84801763     
      436.23670      0.83484873     
      436.41670      0.82172039     
      436.59670      0.80863717     
      436.77670      0.79560354     
      436.95670      0.78262385     
      437.13670      0.76970238     
      437.31670      0.75684328     
      437.49670      0.74405059     
      437.67670      0.73132826     
      437.85670      0.71868014     
      438.03670      0.70610993     
      438.21670      0.69362127     
      438.39670      0.68121765     
      438.57670      0.66890246     
      438.75670      0.65667899     
      438.93670      0.64455039     
      439.11670      0.63251972     
      439.29670      0.62058991     
      439.47670      0.60876378     
      439.65670      0.59704405     
      439.83670      0.58543330     
      440.01670      0.57393401     
      440.19670      0.56254854     
      440.37670      0.55127916     
      440.55670      0.54012798     
      440.73670      0.52909704     
      440.91670      0.51818825     
      441.09670      0.50740341     
      441.27670      0.49674422     
      441.45670      0.48621225     
      441.63670      0.47580897     
      441.81670      0.46553576     
      441.99670      0.45539387     
      442.17670      0.44538447     
      442.35670      0.43550859     
      442.53670      0.42576721     
      442.71670      0.41616116     
      442.89670      0.40669120     
      443.07670      0.39735798     
      443.25670      0.38816207     
      443.43670      0.37910393     
      443.61670      0.37018395     
      443.79670      0.36140240     
      443.97670      0.35275948     
      444.15670      0.34425530     
      444.33670      0.33588990     
      444.51670      0.32766322     
      444.69670      0.31957513     
      444.87670      0.31162542     
      445.05670      0.30381379     
      445.23670      0.29613990     
      445.41670      0.28860330     
      445.59670      0.28120351     
      445.77670      0.27393994     
      445.95670      0.26681198     
      446.13670      0.25981893     
      446.31670      0.25296003     
      446.49670      0.24623447     
      446.67670      0.23964138     
      446.85670      0.23317984     
      447.03670      0.22684888     
      447.21670      0.22064748     
      447.39670      0.21457456     
      447.57670      0.20862902     
      447.75670      0.20280969     
      447.93670      0.19711538     
      448.11670      0.19154485     
      448.29670      0.18609683     
      448.47670      0.18077002     
      448.65670      0.17556307     
      448.83670      0.17047462     
      449.01670      0.16550327     
      449.19670      0.16064760     
      449.37670      0.15590616     
      449.55670      0.15127748     
      449.73670      0.14676008     
      449.91670      0.14235243     
      450.09670      0.13805303     
      450.27670      0.13386032     
      450.45670      0.12977276     
      450.63670      0.12578877     
      450.81670      0.12190679     
      450.99670      0.11812523     
      451.17670      0.11444250     
      451.35670      0.11085701     
      451.53670      0.10736714     
      451.71670      0.10397131     
      451.89670      0.10066791     
      452.07670      0.97455336E-001
      452.25670      0.94331986E-001
      452.43670      0.91296262E-001
      452.61670      0.88346572E-001
      452.79670      0.85481325E-001
      452.97670      0.82698940E-001
      453.15670      0.79997842E-001
      453.33670      0.77376463E-001
      453.51670      0.74833248E-001
      453.69670      0.72366649E-001
      453.87670      0.69975131E-001
      454.05670      0.67657172E-001
      454.23670      0.65411262E-001
      454.41670      0.63235904E-001
      454.59670      0.61129618E-001
      454.77670      0.59090936E-001
      454.95670      0.57118409E-001
      455.13670      0.55210602E-001
      455.31670      0.53366100E-001
      455.49670      0.51583502E-001
      455.67670      0.49861429E-001
      455.85670      0.48198517E-001
      456.03670      0.46593423E-001
      456.21670      0.45044823E-001
      456.39670      0.43551414E-001
      456.57670      0.42111910E-001
      456.75670      0.40725048E-001
      456.93670      0.39389585E-001
      457.11670      0.38104299E-001
      457.29670      0.36867988E-001
      457.47670      0.35679471E-001
      457.65670      0.34537591E-001
      457.83670      0.33441209E-001
      458.01670      0.32389209E-001
      458.19670      0.31380497E-001
      458.37670      0.30413999E-001
      458.55670      0.29488665E-001
      458.73670      0.28603464E-001
      458.91670      0.27757388E-001
      459.09670      0.26949448E-001
      459.27670      0.26178680E-001
      459.45670      0.25444139E-001
      459.63670      0.24744900E-001
      459.81670      0.24080060E-001
      459.99670      0.23448738E-001
      460.17670      0.22850071E-001
      460.35670      0.22283217E-001
      460.53670      0.21747356E-001
      460.71670      0.21241685E-001
      460.89670      0.20765422E-001
      461.07670      0.20317804E-001
      461.25670      0.19898087E-001
      461.43670      0.19505546E-001
      461.61670      0.19139474E-001
      461.79670      0.18799182E-001
      461.97670      0.18484000E-001
      462.15670      0.18193273E-001
      462.33670      0.17926366E-001
      462.51670      0.17682658E-001
      462.69670      0.17461547E-001
      462.87670      0.17262445E-001
      463.05670      0.17084780E-001
      463.23670      0.16927997E-001
      463.41670      0.16791554E-001
      463.59670      0.16674924E-001
      463.77670      0.16577595E-001
      463.95670      0.16499069E-001
      464.13670      0.16438859E-001
      464.31670      0.16396493E-001
      464.49670      0.16371513E-001
      464.67670      0.16363470E-001
      464.85670      0.16371930E-001
      465.03670      0.16396467E-001
      465.21670      0.16436671E-001
      465.39670      0.16492138E-001
      465.57670      0.16562476E-001
      465.75670      0.16647305E-001
      465.93670      0.16746251E-001
      466.11670      0.16858952E-001
      466.29670      0.16985054E-001
      466.47670      0.17124212E-001
      466.65670      0.17276088E-001
      466.83670      0.17440352E-001
      467.01670      0.17616683E-001
      467.19670      0.17804765E-001
      467.37670      0.18004290E-001
      467.55670      0.18214956E-001
      467.73670      0.18436468E-001
      467.91670      0.18668535E-001
      468.09670      0.18910873E-001
      468.27670      0.19163203E-001
      468.45670      0.19425249E-001
      468.63670      0.19696743E-001
      468.81670      0.19977418E-001
      468.99670      0.20267013E-001
      469.17670      0.20565269E-001
      469.35670      0.20871932E-001
      469.53670      0.21186751E-001
      469.71670      0.21509478E-001
      469.89670      0.21839866E-001
      470.07670      0.22177673E-001
      470.25670      0.22522657E-001
      470.43670      0.22874580E-001
      470.61670      0.23233205E-001
      470.79670      0.23598296E-001
      470.97670      0.23969619E-001
      471.15670      0.24346941E-001
      471.33670      0.24730032E-001
      471.51670      0.25118660E-001
      471.69670      0.25512595E-001
      471.87670      0.25911609E-001
      472.05670      0.26315472E-001
      472.23670      0.26723956E-001
      472.41670      0.27136833E-001
      472.59670      0.27553875E-001
      472.77670      0.27974854E-001
      472.95670      0.28399543E-001
      473.13670      0.28827712E-001
      473.31670      0.29259135E-001
      473.49670      0.29693582E-001
      473.67670      0.30130825E-001
      473.85670      0.30570634E-001
      474.03670      0.31012780E-001
      474.21670      0.31457032E-001
      474.39670      0.31903161E-001
      474.57670      0.32350935E-001
      474.75670      0.32800123E-001
      474.93670      0.33250492E-001
      475.11670      0.33701811E-001
      475.29670      0.34153846E-001
      475.47670      0.34606364E-001
      475.65670      0.35059131E-001
      475.83670      0.35511913E-001
      476.01670      0.35964476E-001
      476.19670      0.36416586E-001
      476.37670      0.36868005E-001
      476.55670      0.37318501E-001
      476.73670      0.37767838E-001
      476.91670      0.38215779E-001
      477.09670      0.38662092E-001
      477.27670      0.39106539E-001
      477.45670      0.39548887E-001
      477.63670      0.39988901E-001
      477.81670      0.40426347E-001
      477.99670      0.40860992E-001
      478.17670      0.41292603E-001
      478.35670      0.41720949E-001
      478.53670      0.42145797E-001
      478.71670      0.42566919E-001
      478.89670      0.42984086E-001
      479.07670      0.43397069E-001
      479.25670      0.43805643E-001
      479.43670      0.44209583E-001
      479.61670      0.44608667E-001
      479.79670      0.45002673E-001
      479.97670      0.45391383E-001
      480.15670      0.45774579E-001
      480.33670      0.46152047E-001
      480.51670      0.46523575E-001
      480.69670      0.46888953E-001
      480.87670      0.47247975E-001
      481.05670      0.47600436E-001
      481.23670      0.47946135E-001
      481.41670      0.48284875E-001
      481.59670      0.48616461E-001
      481.77670      0.48940702E-001
      481.95670      0.49257411E-001
      482.13670      0.49566404E-001
      482.31670      0.49867501E-001
      482.49670      0.50160527E-001
      482.67670      0.50445310E-001
      482.85670      0.50721684E-001
      483.03670      0.50989484E-001
      483.21670      0.51248554E-001
      483.39670      0.51498741E-001
      483.57670      0.51739894E-001
      483.75670      0.51971872E-001
      483.93670      0.52194536E-001
      484.11670      0.52407753E-001
      484.29670      0.52611395E-001
      484.47670      0.52805340E-001
      484.65670      0.52989470E-001
      484.83670      0.53163676E-001
      485.01670      0.53327852E-001
      485.19670      0.53481897E-001
      485.37670      0.53625720E-001
      485.55670      0.53759232E-001
      485.73670      0.53882352E-001
      485.91670      0.53995005E-001
      486.09670      0.54097122E-001
      486.27670      0.54188640E-001
      486.45670      0.54269503E-001
      486.63670      0.54339661E-001
      486.81670      0.54399071E-001
      486.99670      0.54447695E-001
      487.17670      0.54485504E-001
      487.35670      0.54512473E-001
      487.53670      0.54528585E-001
      487.71670      0.54533829E-001
      487.89670      0.54528202E-001
      488.07670      0.54511705E-001
      488.25670      0.54484347E-001
      488.43670      0.54446145E-001
      488.61670      0.54397119E-001
      488.79670      0.54337299E-001
      488.97670      0.54266720E-001
      489.15670      0.54185422E-001
      489.33670      0.54093455E-001
      489.51670      0.53990872E-001
      489.69670      0.53877733E-001
      489.87670      0.53754106E-001
      490.05670      0.53620064E-001
      490.23670      0.53475684E-001
      490.41670      0.53321053E-001
      490.59670      0.53156261E-001
      490.77670      0.52981405E-001
      490.95670      0.52796588E-001
      491.13670      0.52601917E-001
      491.31670      0.52397507E-001
      491.49670      0.52183475E-001
      491.67670      0.51959947E-001
      491.85670      0.51727052E-001
      492.03670      0.51484925E-001
      492.21670      0.51233705E-001
      492.39670      0.50973536E-001
      492.57670      0.50704567E-001
      492.75670      0.50426951E-001
      492.93670      0.50140847E-001
      493.11670      0.49846416E-001
      493.29670      0.49543824E-001
      493.47670      0.49233241E-001
      493.65670      0.48914841E-001
      493.83670      0.48588800E-001
      494.01670      0.48255300E-001
      494.19670      0.47914523E-001
      494.37670      0.47566658E-001
      494.55670      0.47211893E-001
      494.73670      0.46850422E-001
      494.91670      0.46482438E-001
      495.09670      0.46108140E-001
      495.27670      0.45727728E-001
      495.45670      0.45341402E-001
      495.63670      0.44949367E-001
      495.81670      0.44551827E-001
      495.99670      0.44148989E-001
      496.17670      0.43741062E-001
      496.35670      0.43328253E-001
      496.53670      0.42910774E-001
      496.71670      0.42488835E-001
      496.89670      0.42062648E-001
      497.07670      0.41632424E-001
      497.25670      0.41198375E-001
      497.43670      0.40760714E-001
      497.61670      0.40319653E-001
      497.79670      0.39875404E-001
      497.97670      0.39428179E-001
      498.15670      0.38978187E-001
      498.33670      0.38525640E-001
      498.51670      0.38070746E-001
      498.69670      0.37613715E-001
      498.87670      0.37154752E-001
      499.05670      0.36694064E-001
      499.23670      0.36231854E-001
      499.41670      0.35768326E-001
      499.59670      0.35303679E-001
      499.77670      0.34838113E-001
      499.95670      0.34371825E-001
      500.13670      0.33905009E-001
      500.31670      0.33437857E-001
      500.49670      0.32970559E-001
      500.67670      0.32503303E-001
      500.85670      0.32036273E-001
      501.03670      0.31569650E-001
      501.21670      0.31103615E-001
      501.39670      0.30638342E-001
      501.57670      0.30174006E-001
      501.75670      0.29710774E-001
      501.93670      0.29248815E-001
      502.11670      0.28788292E-001
      502.29670      0.28329363E-001
      502.47670      0.27872186E-001
      502.65670      0.27416913E-001
      502.83670      0.26963693E-001
      503.01670      0.26512673E-001
      503.19670      0.26063993E-001
      503.37670      0.25617791E-001
      503.55670      0.25174203E-001
      503.73670      0.24733357E-001
      503.91670      0.24295381E-001
      504.09670      0.23860397E-001
      504.27670      0.23428524E-001
      504.45670      0.22999875E-001
      504.63670      0.22574563E-001
      504.81670      0.22152692E-001
      504.99670      0.21734366E-001
      505.17670      0.21319684E-001
      505.35670      0.20908739E-001
      505.53670      0.20501622E-001
      505.71670      0.20098419E-001
      505.89670      0.19699213E-001
      506.07670      0.19304083E-001
      506.25670      0.18913102E-001
      506.43670      0.18526341E-001
      506.61670      0.18143867E-001
      506.79670      0.17765743E-001
      506.97670      0.17392026E-001
      507.15670      0.17022772E-001
      507.33670      0.16658032E-001
      507.51670      0.16297854E-001
      507.69670      0.15942280E-001
      507.87670      0.15591352E-001
      508.05670      0.15245104E-001
      508.23670      0.14903570E-001
      508.41670      0.14566780E-001
      508.59670      0.14234758E-001
      508.77670      0.13907528E-001
      508.95670      0.13585108E-001
      509.13670      0.13267513E-001
      509.31670      0.12954757E-001
      509.49670      0.12646849E-001
      509.67670      0.12343795E-001
      509.85670      0.12045598E-001
      510.03670      0.11752258E-001
      510.21670      0.11463773E-001
      510.39670      0.11180138E-001
      510.57670      0.10901344E-001
      510.75670      0.10627380E-001
      510.93670      0.10358233E-001
      511.11670      0.10093888E-001
      511.29670      0.98343253E-002
      511.47670      0.95795247E-002
      511.65670      0.93294632E-002
      511.83670      0.90841156E-002
      512.01670      0.88434547E-002
      512.19670      0.86074510E-002
      512.37670      0.83760733E-002
      512.55670      0.81492883E-002
      512.73670      0.79270609E-002
      512.91670      0.77093545E-002
      513.09670      0.74961305E-002
      513.27670      0.72873489E-002
      513.45670      0.70829682E-002
      513.63670      0.68829454E-002
      513.81670      0.66872362E-002
      513.99670      0.64957948E-002
      514.17670      0.63085746E-002
      514.35670      0.61255274E-002
      514.53670      0.59466043E-002
      514.71670      0.57717550E-002
      514.89670      0.56009287E-002
      515.07670      0.54340735E-002
      515.25670      0.52711366E-002
      515.43670      0.51120646E-002
      515.61670      0.49568035E-002
      515.79670      0.48052985E-002
      515.97670      0.46574945E-002
      516.15670      0.45133356E-002
      516.33670      0.43727658E-002
      516.51670      0.42357283E-002
      516.69670      0.41021665E-002
      516.87670      0.39720232E-002
      517.05670      0.38452411E-002
      517.23670      0.37217627E-002
      517.41670      0.36015304E-002
      517.59670      0.34844865E-002
      517.77670      0.33705735E-002
      517.95670      0.32597336E-002
      518.13670      0.31519094E-002
      518.31670      0.30470434E-002
      518.49670      0.29450785E-002
      518.67670      0.28459574E-002
      518.85670      0.27496235E-002
      519.03670      0.26560201E-002
      519.21670      0.25650911E-002
      519.39670      0.24767806E-002
      519.57670      0.23910330E-002
      519.75670      0.23077934E-002
      519.93670      0.22270070E-002
      520.11670      0.21486196E-002
      520.29670      0.20725775E-002
      520.47670      0.19988276E-002
      520.65670      0.19273172E-002
      520.83670      0.18579943E-002
      521.01670      0.17908073E-002
      521.19670      0.17257052E-002
      521.37670      0.16626380E-002
      521.55670      0.16015558E-002
      521.73670      0.15424097E-002
      521.91670      0.14851515E-002
      522.09670      0.14297333E-002
      522.27670      0.13761083E-002
      522.45670      0.13242303E-002
      522.63670      0.12740537E-002
      522.81670      0.12255336E-002
      522.99670      0.11786261E-002
      523.17670      0.11332876E-002
      523.35670      0.10894757E-002
      523.53670      0.10471485E-002
      523.71670      0.10062648E-002
      523.89670      0.96678438E-003
      524.07670      0.92866751E-003
      524.25670      0.89187539E-003
      524.43670      0.85636994E-003
      524.61670      0.82211383E-003
      524.79670      0.78907048E-003
      524.97670      0.75720407E-003
      525.15670      0.72647954E-003
      525.33670      0.69686257E-003
      525.51670      0.66831959E-003
      525.69670      0.64081777E-003
      525.87670      0.61432503E-003
      526.05670      0.58880999E-003
      526.23670      0.56424204E-003
      526.41670      0.54059125E-003
      526.59670      0.51782843E-003
      526.77670      0.49592507E-003
      526.95670      0.47485339E-003
      527.13670      0.45458629E-003
      527.31670      0.43509733E-003
      527.49670      0.41636078E-003
      527.67670      0.39835154E-003
      527.85670      0.38104521E-003
      528.03670      0.36441798E-003
      528.21670      0.34844674E-003
      528.39670      0.33310896E-003
      528.57670      0.31838275E-003
      528.75670      0.30424682E-003
      528.93670      0.29068047E-003
      529.11670      0.27766362E-003
      529.29670      0.26517673E-003
      529.47670      0.25320083E-003
      529.65670      0.24171754E-003
      529.83670      0.23070898E-003
      530.01670      0.22015783E-003
      530.19670      0.21004729E-003
      530.37670      0.20036106E-003
      530.55670      0.19108336E-003
      530.73670      0.18219889E-003
      530.91670      0.17369283E-003
      531.09670      0.16555082E-003
      531.27670      0.15775898E-003
      531.45670      0.15030387E-003
      531.63670      0.14317248E-003
      531.81670      0.13635222E-003
      531.99670      0.12983093E-003
      532.17670      0.12359687E-003
      532.35670      0.11763865E-003
      532.53670      0.11194532E-003
      532.71670      0.10650626E-003
      532.89670      0.10131123E-003
      533.07670      0.96350373E-004
      533.25670      0.91614138E-004
      533.43670      0.87093331E-004
      533.61670      0.82779082E-004
      533.79670      0.78662839E-004
      533.97670      0.74736358E-004
      534.15670      0.70991695E-004
      534.33670      0.67421198E-004
      534.51670      0.64017496E-004
      534.69670      0.60773495E-004
      534.87670      0.57682363E-004
      535.05670      0.54737527E-004
      535.23670      0.51932665E-004
      535.41670      0.49261695E-004
      535.59670      0.46718769E-004
      535.77670      0.44298267E-004
      535.95670      0.41994787E-004
      536.13670      0.39803140E-004
      536.31670      0.37718342E-004
      536.49670      0.35735606E-004
      536.67670      0.33850338E-004
      536.85670      0.32058130E-004
      537.03670      0.30354749E-004
      537.21670      0.28736139E-004
      537.39670      0.27198409E-004
      537.57670      0.25737827E-004
      537.75670      0.24350818E-004
      537.93670      0.23033957E-004
      538.11670      0.21783960E-004
      538.29670      0.20597686E-004
      538.47670      0.19472124E-004
      538.65670      0.18404394E-004
      538.83670      0.17391740E-004
      539.01670      0.16431524E-004
      539.19670      0.15521223E-004
      539.37670      0.14658427E-004
      539.55670      0.13840828E-004
      539.73670      0.13066224E-004
      539.91670      0.12332508E-004
      540.09670      0.11637670E-004
      540.27670      0.10979788E-004
      540.45670      0.10357029E-004
      540.63670      0.97676422E-005
      540.81670      0.92099566E-005
      540.99670      0.86823787E-005
      541.17670      0.81833885E-005
      541.35670      0.77115366E-005
      541.53670      0.72654409E-005
      541.71670      0.68437846E-005
      541.89670      0.64453127E-005
      542.07670      0.60688298E-005
      542.25670      0.57131973E-005
      542.43670      0.53773313E-005
      542.61670      0.50601998E-005
      542.79670      0.47608209E-005
      542.97670      0.44782602E-005
      543.15670      0.42116290E-005
      543.33670      0.39600821E-005
      543.51670      0.37228161E-005
      543.69670      0.34990671E-005
      543.87670      0.32881095E-005
      544.05670      0.30892537E-005
      544.23670      0.29018448E-005
      544.41670      0.27252609E-005
      544.59670      0.25589117E-005
      544.77670      0.24022368E-005
      544.95670      0.22547045E-005
      545.13670      0.21158104E-005
      545.31670      0.19850761E-005
      545.49670      0.18620481E-005
      545.67670      0.17462963E-005
      545.85670      0.16374131E-005
      546.03670      0.15350124E-005
      546.21670      0.14387285E-005
      546.39670      0.13482148E-005
      546.57670      0.12631433E-005
      546.75670      0.11832036E-005
      546.93670      0.11081017E-005
      547.11670      0.10375597E-005
      547.29670      0.97131446E-006
      547.47670      0.90911730E-006
      547.65670      0.85073302E-006
      547.83670      0.79593932E-006
      548.01670      0.74452611E-006
      548.19670      0.69629489E-006
      548.37670      0.65105817E-006
      548.55670      0.60863886E-006
      548.73670      0.56886978E-006
      548.91670      0.53159312E-006
      549.09670      0.49665996E-006
      549.27670      0.46392978E-006
      549.45670      0.43327003E-006
      549.63670      0.40455573E-006
      549.81670      0.37766902E-006
      549.99670      0.35249882E-006
      550.17670      0.32894045E-006
      550.35670      0.30689528E-006
      550.53670      0.28627039E-006
      550.71670      0.26697829E-006
      550.89670      0.24893662E-006
      551.07670      0.23206781E-006
      551.25670      0.21629892E-006
      551.43670      0.20156127E-006
      551.61670      0.18779029E-006
      551.79670      0.17492524E-006
      551.97670      0.16290902E-006
      552.15670      0.15168795E-006
      552.33670      0.14121158E-006
      552.51670      0.13143253E-006
      552.69670      0.12230628E-006
      552.87670      0.11379100E-006
      553.05670      0.10584745E-006
      553.23670      0.98438764E-007
      553.41670      0.91530372E-007
      553.59670      0.85089820E-007
      553.77670      0.79086669E-007
      553.95670      0.73492373E-007
      554.13670      0.68280165E-007
      554.31670      0.63424953E-007
      554.49670      0.58903222E-007
      554.67670      0.54692937E-007
      554.85670      0.50773459E-007
      555.03670      0.47125455E-007
      555.21670      0.43730824E-007
      555.39670      0.40572622E-007
      555.57670      0.37634989E-007
      555.75670      0.34903085E-007
      555.93670      0.32363027E-007
      556.11670      0.30001831E-007
      556.29670      0.27807355E-007
      556.47670      0.25768250E-007
      556.65670      0.23873905E-007
      556.83670      0.22114407E-007
      557.01670      0.20480494E-007
      557.19670      0.18963517E-007
      557.37670      0.17555396E-007
      557.55670      0.16248590E-007
      557.73670      0.15036060E-007
      557.91670      0.13911235E-007
      558.09670      0.12867988E-007
      558.27670      0.11900602E-007
      558.45670      0.11003744E-007
      558.63670      0.10172445E-007
      558.81670      0.94020714E-008
      558.99670      0.86883043E-008
      559.17670      0.80271209E-008
      559.35670      0.74147736E-008
      559.53670      0.68477718E-008
      559.71670      0.63228660E-008
      559.89670      0.58370306E-008
      560.07670      0.53874502E-008
      560.25670      0.49715049E-008
      560.43670      0.45867575E-008
      560.61670      0.42309412E-008
      560.79670      0.39019482E-008
      560.97670      0.35978191E-008
      561.15670      0.33167324E-008
      561.33670      0.30569959E-008
      561.51670      0.28170372E-008
      561.69670      0.25953959E-008
      561.87670      0.23907158E-008
      562.05670      0.22017377E-008
      562.23670      0.20272930E-008
      562.41670      0.18662971E-008
      562.59670      0.17177435E-008
      562.77670      0.15806990E-008
      562.95670      0.14542977E-008
      563.13670      0.13377371E-008
      563.31670      0.12302731E-008
      563.49670      0.11312162E-008
      563.67670      0.10399273E-008
      563.85670      0.95581455E-009
      564.03670      0.87832979E-009
      564.21670      0.80696535E-009
      564.39670      0.74125130E-009
      564.57670      0.68075267E-009
      564.75670      0.62506695E-009
      564.93670      0.57382178E-009
      565.11670      0.52667272E-009
      565.29670      0.48330125E-009
      565.47670      0.44341290E-009
      565.65670      0.40673545E-009
      565.83670      0.37301735E-009
      566.01670      0.34202617E-009
      566.19670      0.31354722E-009
      566.37670      0.28738220E-009
      566.55670      0.26334804E-009
      566.73670      0.24127572E-009
      566.91670      0.22100925E-009
      567.09670      0.20240469E-009
      567.27670      0.18532927E-009
      567.45670      0.16966050E-009
      567.63670      0.15528546E-009
      567.81670      0.14210002E-009
      567.99670      0.13000821E-009
      568.17670      0.11892160E-009
      568.35670      0.10875869E-009
      568.53670      0.99444448E-010
      568.71670      0.90909737E-010
      568.89670      0.83090920E-010
      569.07670      0.75929411E-010
      569.25670      0.69371295E-010
      569.43670      0.63366961E-010
      569.61670      0.57870769E-010
      569.79670      0.52840746E-010
      569.97670      0.48238292E-010
      570.15670      0.44027924E-010
      570.33670      0.40177027E-010
      570.51670      0.36655631E-010
      570.69670      0.33436198E-010
      570.87670      0.30493438E-010
      571.05670      0.27804123E-010
      571.23670      0.25346927E-010
      571.41670      0.23102273E-010
      571.59670      0.21052197E-010
      571.77670      0.19180214E-010
      571.95670      0.17471201E-010
      572.13670      0.15911290E-010
      572.31670      0.14487763E-010
      572.49670      0.13188960E-010
      572.67670      0.12004196E-010
      572.85670      0.10923679E-010
      573.03670      0.99384366E-011
      573.21670      0.90402516E-011
      573.39670      0.82215985E-011
      573.57670      0.74755873E-011
      573.75670      0.67959108E-011
      573.93670      0.61767970E-011
      574.11670      0.56129644E-011
      574.29670      0.50995817E-011
      574.47670      0.46322301E-011
      574.65670      0.42068691E-011
      574.83670      0.38198048E-011
      575.01670      0.34676611E-011
      575.19670      0.31473528E-011
      575.37670      0.28560613E-011
      575.55670      0.25912118E-011
      575.73670      0.23504531E-011
      575.91670      0.21316387E-011
      576.09670      0.19328088E-011
      576.27670      0.17521751E-011
      576.45670      0.15881057E-011
      576.63670      0.14391120E-011
      576.81670      0.13038365E-011
      576.99670      0.11810409E-011
      577.17670      0.10695967E-011
      577.35670      0.96847514E-012
      577.53670      0.87673875E-012
      577.71670      0.79353344E-012
