      382.40490       2.0645599     
      382.58490       2.0297609     
      382.76490       1.9952025     
      382.94490       1.9608920     
      383.12490       1.9268363     
      383.30490       1.8930424     
      383.48490       1.8595169     
      383.66490       1.8262660     
      383.84490       1.7932962     
      384.02490       1.7606132     
      384.20490       1.7282230     
      384.38490       1.6961310     
      384.56490       1.6643425     
      384.74490       1.6328628     
      384.92490       1.6016965     
      385.10490       1.5708485     
      385.28490       1.5403230     
      385.46490       1.5101244     
      385.64490       1.4802566     
      385.82490       1.4507233     
      386.00490       1.4215280     
      386.18490       1.3926741     
      386.36490       1.3641646     
      386.54490       1.3360024     
      386.72490       1.3081900     
      386.90490       1.2807299     
      387.08490       1.2536243     
      387.26490       1.2268751     
      387.44490       1.2004841     
      387.62490       1.1744529     
      387.80490       1.1487826     
      387.98490       1.1234746     
      388.16490       1.0985296     
      388.34490       1.0739484     
      388.52490       1.0497315     
      388.70490       1.0258793     
      388.88490       1.0023917     
      389.06490      0.97926890     
      389.24490      0.95651048     
      389.42490      0.93411605     
      389.60490      0.91208501     
      389.78490      0.89041657     
      389.96490      0.86910977     
      390.14490      0.84816349     
      390.32490      0.82757646     
      390.50490      0.80734723     
      390.68490      0.78747422     
      390.86490      0.76795567     
      391.04490      0.74878972     
      391.22490      0.72997434     
      391.40490      0.71150737     
      391.58490      0.69338651     
      391.76490      0.67560937     
      391.94490      0.65817340     
      392.12490      0.64107595     
      392.30490      0.62431426     
      392.48490      0.60788547     
      392.66490      0.59178659     
      392.84490      0.57601455     
      393.02490      0.56056621     
      393.20490      0.54543829     
      393.38490      0.53062748     
      393.56490      0.51613034     
      393.74490      0.50194340     
      393.92490      0.48806309     
      394.10490      0.47448578     
      394.28490      0.46120778     
      394.46490      0.44822536     
      394.64490      0.43553470     
      394.82490      0.42313196     
      395.00490      0.41101324     
      395.18490      0.39917462     
      395.36490      0.38761211     
      395.54490      0.37632172     
      395.72490      0.36529940     
      395.90490      0.35454111     
      396.08490      0.34404276     
      396.26490      0.33380024     
      396.44490      0.32380945     
      396.62490      0.31406626     
      396.80490      0.30456654     
      396.98490      0.29530614     
      397.16490      0.28628093     
      397.34490      0.27748677     
      397.52490      0.26891953     
      397.70490      0.26057507     
      397.88490      0.25244929     
      398.06490      0.24453808     
      398.24490      0.23683735     
      398.42490      0.22934302     
      398.60490      0.22205106     
      398.78490      0.21495743     
      398.96490      0.20805812     
      399.14490      0.20134917     
      399.32490      0.19482663     
      399.50490      0.18848657     
      399.68490      0.18232512     
      399.86490      0.17633842     
      400.04490      0.17052267     
      400.22490      0.16487408     
      400.40490      0.15938893     
      400.58490      0.15406350     
      400.76490      0.14889416     
      400.94490      0.14387729     
      401.12490      0.13900932     
      401.30490      0.13428674     
      401.48490      0.12970606     
      401.66490      0.12526385     
      401.84490      0.12095675     
      402.02490      0.11678141     
      402.20490      0.11273456     
      402.38490      0.10881296     
      402.56490      0.10501344     
      402.74490      0.10133285     
      402.92490      0.97768134E-001
      403.10490      0.94316253E-001
      403.28490      0.90974234E-001
      403.46490      0.87739157E-001
      403.64490      0.84608152E-001
      403.82490      0.81578401E-001
      404.00490      0.78647141E-001
      404.18490      0.75811661E-001
      404.36490      0.73069302E-001
      404.54490      0.70417459E-001
      404.72490      0.67853577E-001
      404.90490      0.65375156E-001
      405.08490      0.62979747E-001
      405.26490      0.60664954E-001
      405.44490      0.58428429E-001
      405.62490      0.56267880E-001
      405.80490      0.54181063E-001
      405.98490      0.52165785E-001
      406.16490      0.50219904E-001
      406.34490      0.48341326E-001
      406.52490      0.46528006E-001
      406.70490      0.44777951E-001
      406.88490      0.43089212E-001
      407.06490      0.41459889E-001
      407.24490      0.39888131E-001
      407.42490      0.38372129E-001
      407.60490      0.36910123E-001
      407.78490      0.35500399E-001
      407.96490      0.34141283E-001
      408.14490      0.32831149E-001
      408.32490      0.31568413E-001
      408.50490      0.30351533E-001
      408.68490      0.29179008E-001
      408.86490      0.28049380E-001
      409.04490      0.26961230E-001
      409.22490      0.25913178E-001
      409.40490      0.24903885E-001
      409.58490      0.23932049E-001
      409.76490      0.22996405E-001
      409.94490      0.22095725E-001
      410.12490      0.21228819E-001
      410.30490      0.20394528E-001
      410.48490      0.19591732E-001
      410.66490      0.18819342E-001
      410.84490      0.18076304E-001
      411.02490      0.17361595E-001
      411.20490      0.16674224E-001
      411.38490      0.16013232E-001
      411.56490      0.15377688E-001
      411.74490      0.14766694E-001
      411.92490      0.14179377E-001
      412.10490      0.13614894E-001
      412.28490      0.13072431E-001
      412.46490      0.12551199E-001
      412.64490      0.12050435E-001
      412.82490      0.11569403E-001
      413.00490      0.11107390E-001
      413.18490      0.10663709E-001
      413.36490      0.10237696E-001
      413.54490      0.98287093E-002
      413.72490      0.94361307E-002
      413.90490      0.90593633E-002
      414.08490      0.86978313E-002
      414.26490      0.83509800E-002
      414.44490      0.80182744E-002
      414.62490      0.76991992E-002
      414.80490      0.73932582E-002
      414.98490      0.70999737E-002
      415.16490      0.68188859E-002
      415.34490      0.65495525E-002
      415.52490      0.62915482E-002
      415.70490      0.60444642E-002
      415.88490      0.58079079E-002
      416.06490      0.55815021E-002
      416.24490      0.53648849E-002
      416.42490      0.51577091E-002
      416.60490      0.49596417E-002
      416.78490      0.47703639E-002
      416.96490      0.45895701E-002
      417.14490      0.44169680E-002
      417.32490      0.42522781E-002
      417.50490      0.40952332E-002
      417.68490      0.39455782E-002
      417.86490      0.38030698E-002
      418.04490      0.36674760E-002
      418.22490      0.35385760E-002
      418.40490      0.34161598E-002
      418.58490      0.33000276E-002
      418.76490      0.31899903E-002
      418.94490      0.30858683E-002
      419.12490      0.29874920E-002
      419.30490      0.28947012E-002
      419.48490      0.28073447E-002
      419.66490      0.27252805E-002
      419.84490      0.26483753E-002
      420.02490      0.25765043E-002
      420.20490      0.25095510E-002
      420.38490      0.24474071E-002
      420.56490      0.23899725E-002
      420.74490      0.23371545E-002
      420.92490      0.22888684E-002
      421.10490      0.22450366E-002
      421.28490      0.22055893E-002
      421.46490      0.21704635E-002
      421.64490      0.21396035E-002
      421.82490      0.21129605E-002
      422.00490      0.20904923E-002
      422.18490      0.20721638E-002
      422.36490      0.20579463E-002
      422.54490      0.20478175E-002
      422.72490      0.20417618E-002
      422.90490      0.20397697E-002
      423.08490      0.20418383E-002
      423.26490      0.20479705E-002
      423.44490      0.20581757E-002
      423.62490      0.20724691E-002
      423.80490      0.20908722E-002
      423.98490      0.21134123E-002
      424.16490      0.21401227E-002
      424.34490      0.21710427E-002
      424.52490      0.22062172E-002
      424.70490      0.22456974E-002
      424.88490      0.22895399E-002
      425.06490      0.23378073E-002
      425.24490      0.23905681E-002
      425.42490      0.24478963E-002
      425.60490      0.25098719E-002
      425.78490      0.25765806E-002
      425.96490      0.26481139E-002
      426.14490      0.27245690E-002
      426.32490      0.28060489E-002
      426.50490      0.28926624E-002
      426.68490      0.29845241E-002
      426.86490      0.30817543E-002
      427.04490      0.31844793E-002
      427.22490      0.32928310E-002
      427.40490      0.34069473E-002
      427.58490      0.35269718E-002
      427.76490      0.36530542E-002
      427.94490      0.37853498E-002
      428.12490      0.39240200E-002
      428.30490      0.40692321E-002
      428.48490      0.42211592E-002
      428.66490      0.43799806E-002
      428.84490      0.45458813E-002
      429.02490      0.47190526E-002
      429.20490      0.48996915E-002
      429.38490      0.50880012E-002
      429.56490      0.52841908E-002
      429.74490      0.54884756E-002
      429.92490      0.57010769E-002
      430.10490      0.59222220E-002
      430.28490      0.61521442E-002
      430.46490      0.63910832E-002
      430.64490      0.66392843E-002
      430.82490      0.68969992E-002
      431.00490      0.71644855E-002
      431.18490      0.74420069E-002
      431.36490      0.77298331E-002
      431.54490      0.80282397E-002
      431.72490      0.83375086E-002
      431.90490      0.86579274E-002
      432.08490      0.89897895E-002
      432.26490      0.93333946E-002
      432.44490      0.96890478E-002
      432.62490      0.10057060E-001
      432.80490      0.10437749E-001
      432.98490      0.10831436E-001
      433.16490      0.11238450E-001
      433.34490      0.11659125E-001
      433.52490      0.12093799E-001
      433.70490      0.12542817E-001
      433.88490      0.13006529E-001
      434.06490      0.13485290E-001
      434.24490      0.13979459E-001
      434.42490      0.14489403E-001
      434.60490      0.15015490E-001
      434.78490      0.15558095E-001
      434.96490      0.16117597E-001
      435.14490      0.16694380E-001
      435.32490      0.17288832E-001
      435.50490      0.17901344E-001
      435.68490      0.18532311E-001
      435.86490      0.19182135E-001
      436.04490      0.19851216E-001
      436.22490      0.20539963E-001
      436.40490      0.21248783E-001
      436.58490      0.21978090E-001
      436.76490      0.22728299E-001
      436.94490      0.23499826E-001
      437.12490      0.24293092E-001
      437.30490      0.25108518E-001
      437.48490      0.25946527E-001
      437.66490      0.26807544E-001
      437.84490      0.27691994E-001
      438.02490      0.28600303E-001
      438.20490      0.29532898E-001
      438.38490      0.30490206E-001
      438.56490      0.31472653E-001
      438.74490      0.32480667E-001
      438.92490      0.33514671E-001
      439.10490      0.34575090E-001
      439.28490      0.35662347E-001
      439.46490      0.36776861E-001
      439.64490      0.37919050E-001
      439.82490      0.39089329E-001
      440.00490      0.40288111E-001
      440.18490      0.41515803E-001
      440.36490      0.42772809E-001
      440.54490      0.44059530E-001
      440.72490      0.45376359E-001
      440.90490      0.46723687E-001
      441.08490      0.48101896E-001
      441.26490      0.49511363E-001
      441.44490      0.50952459E-001
      441.62490      0.52425546E-001
      441.80490      0.53930981E-001
      441.98490      0.55469109E-001
      442.16490      0.57040268E-001
      442.34490      0.58644788E-001
      442.52490      0.60282987E-001
      442.70490      0.61955174E-001
      442.88490      0.63661647E-001
      443.06490      0.65402692E-001
      443.24490      0.67178583E-001
      443.42490      0.68989583E-001
      443.60490      0.70835940E-001
      443.78490      0.72717890E-001
      443.96490      0.74635654E-001
      444.14490      0.76589440E-001
      444.32490      0.78579438E-001
      444.50490      0.80605826E-001
      444.68490      0.82668762E-001
      444.86490      0.84768390E-001
      445.04490      0.86904835E-001
      445.22490      0.89078205E-001
      445.40490      0.91288591E-001
      445.58490      0.93536062E-001
      445.76490      0.95820670E-001
      445.94490      0.98142447E-001
      446.12490      0.10050140     
      446.30490      0.10289753     
      446.48490      0.10533079     
      446.66490      0.10780114     
      446.84490      0.11030851     
      447.02490      0.11285278     
      447.20490      0.11543384     
      447.38490      0.11805155     
      447.56490      0.12070573     
      447.74490      0.12339620     
      447.92490      0.12612273     
      448.10490      0.12888508     
      448.28490      0.13168298     
      448.46490      0.13451614     
      448.64490      0.13738423     
      448.82490      0.14028690     
      449.00490      0.14322379     
      449.18490      0.14619448     
      449.36490      0.14919854     
      449.54490      0.15223552     
      449.72490      0.15530494     
      449.90490      0.15840628     
      450.08490      0.16153899     
      450.26490      0.16470250     
      450.44490      0.16789622     
      450.62490      0.17111953     
      450.80490      0.17437175     
      450.98490      0.17765221     
      451.16490      0.18096019     
      451.34490      0.18429495     
      451.52490      0.18765572     
      451.70490      0.19104169     
      451.88490      0.19445204     
      452.06490      0.19788592     
      452.24490      0.20134242     
      452.42490      0.20482065     
      452.60490      0.20831966     
      452.78490      0.21183847     
      452.96490      0.21537610     
      453.14490      0.21893151     
      453.32490      0.22250366     
      453.50490      0.22609147     
      453.68490      0.22969383     
      453.86490      0.23330962     
      454.04490      0.23693768     
      454.22490      0.24057683     
      454.40490      0.24422586     
      454.58490      0.24788356     
      454.76490      0.25154866     
      454.94490      0.25521991     
      455.12490      0.25889599     
      455.30490      0.26257560     
      455.48490      0.26625740     
      455.66490      0.26994003     
      455.84490      0.27362212     
      456.02490      0.27730228     
      456.20490      0.28097908     
      456.38490      0.28465111     
      456.56490      0.28831692     
      456.74490      0.29197505     
      456.92490      0.29562402     
      457.10490      0.29926236     
      457.28490      0.30288857     
      457.46490      0.30650113     
      457.64490      0.31009852     
      457.82490      0.31367923     
      458.00490      0.31724170     
      458.18490      0.32078440     
      458.36490      0.32430578     
      458.54490      0.32780428     
      458.72490      0.33127835     
      458.90490      0.33472642     
      459.08490      0.33814693     
      459.26490      0.34153831     
      459.44490      0.34489902     
      459.62490      0.34822748     
      459.80490      0.35152215     
      459.98490      0.35478146     
      460.16490      0.35800387     
      460.34490      0.36118784     
      460.52490      0.36433185     
      460.70490      0.36743436     
      460.88490      0.37049386     
      461.06490      0.37350886     
      461.24490      0.37647786     
      461.42490      0.37939940     
      461.60490      0.38227201     
      461.78490      0.38509426     
      461.96490      0.38786471     
      462.14490      0.39058197     
      462.32490      0.39324465     
      462.50490      0.39585138     
      462.68490      0.39840083     
      462.86490      0.40089167     
      463.04490      0.40332261     
      463.22490      0.40569239     
      463.40490      0.40799976     
      463.58490      0.41024352     
      463.76490      0.41242247     
      463.94490      0.41453547     
      464.12490      0.41658139     
      464.30490      0.41855914     
      464.48490      0.42046767     
      464.66490      0.42230595     
      464.84490      0.42407300     
      465.02490      0.42576785     
      465.20490      0.42738960     
      465.38490      0.42893737     
      465.56490      0.43041031     
      465.74490      0.43180763     
      465.92490      0.43312856     
      466.10490      0.43437238     
      466.28490      0.43553842     
      466.46490      0.43662602     
      466.64490      0.43763461     
      466.82490      0.43856362     
      467.00490      0.43941254     
      467.18490      0.44018090     
      467.36490      0.44086830     
      467.54490      0.44147434     
      467.72490      0.44199869     
      467.90490      0.44244107     
      468.08490      0.44280124     
      468.26490      0.44307899     
      468.44490      0.44327419     
      468.62490      0.44338671     
      468.80490      0.44341652     
      468.98490      0.44336358     
      469.16490      0.44322795     
      469.34490      0.44300969     
      469.52490      0.44270893     
      469.70490      0.44232585     
      469.88490      0.44186067     
      470.06490      0.44131364     
      470.24490      0.44068508     
      470.42490      0.43997534     
      470.60490      0.43918482     
      470.78490      0.43831396     
      470.96490      0.43736325     
      471.14490      0.43633321     
      471.32490      0.43522443     
      471.50490      0.43403751     
      471.68490      0.43277312     
      471.86490      0.43143195     
      472.04490      0.43001474     
      472.22490      0.42852227     
      472.40490      0.42695536     
      472.58490      0.42531487     
      472.76490      0.42360169     
      472.94490      0.42181675     
      473.12490      0.41996103     
      473.30490      0.41803551     
      473.48490      0.41604125     
      473.66490      0.41397930     
      473.84490      0.41185078     
      474.02490      0.40965682     
      474.20490      0.40739858     
      474.38490      0.40507725     
      474.56490      0.40269407     
      474.74490      0.40025027     
      474.92490      0.39774713     
      475.10490      0.39518596     
      475.28490      0.39256808     
      475.46490      0.38989484     
      475.64490      0.38716760     
      475.82490      0.38438777     
      476.00490      0.38155673     
      476.18490      0.37867594     
      476.36490      0.37574682     
      476.54490      0.37277083     
      476.72490      0.36974947     
      476.90490      0.36668420     
      477.08490      0.36357654     
      477.26490      0.36042799     
      477.44490      0.35724007     
      477.62490      0.35401432     
      477.80490      0.35075227     
      477.98490      0.34745547     
      478.16490      0.34412546     
      478.34490      0.34076379     
      478.52490      0.33737202     
      478.70490      0.33395171     
      478.88490      0.33050441     
      479.06490      0.32703167     
      479.24490      0.32353506     
      479.42490      0.32001611     
      479.60490      0.31647638     
      479.78490      0.31291741     
      479.96490      0.30934072     
      480.14490      0.30574785     
      480.32490      0.30214031     
      480.50490      0.29851962     
      480.68490      0.29488726     
      480.86490      0.29124473     
      481.04490      0.28759350     
      481.22490      0.28393502     
      481.40490      0.28027075     
      481.58490      0.27660211     
      481.76490      0.27293053     
      481.94490      0.26925739     
      482.12490      0.26558407     
      482.30490      0.26191194     
      482.48490      0.25824235     
      482.66490      0.25457660     
      482.84490      0.25091600     
      483.02490      0.24726184     
      483.20490      0.24361537     
      483.38490      0.23997782     
      483.56490      0.23635041     
      483.74490      0.23273432     
      483.92490      0.22913072     
      484.10490      0.22554076     
      484.28490      0.22196553     
      484.46490      0.21840614     
      484.64490      0.21486364     
      484.82490      0.21133907     
      485.00490      0.20783344     
      485.18490      0.20434772     
      485.36490      0.20088289     
      485.54490      0.19743986     
      485.72490      0.19401953     
      485.90490      0.19062278     
      486.08490      0.18725044     
      486.26490      0.18390334     
      486.44490      0.18058226     
      486.62490      0.17728796     
      486.80490      0.17402116     
      486.98490      0.17078258     
      487.16490      0.16757288     
      487.34490      0.16439270     
      487.52490      0.16124267     
      487.70490      0.15812337     
      487.88490      0.15503535     
      488.06490      0.15197916     
      488.24490      0.14895529     
      488.42490      0.14596423     
      488.60490      0.14300641     
      488.78490      0.14008225     
      488.96490      0.13719216     
      489.14490      0.13433650     
      489.32490      0.13151560     
      489.50490      0.12872979     
      489.68490      0.12597935     
      489.86490      0.12326453     
      490.04490      0.12058559     
      490.22490      0.11794273     
      490.40490      0.11533613     
      490.58490      0.11276597     
      490.76490      0.11023237     
      490.94490      0.10773546     
      491.12490      0.10527534     
      491.30490      0.10285206     
      491.48490      0.10046568     
      491.66490      0.98116232E-001
      491.84490      0.95803716E-001
      492.02490      0.93528119E-001
      492.20490      0.91289407E-001
      492.38490      0.89087527E-001
      492.56490      0.86922406E-001
      492.74490      0.84793951E-001
      492.92490      0.82702055E-001
      493.10490      0.80646589E-001
      493.28490      0.78627410E-001
      493.46490      0.76644358E-001
      493.64490      0.74697256E-001
      493.82490      0.72785912E-001
      494.00490      0.70910120E-001
      494.18490      0.69069659E-001
      494.36490      0.67264293E-001
      494.54490      0.65493775E-001
      494.72490      0.63757844E-001
      494.90490      0.62056227E-001
      495.08490      0.60388639E-001
      495.26490      0.58754783E-001
      495.44490      0.57154353E-001
      495.62490      0.55587033E-001
      495.80490      0.54052494E-001
      495.98490      0.52550402E-001
      496.16490      0.51080413E-001
      496.34490      0.49642172E-001
      496.52490      0.48235321E-001
      496.70490      0.46859492E-001
      496.88490      0.45514310E-001
      497.06490      0.44199394E-001
      497.24490      0.42914359E-001
      497.42490      0.41658813E-001
      497.60490      0.40432359E-001
      497.78490      0.39234596E-001
      497.96490      0.38065118E-001
      498.14490      0.36923518E-001
      498.32490      0.35809382E-001
      498.50490      0.34722296E-001
      498.68490      0.33661842E-001
      498.86490      0.32627602E-001
      499.04490      0.31619153E-001
      499.22490      0.30636074E-001
      499.40490      0.29677941E-001
      499.58490      0.28744330E-001
      499.76490      0.27834816E-001
      499.94490      0.26948975E-001
      500.12490      0.26086383E-001
      500.30490      0.25246617E-001
      500.48490      0.24429254E-001
      500.66490      0.23633872E-001
      500.84490      0.22860052E-001
      501.02490      0.22107376E-001
      501.20490      0.21375427E-001
      501.38490      0.20663792E-001
      501.56490      0.19972058E-001
      501.74490      0.19299818E-001
      501.92490      0.18646665E-001
      502.10490      0.18012196E-001
      502.28490      0.17396012E-001
      502.46490      0.16797716E-001
      502.64490      0.16216916E-001
      502.82490      0.15653224E-001
      503.00490      0.15106255E-001
      503.18490      0.14575628E-001
      503.36490      0.14060966E-001
      503.54490      0.13561898E-001
      503.72490      0.13078056E-001
      503.90490      0.12609077E-001
      504.08490      0.12154603E-001
      504.26490      0.11714280E-001
      504.44490      0.11287760E-001
      504.62490      0.10874700E-001
      504.80490      0.10474760E-001
      504.98490      0.10087608E-001
      505.16490      0.97129153E-002
      505.34490      0.93503582E-002
      505.52490      0.89996195E-002
      505.70490      0.86603865E-002
      505.88490      0.83323522E-002
      506.06490      0.80152146E-002
      506.24490      0.77086776E-002
      506.42490      0.74124499E-002
      506.60490      0.71262460E-002
      506.78490      0.68497857E-002
      506.96490      0.65827942E-002
      507.14490      0.63250021E-002
      507.32490      0.60761453E-002
      507.50490      0.58359654E-002
      507.68490      0.56042089E-002
      507.86490      0.53806279E-002
      508.04490      0.51649798E-002
      508.22490      0.49570272E-002
      508.40490      0.47565379E-002
      508.58490      0.45632851E-002
      508.76490      0.43770469E-002
      508.94490      0.41976067E-002
      509.12490      0.40247528E-002
      509.30490      0.38582786E-002
      509.48490      0.36979826E-002
      509.66490      0.35436679E-002
      509.84490      0.33951427E-002
      510.02490      0.32522198E-002
      510.20490      0.31147170E-002
      510.38490      0.29824564E-002
      510.56490      0.28552649E-002
      510.74490      0.27329740E-002
      510.92490      0.26154195E-002
      511.10490      0.25024417E-002
      511.28490      0.23938852E-002
      511.46490      0.22895988E-002
      511.64490      0.21894356E-002
      511.82490      0.20932526E-002
      512.00490      0.20009110E-002
      512.18490      0.19122760E-002
      512.36490      0.18272165E-002
      512.54490      0.17456054E-002
      512.72490      0.16673192E-002
      512.90490      0.15922381E-002
      513.08490      0.15202460E-002
      513.26490      0.14512301E-002
      513.44490      0.13850812E-002
      513.62490      0.13216935E-002
      513.80490      0.12609642E-002
      513.98490      0.12027941E-002
      514.16490      0.11470868E-002
      514.34490      0.10937492E-002
      514.52490      0.10426912E-002
      514.70490      0.99382533E-003
      514.88490      0.94706734E-003
      515.06490      0.90233555E-003
      515.24490      0.85955104E-003
      515.42490      0.81863754E-003
      515.60490      0.77952133E-003
      515.78490      0.74213122E-003
      515.96490      0.70639844E-003
      516.14490      0.67225661E-003
      516.32490      0.63964165E-003
      516.50490      0.60849173E-003
      516.68490      0.57874720E-003
      516.86490      0.55035052E-003
      517.04490      0.52324622E-003
      517.22490      0.49738084E-003
      517.40490      0.47270285E-003
      517.58490      0.44916260E-003
      517.76490      0.42671228E-003
      517.94490      0.40530584E-003
      518.12490      0.38489896E-003
      518.30490      0.36544899E-003
      518.48490      0.34691486E-003
      518.66490      0.32925711E-003
      518.84490      0.31243776E-003
      519.02490      0.29642031E-003
      519.20490      0.28116967E-003
      519.38490      0.26665211E-003
      519.56490      0.25283525E-003
      519.74490      0.23968798E-003
      519.92490      0.22718041E-003
      520.10490      0.21528388E-003
      520.28490      0.20397086E-003
      520.46490      0.19321495E-003
      520.64490      0.18299080E-003
      520.82490      0.17327413E-003
      521.00490      0.16404166E-003
      521.18490      0.15527104E-003
      521.36490      0.14694089E-003
      521.54490      0.13903072E-003
      521.72490      0.13152089E-003
      521.90490      0.12439261E-003
      522.08490      0.11762787E-003
      522.26490      0.11120946E-003
      522.44490      0.10512090E-003
      522.62490      0.99346408E-004
      522.80490      0.93870920E-004
      522.98490      0.88680014E-004
      523.16490      0.83759908E-004
      523.34490      0.79097432E-004
      523.52490      0.74679999E-004
      523.70490      0.70495590E-004
      523.88490      0.66532723E-004
      524.06490      0.62780438E-004
      524.24490      0.59228273E-004
      524.42490      0.55866243E-004
      524.60490      0.52684821E-004
      524.78490      0.49674923E-004
      524.96490      0.46827883E-004
      525.14490      0.44135439E-004
      525.32490      0.41589720E-004
      525.50490      0.39183220E-004
      525.68490      0.36908791E-004
      525.86490      0.34759626E-004
      526.04490      0.32729240E-004
      526.22490      0.30811460E-004
      526.40490      0.29000411E-004
      526.58490      0.27290504E-004
      526.76490      0.25676419E-004
      526.94490      0.24153098E-004
      527.12490      0.22715731E-004
      527.30490      0.21359744E-004
      527.48490      0.20080791E-004
      527.66490      0.18874743E-004
      527.84490      0.17737675E-004
      528.02490      0.16665860E-004
      528.20490      0.15655762E-004
      528.38490      0.14704019E-004
      528.56490      0.13807444E-004
      528.74490      0.12963011E-004
      528.92490      0.12167850E-004
      529.10490      0.11419238E-004
      529.28490      0.10714595E-004
      529.46490      0.10051473E-004
      529.64490      0.94275522E-005
      529.82490      0.88406356E-005
      530.00490      0.82886408E-005
      530.18490      0.77695957E-005
      530.36490      0.72816329E-005
      530.54490      0.68229846E-005
      530.72490      0.63919775E-005
      530.90490      0.59870283E-005
      531.08490      0.56066391E-005
      531.26490      0.52493931E-005
      531.44490      0.49139505E-005
      531.62490      0.45990449E-005
      531.80490      0.43034789E-005
      531.98490      0.40261215E-005
      532.16490      0.37659038E-005
      532.34490      0.35218163E-005
      532.52490      0.32929057E-005
      532.70490      0.30782722E-005
      532.88490      0.28770661E-005
      533.06490      0.26884859E-005
      533.24490      0.25117751E-005
      533.42490      0.23462205E-005
      533.60490      0.21911492E-005
      533.78490      0.20459270E-005
      533.96490      0.19099560E-005
      534.14490      0.17826727E-005
      534.32490      0.16635463E-005
      534.50490      0.15520766E-005
      534.68490      0.14477929E-005
      534.86490      0.13502516E-005
      535.04490      0.12590354E-005
      535.22490      0.11737515E-005
      535.40490      0.10940302E-005
      535.58490      0.10195240E-005
      535.76490      0.94990571E-006
      535.94490      0.88486798E-006
      536.12490      0.82412175E-006
      536.30490      0.76739538E-006
      536.48490      0.71443362E-006
      536.66490      0.66499667E-006
      536.84490      0.61885932E-006
      537.02490      0.57581009E-006
      537.20490      0.53565044E-006
      537.38490      0.49819402E-006
      537.56490      0.46326597E-006
      537.74490      0.43070222E-006
      537.92490      0.40034890E-006
      538.10490      0.37206172E-006
      538.28490      0.34570537E-006
      538.46490      0.32115306E-006
      538.64490      0.29828594E-006
      538.82490      0.27699268E-006
      539.00490      0.25716896E-006
      539.18490      0.23871712E-006
      539.36490      0.22154570E-006
      539.54490      0.20556909E-006
      539.72490      0.19070718E-006
      539.90490      0.17688499E-006
      540.08490      0.16403240E-006
      540.26490      0.15208382E-006
      540.44490      0.14097791E-006
      540.62490      0.13065734E-006
      540.80490      0.12106851E-006
      540.98490      0.11216136E-006
      541.16490      0.10388911E-006
      541.34490      0.96208049E-007
      541.52490      0.89077380E-007
      541.70490      0.82459006E-007
      541.88490      0.76317367E-007
      542.06490      0.70619278E-007
      542.24490      0.65333779E-007
      542.42490      0.60431989E-007
      542.60490      0.55886973E-007
      542.78490      0.51673617E-007
      542.96490      0.47768512E-007
      543.14490      0.44149840E-007
      543.32490      0.40797271E-007
      543.50490      0.37691866E-007
      543.68490      0.34815987E-007
      543.86490      0.32153209E-007
      544.04490      0.29688240E-007
      544.22490      0.27406849E-007
      544.40490      0.25295791E-007
      544.58490      0.23342745E-007
      544.76490      0.21536250E-007
      544.94490      0.19865648E-007
      545.12490      0.18321029E-007
      545.30490      0.16893182E-007
      545.48490      0.15573546E-007
      545.66490      0.14354169E-007
      545.84490      0.13227660E-007
      546.02490      0.12187158E-007
      546.20490      0.11226291E-007
      546.38490      0.10339143E-007
      546.56490      0.95202258E-008
      546.74490      0.87644438E-008
      546.92490      0.80670710E-008
      547.10490      0.74237236E-008
      547.28490      0.68303365E-008
      547.46490      0.62831408E-008
      547.64490      0.57786429E-008
      547.82490      0.53136054E-008
      548.00490      0.48850285E-008
      548.18490      0.44901335E-008
      548.36490      0.41263472E-008
      548.54490      0.37912866E-008
      548.72490      0.34827460E-008
      548.90490      0.31986839E-008
      549.08490      0.29372111E-008
      549.26490      0.26965801E-008
      549.44490      0.24751743E-008
      549.62490      0.22714990E-008
      549.80490      0.20841723E-008
      549.98490      0.19119167E-008
      550.16490      0.17535518E-008
      550.34490      0.16079869E-008
      550.52490      0.14742146E-008
      550.70490      0.13513043E-008
      550.88490      0.12383969E-008
      551.06490      0.11346993E-008
      551.24490      0.10394797E-008
      551.42490      0.95206246E-009
      551.60490      0.87182458E-009
      551.78490      0.79819133E-009
      551.96490      0.73063273E-009
      552.14490      0.66866017E-009
      552.32490      0.61182327E-009
      552.50490      0.55970700E-009
      552.68490      0.51192893E-009
      552.86490      0.46813682E-009
      553.04490      0.42800625E-009
      553.22490      0.39123851E-009
      553.40490      0.35755863E-009
      553.58490      0.32671351E-009
      553.76490      0.29847027E-009
      553.94490      0.27261467E-009
      554.12490      0.24894965E-009
      554.30490      0.22729399E-009
      554.48490      0.20748110E-009
      554.66490      0.18935782E-009
      554.84490      0.17278343E-009
      555.02490      0.15762861E-009
      555.20490      0.14377458E-009
      555.38490      0.13111226E-009
      555.56490      0.11954147E-009
      555.74490      0.10897026E-009
      555.92490      0.99314227E-010
      556.10490      0.90495929E-010
      556.28490      0.82444312E-010
      556.46490      0.75094207E-010
      556.64490      0.68385850E-010
      556.82490      0.62264446E-010
      557.00490      0.56679768E-010
      557.18490      0.51585788E-010
      557.36490      0.46940328E-010
      557.54490      0.42704754E-010
      557.72490      0.38843680E-010
      557.90490      0.35324705E-010
      558.08490      0.32118167E-010
      558.26490      0.29196917E-010
      558.44490      0.26536110E-010
      558.62490      0.24113017E-010
      558.80490      0.21906845E-010
      558.98490      0.19898583E-010
      559.16490      0.18070845E-010
      559.34490      0.16407740E-010
      559.52490      0.14894745E-010
      559.70490      0.13518589E-010
      559.88490      0.12267149E-010
      560.06490      0.11129352E-010
      560.24490      0.10095088E-010
      560.42490      0.91551260E-011
      560.60490      0.83010398E-011
      560.78490      0.75251408E-011
      560.96490      0.68204137E-011
      561.14490      0.61804595E-011
      561.32490      0.55994421E-011
      561.50490      0.50720402E-011
      561.68490      0.45934032E-011
      561.86490      0.41591097E-011
      562.04490      0.37651313E-011
      562.22490      0.34077976E-011
      562.40490      0.30837658E-011
