      361.57770       16.024665     
      365.35021       14.765454     
      369.12273       13.960587     
      372.89524       13.295964     
      376.66776       12.522365     
      380.44027       11.562515     
      384.21279       10.506685     
      387.98530       9.5184823     
      391.75782       8.7207484     
      395.53033       8.1308197     
      399.30284       7.6713533     
      403.07536       7.2328172     
      406.84787       6.7400743     
      410.62039       6.1860944     
      414.39290       5.6237468     
      418.16542       5.1297207     
      421.93793       4.7627492     
      425.71044       4.5347245     
      429.48296       4.4049260     
      433.25547       4.2978175     
      437.02799       4.1350715     
      440.80050       3.8662324     
      444.57302       3.4842788     
      448.34553       3.0221177     
      452.11805       2.5368629     
      455.89056       2.0927424     
      459.66307       1.7490364     
      463.43559       1.5521708     
      467.20810       1.5278202     
      470.98062       1.6716626     
      474.75313       1.9428993     
      478.52565       2.2676772     
      482.29816       2.5570686     
      486.07068       2.7368924     
      489.84319       2.7783298     
      493.61570       2.7143197     
      497.38822       2.6307493     
      501.16073       2.6326795     
      504.93325       2.7988623     
      508.70576       3.1455273     
      512.47828       3.6179535     
      516.25079       4.1157601     
      520.02330       4.5407514     
      523.79582       4.8437498     
      527.56833       5.0469081     
      531.34085       5.2310128     
      535.11336       5.4950921     
      538.88588       5.9075268     
      542.65839       6.4691925     
      546.43091       7.1034078     
      550.20342       7.6797169     
      553.97593       8.0690022     
      557.74845       8.2137319     
      561.52096       8.1824063     
      565.29348       8.1726545     
      569.06599       8.4436351     
      572.83851       9.1937866     
      576.61102       10.437023     
      580.38354       11.944838     
      584.15605       13.298109     
      587.92856       14.037456     
      591.70108       13.844525     
      595.47359       12.665199     
      599.24611       10.716603     
      603.01862       8.3844438     
      606.79114       6.0729225     
      610.56365       4.0821140     
      614.33616       2.5566997     
      618.10868       1.5037993     
      621.88119      0.84743086     
      625.65371      0.48418773     
      629.42622      0.31987795     
      633.19874      0.28439994     
      636.97125      0.33233071     
      640.74377      0.43843228     
      644.51628      0.59376910     
      648.28879      0.80300879     
      652.06131       1.0797197     
      655.83382       1.4364684     
      659.60634       1.8710349     
      663.37885       2.3565684     
      667.15137       2.8463240     
      670.92388       3.2977089     
      674.69640       3.7065792     
      678.46891       4.1297267     
      682.24142       4.6728691     
      686.01394       5.4385010     
      689.78645       6.4551478     
      693.55897       7.6289847     
      697.33148       8.7537219     
      701.10400       9.5832941     
      704.87651       9.9323950     
      708.64902       9.7500591     
      712.42154       9.1274439     
      716.19405       8.2421851     
      719.96657       7.2778478     
      723.73908       6.3631799     
      727.51160       5.5530510     
      731.28411       4.8438868     
      735.05663       4.2026402     
      738.82914       3.5928024     
      742.60165       2.9915762     
      746.37417       2.3981526     
      750.14668       1.8335356     
      753.91920       1.3328525     
      757.69171      0.93377785     
      761.46423      0.66663625     
      765.23674      0.54978496     
      769.00926      0.58917057     
      772.78177      0.77776588     
      776.55428       1.0919696     
      780.32680       1.4868995     
      784.09931       1.8965169     
      787.87183       2.2436771     
      791.64434       2.4592250     
      795.41686       2.5023042     
      799.18937       2.3717005     
      802.96188       2.1025706     
      806.73440       1.7511181     
      810.50691       1.3756707     
      814.27943       1.0225142     
      818.05194      0.72011269     
      821.82446      0.48028240     
      825.59697      0.30267304     
      829.36949      0.17959484     
      833.14200      0.99920183E-001
      836.91451      0.51908685E-001
      840.68703      0.25084670E-001
      844.45954      0.11239889E-001
      848.23206      0.46576852E-002
      852.00457      0.17813289E-002
      855.77709      0.62776634E-003
      859.54960      0.20361353E-003
      863.32212      0.60725078E-004
      867.09463      0.16640798E-004
      870.86714      0.41880160E-005
      874.63966      0.96906293E-006
      878.41217      0.21521159E-006
      882.18469      0.96679175E-007
      885.95720      0.29849761E-006
      889.72972      0.13704617E-005
      893.50223      0.58946742E-005
      897.27474      0.23244184E-004
      901.04726      0.83965102E-004
      904.81977      0.27784451E-003
      908.59229      0.84221487E-003
      912.36480      0.23386328E-002
      916.13732      0.59486614E-002
      919.90983      0.13860999E-001
      923.68235      0.29586115E-001
      927.45486      0.57849495E-001
      931.22737      0.10361670     
      934.99989      0.17001199     
      938.77240      0.25553589     
      942.54492      0.35184862     
      946.31743      0.44383173     
      950.08995      0.51300308     
      953.86246      0.54362776     
      957.63498      0.52903164     
      961.40749      0.47509948     
      965.18000      0.39933495     
      968.95252      0.32625181     
      972.72503      0.28145525     
      976.49755      0.28646373     
      980.27006      0.35473150     
      984.04258      0.48821333     
      987.81509      0.67438881     
      991.58760      0.88537596     
      995.36012       1.0816497     
      999.13263       1.2213565     
     1002.90515       1.2727745     
     1006.67766       1.2246220     
     1010.45018       1.0891773     
     1014.22269      0.89674726     
     1017.99521      0.68450937     
     1021.76772      0.48513068     
     1025.54023      0.31963423     
     1029.31275      0.19596982     
     1033.08526      0.11190487     
     1036.85778      0.59636824E-001
     1040.63029      0.29933582E-001
     1044.40281      0.14746377E-001
     1048.17532      0.82529044E-002
     1051.94784      0.68062142E-002
     1055.72035      0.83445797E-002
     1059.49286      0.11682289E-001
     1063.26538      0.15934290E-001
     1067.03789      0.20200479E-001
     1070.81041      0.23536256E-001
     1074.58292      0.25139313E-001
     1078.35544      0.24601431E-001
     1082.12795      0.22054741E-001
     1085.90046      0.18111957E-001
     1089.67298      0.13625351E-001
     1093.44549      0.93896259E-002
     1097.21801      0.59274375E-002
     1100.99052      0.34277075E-002
     1104.76304      0.18157610E-002
     1108.53555      0.88111607E-003
     1112.30807      0.39169529E-003
     1116.08058      0.15963868E-003
     1119.85309      0.60366694E-004
     1123.62561      0.25018799E-004
     1127.39812      0.29402560E-004
     1131.17064      0.10549516E-003
     1134.94315      0.42780279E-003
     1138.71567      0.16136411E-002
     1142.48818      0.55810389E-002
     1146.26070      0.17683508E-001
     1150.03321      0.51326490E-001
     1153.80572      0.13646865     
     1157.57824      0.33238567     
     1161.35075      0.74160005     
     1165.12327       1.5157071     
     1168.89578       2.8377811     
     1172.66830       4.8669920     
     1176.44081       7.6464636     
     1180.21332       11.004725     
     1183.98584       14.508323     
     1187.75835       17.521736     
     1191.53087       19.384990     
     1195.30338       19.647200     
     1199.07590       18.244496     
     1202.84841       15.527236     
     1206.62093       12.121467     
     1210.39344       8.6998534     
     1214.16595       5.7760854     
     1217.93847       3.6043690     
     1221.71098       2.1952070     
     1225.48350       1.4023376     
     1229.25601       1.0217587     
     1233.02853      0.86418067     
     1236.80104      0.79099847     
     1240.57356      0.72175321     
     1244.34607      0.62514622     
     1248.11858      0.50288894     
     1251.89110      0.37249067     
     1255.66361      0.25322186     
     1259.43613      0.15780027     
     1263.20864      0.90103837E-001
     1266.98116      0.47134349E-001
     1270.75367      0.22587318E-001
     1274.52618      0.99155166E-002
     1278.29870      0.39873657E-002
     1282.07121      0.14688437E-002
     1285.84373      0.49565949E-003
     1289.61624      0.15321787E-003
     1293.38876      0.43386391E-004
     1297.16127      0.11254229E-004
     1300.93379      0.26742210E-005
     1304.70630      0.58215930E-006
     1308.47881      0.11651271E-006
     1312.25133      0.24045487E-007
     1316.02384      0.20201232E-007
     1319.79636      0.89846135E-007
     1323.56887      0.43873601E-006
     1327.34139      0.19738423E-005
     1331.11390      0.81360028E-005
     1334.88642      0.30720628E-004
     1338.65893      0.10625949E-003
     1342.43144      0.33668570E-003
     1346.20396      0.97724247E-003
     1349.97647      0.25983876E-002
     1353.74899      0.63290215E-002
     1357.52150      0.14122640E-001
     1361.29402      0.28871965E-001
     1365.06653      0.54087135E-001
     1368.83904      0.92882971E-001
     1372.61156      0.14634240     
     1376.38407      0.21193323     
     1380.15659      0.28324131     
     1383.92910      0.35228557     
     1387.70162      0.41467117     
     1391.47413      0.47598610     
     1395.24665      0.55604154     
     1399.01916      0.68701728     
     1402.79167      0.90319846     
     1406.56419       1.2238169     
     1410.33670       1.6353232     
     1414.10922       2.0826440     
     1417.88173       2.4775436     
     1421.65425       2.7248520     
     1425.42676       2.7569633     
     1429.19928       2.5603212     
     1432.97179       2.1802908     
     1436.74430       1.7023128     
     1440.51682       1.2200754     
     1444.28933      0.80699964     
     1448.06185      0.50272590     
     1451.83436      0.31605085     
     1455.60688      0.23728655     
     1459.37939      0.25071296     
     1463.15190      0.34111741     
     1466.92442      0.49388184     
     1470.69693      0.69226810     
     1474.46945      0.91654245     
     1478.24196       1.1471642     
     1482.01448       1.3700325     
     1485.78699       1.5788381     
     1489.55951       1.7707943     
     1493.33202       1.9373654     
     1497.10453       2.0570918     
     1500.87705       2.0979846     
     1504.64956       2.0307378     
     1508.42208       1.8455555     
     1512.19459       1.5617024     
     1515.96711       1.2232484     
     1519.73962      0.88344868     
     1523.51214      0.58683202     
     1527.28465      0.35795933     
     1531.05716      0.20031916     
     1534.82968      0.10278370     
     1538.60219      0.48337400E-001
     1542.37471      0.20830805E-001
     1546.14722      0.82252578E-002
     1549.91974      0.29770351E-002
     1553.69225      0.99437559E-003
     1557.46476      0.33634410E-003
     1561.23728      0.23348962E-003
     1565.00979      0.58159682E-003
     1568.78231      0.19253059E-002
     1572.55482      0.60473046E-002
     1576.32734      0.17491638E-001
     1580.09985      0.46498195E-001
     1583.87237      0.11359847     
     1587.64488      0.25510865     
     1591.41739      0.52679524     
     1595.18991       1.0008476     
     1598.96242       1.7511037     
     1602.73494       2.8258626     
     1606.50745       4.2169749     
     1610.27997       5.8434395     
     1614.05248       7.5681635     
     1617.82500       9.2508919     
     1621.59751       10.813324     
     1625.37002       12.272831     
     1629.14254       13.709937     
     1632.91505       15.175188     
     1636.68757       16.589273     
     1640.46008       17.708615     
     1644.23260       18.195981     
     1648.00511       17.769192     
     1651.77762       16.346727     
     1655.55014       14.107176     
     1659.32265       11.431558     
     1663.09517       8.7656221     
     1666.86768       6.4768032     
     1670.64020       4.7685226     
     1674.41271       3.6709950     
     1678.18523       3.0872957     
     1681.95774       2.8585337     
     1685.73025       2.8206210     
     1689.50277       2.8411898     
     1693.27528       2.8358611     
     1697.04780       2.7668980     
     1700.82031       2.6293815     
     1704.59283       2.4329873     
     1708.36534       2.1885272     
     1712.13786       1.9044783     
     1715.91037       1.5913774     
     1719.68288       1.2668434     
     1723.45540      0.95507845     
     1727.22791      0.68038946     
     1731.00043      0.45928279     
     1734.77294      0.29624478     
     1738.54546      0.18503298     
     1742.31797      0.11358690     
     1746.09048      0.69233790E-001
     1749.86300      0.41891783E-001
     1753.63551      0.24885446E-001
     1757.40803      0.14270771E-001
     1761.18054      0.77701574E-002
     1764.95306      0.39649396E-002
     1768.72557      0.18792469E-002
     1772.49809      0.82263896E-003
     1776.27060      0.33145384E-003
     1780.04311      0.12267266E-003
     1783.81563      0.41655705E-004
     1787.58814      0.12969115E-004
     1791.36066      0.37007325E-005
     1795.13317      0.96763304E-006
     1798.90569      0.23180618E-006
     1802.67820      0.50876584E-007
     1806.45072      0.10250871E-007
     1810.22323      0.20816065E-008
     1813.99574      0.19211410E-008
     1817.76826      0.11960066E-007
     1821.54077      0.81065716E-007
     1825.31329      0.50532732E-006
     1829.08580      0.28857727E-005
     1832.85832      0.15096292E-004
     1836.63083      0.72342999E-004
     1840.40334      0.31757097E-003
     1844.17586      0.12770360E-002
     1847.94837      0.47041759E-002
     1851.72089      0.15873841E-001
     1855.49340      0.49068021E-001
     1859.26592      0.13894187     
     1863.03843      0.36040083     
     1866.81095      0.85636023     
     1870.58346       1.8639972     
     1874.35597       3.7166536     
     1878.12849       6.7885494     
     1881.90100       11.358472     
     1885.67352       17.409285     
     1889.44603       24.443310     
     1893.21855       31.438162     
     1896.99106       37.040115     
     1900.76358       39.976575     
     1904.53609       39.523636     
     1908.30860       35.795321     
     1912.08112       29.697076     
     1915.85363       22.569357     
     1919.62615       15.712408     
     1923.39866       10.020384     
     1927.17118       5.8538828     
     1930.94369       3.1327213     
     1934.71620       1.5357395     
     1938.48872      0.68965422     
     1942.26123      0.28370260     
     1946.03375      0.10690876     
     1949.80626      0.36904669E-001
     1953.57878      0.11669907E-001
     1957.35129      0.33804270E-002
     1961.12381      0.89700276E-003
     1964.89632      0.21803894E-003
     1968.66883      0.48550353E-004
     1972.44135      0.99030457E-005
     1976.21386      0.18503898E-005
     1979.98638      0.31672019E-006
     1983.75889      0.49659956E-007
     1987.53141      0.71327165E-008
     1991.30392      0.93847273E-009
     1995.07644      0.11311141E-009
     1998.84895      0.12488470E-010
     2002.62146      0.12630778E-011
     2006.39398      0.11702241E-012
     2010.16649      0.99317559E-014
     2013.93901      0.77214896E-015
     2017.71152      0.54991328E-016
     2021.48404      0.35876113E-017
     2025.25655      0.21440486E-018
     2029.02906      0.11737671E-019
     2032.80158      0.58863662E-021
     2036.57409      0.27041495E-022
     2040.34661      0.11379736E-023
     2044.11912      0.43868392E-025
     2047.89164      0.15491352E-026
     2051.66415      0.50112373E-028
     2055.43667      0.14849734E-029
     2059.20918      0.40309784E-031
     2062.98169      0.10023521E-032
     2066.75421      0.22832223E-034
     2070.52672      0.47642458E-036
     2074.29924      0.91066403E-038
     2078.07175      0.15945578E-039
     2081.84427      0.25576458E-041
     2085.61678      0.37580158E-043
     2089.38930      0.50581868E-045
     2093.16181      0.62366186E-047
     2096.93432      0.70440359E-049
     2100.70684      0.72880611E-051
     2104.47935      0.69074938E-053
     2108.25187      0.59971798E-055
     2112.02438      0.47697069E-057
     2115.79690      0.34749965E-059
     2119.56941      0.23191835E-061
     2123.34192      0.14178618E-063
     2127.11444      0.79405535E-066
     2130.88695      0.40736686E-068
     2134.65947      0.19144264E-070
     2138.43198      0.82415657E-073
     2142.20450      0.32501157E-075
     2145.97701      0.11741024E-077
     2149.74953      0.38853595E-080
     2153.52204      0.11778080E-082
     2157.29455      0.32706633E-085
     2161.06707      0.83198452E-088
     2164.83958      0.19387094E-090
     2168.61210      0.41383597E-093
     2172.38461      0.80921107E-096
     2176.15713      0.14494841E-098
     2179.92964      0.23783905E-101
     2183.70216      0.35749579E-104
     2187.47467      0.49223983E-107
     2191.24718      0.62086995E-110
     2195.01970      0.71736897E-113
     2198.79221      0.75928111E-116
     2202.56473       0.0000000     
     2206.33724       0.0000000     
     2210.10976       0.0000000     
     2213.88227       0.0000000     
     2217.65478       0.0000000     
     2221.42730       0.0000000     
     2225.19981       0.0000000     
     2228.97233       0.0000000     
     2232.74484       0.0000000     
     2236.51736       0.0000000     
     2240.28987       0.0000000     
     2244.06239       0.0000000     
     2247.83490       0.0000000     
     2251.60741       0.0000000     
     2255.37993       0.0000000     
     2259.15244       0.0000000     
     2262.92496       0.0000000     
     2266.69747       0.0000000     
     2270.46999       0.0000000     
     2274.24250       0.0000000     
     2278.01502       0.0000000     
     2281.78753       0.0000000     
     2285.56004       0.0000000     
     2289.33256       0.0000000     
     2293.10507       0.0000000     
     2296.87759       0.0000000     
     2300.65010       0.0000000     
     2304.42262       0.0000000     
     2308.19513       0.0000000     
     2311.96764       0.0000000     
     2315.74016       0.0000000     
     2319.51267       0.0000000     
     2323.28519       0.0000000     
     2327.05770       0.0000000     
     2330.83022       0.0000000     
     2334.60273       0.0000000     
     2338.37525       0.0000000     
     2342.14776       0.0000000     
     2345.92027       0.0000000     
     2349.69279       0.0000000     
     2353.46530       0.0000000     
     2357.23782       0.0000000     
     2361.01033       0.0000000     
     2364.78285       0.0000000     
     2368.55536       0.0000000     
     2372.32788       0.0000000     
     2376.10039       0.0000000     
     2379.87290       0.0000000     
     2383.64542       0.0000000     
     2387.41793       0.0000000     
     2391.19045       0.0000000     
     2394.96296       0.0000000     
     2398.73548       0.0000000     
     2402.50799       0.0000000     
     2406.28050       0.0000000     
     2410.05302       0.0000000     
     2413.82553       0.0000000     
     2417.59805       0.0000000     
     2421.37056       0.0000000     
     2425.14308       0.0000000     
     2428.91559       0.0000000     
     2432.68811       0.0000000     
     2436.46062       0.0000000     
     2440.23313       0.0000000     
     2444.00565       0.0000000     
     2447.77816       0.0000000     
     2451.55068       0.0000000     
     2455.32319       0.0000000     
     2459.09571       0.0000000     
     2462.86822       0.0000000     
     2466.64074       0.0000000     
     2470.41325       0.0000000     
     2474.18576       0.0000000     
     2477.95828       0.0000000     
     2481.73079       0.0000000     
     2485.50331       0.0000000     
     2489.27582       0.0000000     
     2493.04834       0.0000000     
     2496.82085       0.0000000     
     2500.59336       0.0000000     
     2504.36588       0.0000000     
     2508.13839       0.0000000     
     2511.91091       0.0000000     
     2515.68342       0.0000000     
     2519.45594       0.0000000     
     2523.22845       0.0000000     
     2527.00097       0.0000000     
     2530.77348       0.0000000     
     2534.54599       0.0000000     
     2538.31851       0.0000000     
     2542.09102       0.0000000     
     2545.86354       0.0000000     
     2549.63605       0.0000000     
     2553.40857       0.0000000     
     2557.18108       0.0000000     
     2560.95360       0.0000000     
     2564.72611       0.0000000     
     2568.49862       0.0000000     
     2572.27114       0.0000000     
     2576.04365       0.0000000     
     2579.81617       0.0000000     
     2583.58868       0.0000000     
     2587.36120       0.0000000     
     2591.13371       0.0000000     
     2594.90622       0.0000000     
     2598.67874       0.0000000     
     2602.45125       0.0000000     
     2606.22377       0.0000000     
     2609.99628       0.0000000     
     2613.76880       0.0000000     
     2617.54131       0.0000000     
     2621.31383       0.0000000     
     2625.08634       0.0000000     
     2628.85885       0.0000000     
     2632.63137       0.0000000     
     2636.40388       0.0000000     
     2640.17640       0.0000000     
     2643.94891       0.0000000     
     2647.72143       0.0000000     
     2651.49394       0.0000000     
     2655.26646       0.0000000     
     2659.03897       0.0000000     
     2662.81148       0.0000000     
     2666.58400       0.0000000     
     2670.35651       0.0000000     
     2674.12903       0.0000000     
     2677.90154       0.0000000     
     2681.67406       0.0000000     
     2685.44657       0.0000000     
     2689.21908       0.0000000     
     2692.99160       0.0000000     
     2696.76411       0.0000000     
     2700.53663       0.0000000     
     2704.30914       0.0000000     
     2708.08166       0.0000000     
     2711.85417       0.0000000     
     2715.62669       0.0000000     
     2719.39920       0.0000000     
     2723.17171       0.0000000     
     2726.94423       0.0000000     
     2730.71674       0.0000000     
     2734.48926       0.0000000     
     2738.26177       0.0000000     
     2742.03429       0.0000000     
     2745.80680       0.0000000     
     2749.57932       0.0000000     
     2753.35183       0.0000000     
     2757.12434       0.0000000     
     2760.89686       0.0000000     
     2764.66937       0.0000000     
     2768.44189       0.0000000     
     2772.21440       0.0000000     
     2775.98692       0.0000000     
     2779.75943       0.0000000     
     2783.53194       0.0000000     
     2787.30446       0.0000000     
     2791.07697       0.0000000     
     2794.84949       0.0000000     
     2798.62200       0.0000000     
     2802.39452       0.0000000     
     2806.16703       0.0000000     
     2809.93955       0.0000000     
     2813.71206       0.0000000     
     2817.48457       0.0000000     
     2821.25709       0.0000000     
     2825.02960       0.0000000     
     2828.80212       0.0000000     
     2832.57463       0.0000000     
     2836.34715       0.0000000     
     2840.11966       0.0000000     
     2843.89218       0.0000000     
     2847.66469       0.0000000     
     2851.43720       0.0000000     
     2855.20972       0.0000000     
     2858.98223       0.0000000     
     2862.75475       0.0000000     
     2866.52726       0.0000000     
     2870.29978       0.0000000     
     2874.07229       0.0000000     
     2877.84480       0.0000000     
     2881.61732       0.0000000     
     2885.38983       0.0000000     
     2889.16235       0.0000000     
     2892.93486       0.0000000     
     2896.70738       0.0000000     
     2900.47989       0.0000000     
     2904.25241       0.0000000     
     2908.02492       0.0000000     
     2911.79743       0.0000000     
     2915.56995       0.0000000     
     2919.34246       0.0000000     
     2923.11498       0.0000000     
     2926.88749       0.0000000     
     2930.66001       0.0000000     
     2934.43252       0.0000000     
     2938.20504       0.0000000     
     2941.97755       0.0000000     
     2945.75006       0.0000000     
     2949.52258       0.0000000     
     2953.29509       0.0000000     
     2957.06761       0.0000000     
     2960.84012       0.0000000     
     2964.61264       0.0000000     
     2968.38515       0.0000000     
     2972.15766       0.0000000     
     2975.93018       0.0000000     
     2979.70269       0.0000000     
     2983.47521       0.0000000     
     2987.24772       0.0000000     
     2991.02024       0.0000000     
     2994.79275       0.0000000     
     2998.56527       0.0000000     
     3002.33778       0.0000000     
     3006.11029       0.0000000     
     3009.88281       0.0000000     
     3013.65532       0.0000000     
     3017.42784       0.0000000     
     3021.20035       0.0000000     
     3024.97287       0.0000000     
     3028.74538       0.0000000     
     3032.51790       0.0000000     
     3036.29041       0.0000000     
     3040.06292       0.0000000     
     3043.83544       0.0000000     
     3047.60795       0.0000000     
     3051.38047       0.0000000     
     3055.15298      0.30346048E-119
     3058.92550      0.30041122E-116
     3062.69801      0.27242578E-113
     3066.47052      0.22630718E-110
     3070.24304      0.17221323E-107
     3074.01555      0.12004740E-104
     3077.78807      0.76657923E-102
     3081.56058      0.44841426E-099
     3085.33310      0.24028122E-096
     3089.10561      0.11794467E-093
     3092.87813      0.53034058E-091
     3096.65064      0.21844870E-088
     3100.42315      0.82425601E-086
     3104.19567      0.28490026E-083
     3107.96818      0.90207289E-081
     3111.74070      0.26164261E-078
     3115.51321      0.69517377E-076
     3119.28573      0.16919843E-073
     3123.05824      0.37723968E-071
     3126.83076      0.77047127E-069
     3130.60327      0.14414965E-066
     3134.37578      0.24705224E-064
     3138.14830      0.38786631E-062
     3141.92081      0.55781911E-060
     3145.69333      0.73489073E-058
     3149.46584      0.88689094E-056
     3153.23836      0.98047319E-054
     3157.01087      0.99293150E-052
     3160.78338      0.92112997E-050
     3164.55590      0.78278158E-048
     3168.32841      0.60936618E-046
     3172.10093      0.43454439E-044
     3175.87344      0.28386250E-042
     3179.64596      0.16986345E-040
     3183.41847      0.93112917E-039
     3187.19099      0.46756068E-037
     3190.96350      0.21507211E-035
     3194.73601      0.90625049E-034
     3198.50853      0.34980860E-032
     3202.28104      0.12368891E-030
     3206.05356      0.40063521E-029
     3209.82607      0.11887363E-027
     3213.59859      0.32310226E-026
     3217.37110      0.80447494E-025
     3221.14362      0.18348608E-023
     3224.91613      0.38336438E-022
     3228.68864      0.73373371E-021
     3232.46116      0.12864213E-019
     3236.23367      0.20660749E-018
     3240.00619      0.30396736E-017
     3243.77870      0.40966221E-016
     3247.55122      0.50575818E-015
     3251.32373      0.57197624E-014
     3255.09624      0.59255835E-013
     3258.86876      0.56234432E-012
     3262.64127      0.48886794E-011
     3266.41379      0.38931297E-010
     3270.18630      0.28400386E-009
     3273.95882      0.18978753E-008
     3277.73133      0.11617941E-007
     3281.50385      0.65149145E-007
     3285.27636      0.33466194E-006
     3289.04887      0.15747877E-005
     3292.82139      0.67882173E-005
     3296.59390      0.26804489E-004
     3300.36642      0.96956601E-004
     3304.13893      0.32126639E-003
     3307.91145      0.97514965E-003
     3311.68396      0.27114107E-002
     3315.45648      0.69061721E-002
     3319.22899      0.16113784E-001
     3323.00150      0.34441001E-001
     3326.77402      0.67432931E-001
     3330.54653      0.12094457     
     3334.31905      0.19870956     
     3338.09156      0.29906750     
     3341.86408      0.41232318     
     3345.63659      0.52074410     
     3349.40910      0.60246132     
     3353.18162      0.63848778     
     3356.95413      0.61986408     
     3360.72665      0.55127546     
     3364.49916      0.44916188     
     3368.27168      0.33538495     
     3372.04419      0.22983088     
     3375.81671      0.14541843     
     3379.58922      0.87089409E-001
     3383.36173      0.54031103E-001
     3387.13425      0.43066125E-001
     3390.90676      0.51231520E-001
     3394.67928      0.76520460E-001
     3398.45179      0.11686340     
     3402.22431      0.16827308     
     3405.99682      0.22349874     
     3409.76934      0.27237030     
     3413.54185      0.30417778     
     3417.31436      0.31120874     
     3421.08688      0.29167764     
     3424.85939      0.25042325     
     3428.63191      0.19695395     
     3432.40442      0.14189691     
     3436.17694      0.93648160E-001
     3439.94945      0.56616581E-001
     3443.72196      0.31354950E-001
     3447.49448      0.15906955E-001
     3451.26699      0.73924902E-002
     3455.03951      0.31475196E-002
     3458.81202      0.12294993E-002
     3462.58454      0.44792965E-003
     3466.35705      0.18046714E-003
     3470.12957      0.17484995E-003
     3473.90208      0.44220486E-003
     3477.67459      0.12900928E-002
     3481.44711      0.35270263E-002
     3485.21962      0.88513057E-002
     3488.99214      0.20355329E-001
     3492.76465      0.42894706E-001
     3496.53717      0.82842437E-001
     3500.30968      0.14667000     
     3504.08220      0.23814971     
     3507.85471      0.35486279     
     3511.62722      0.48574321     
     3515.39974      0.61172006     
     3519.17225      0.71039175     
     3522.94477      0.76332970     
     3526.71728      0.76257104     
     3530.48980      0.71285387     
     3534.26231      0.62853038     
     3538.03482      0.52723909     
     3541.80734      0.42399443     
     3545.57985      0.32835115     
     3549.35237      0.24483422     
     3553.12488      0.17494052     
     3556.89740      0.11885592     
     3560.66991      0.76122710E-001
     3564.44243      0.45598789E-001
     3568.21494      0.25385605E-001
     3571.98745      0.13073039E-001
     3575.75997      0.62070618E-002
     3579.53248      0.27110814E-002
     3583.30500      0.10876777E-002
     3587.07751      0.40043959E-003
     3590.85003      0.13520089E-003
     3594.62254      0.41845808E-004
     3598.39506      0.11869748E-004
     3602.16757      0.30851483E-005
     3605.94008      0.73469923E-006
     3609.71260      0.16029233E-006
     3613.48511      0.32038103E-007
     3617.25763      0.58662400E-008
     3621.03014      0.98397539E-009
     3624.80266      0.15119422E-009
     3628.57517      0.21281861E-010
     3632.34768      0.27441352E-011
     3636.12020      0.32413182E-012
     3639.89271      0.35071738E-013
     3643.66523      0.34762568E-014
     3647.43774      0.31563491E-015
     3651.21026      0.26252861E-016
     3654.98277      0.20002604E-017
     3658.75529      0.13960939E-018
     3662.52780      0.89260825E-020
     3666.30031      0.52278759E-021
     3670.07283      0.28048378E-022
     3673.84534      0.13785049E-023
     3677.61786      0.62062167E-025
     3681.39037      0.25595501E-026
     3685.16289      0.96698203E-028
     3688.93540      0.33465032E-029
     3692.70792      0.10609197E-030
     3696.48043      0.30853670E-032
     3700.25294      0.27684175E-033
     3704.02546      0.79606175E-032
     3707.79797      0.29773459E-030
     3711.57049      0.10203255E-028
     3715.34300      0.32030692E-027
     3719.11552      0.92111097E-026
     3722.88803      0.24264740E-024
     3726.66054      0.58554112E-023
     3730.43306      0.12943664E-021
     3734.20557      0.26210487E-020
     3737.97809      0.48619560E-019
     3741.75060      0.82616163E-018
     3745.52312      0.12859885E-016
     3749.29563      0.18336954E-015
     3753.06815      0.23951646E-014
     3756.84066      0.28659038E-013
     3760.61317      0.31412746E-012
     3764.38569      0.31540477E-011
     3768.15820      0.29010063E-010
     3771.93072      0.24442586E-009
     3775.70323      0.18865299E-008
     3779.47575      0.13338233E-007
     3783.24826      0.86387507E-007
     3787.02078      0.51253280E-006
     3790.79329      0.27855467E-005
     3794.56580      0.13868110E-004
     3798.33832      0.63247328E-004
     3802.11083      0.26423185E-003
     3805.88335      0.10112213E-002
     3809.65586      0.35450745E-002
     3813.42838      0.11384729E-001
     3817.20089      0.33491786E-001
     3820.97340      0.90255257E-001
     3824.74592      0.22280553     
     3828.51843      0.50384874     
     3832.29095       1.0437551     
     3836.06346       1.9807475     
     3839.83598       3.4435746     
     3843.60849       5.4850475     
     3847.38101       8.0063465     
     3851.15352       10.714764     
     3854.92603       13.161532     
     3858.69855       14.876450     
     3862.47106       15.560295     
     3866.24358       15.248425     
     3870.01609       14.356580     
     3873.78861       13.571130     
     3877.56112       13.621241     
     3881.33364       15.024909     
     3885.10615       17.908305     
     3888.87866       21.962117     
     3892.65118       26.541957     
     3896.42369       30.866092     
     3900.19621       34.232166     
     3903.96872       36.177170     
     3907.74124       36.539602     
     3911.51375       35.429695     
     3915.28626       33.146644     
     3919.05878       30.086381     
     3922.83129       26.665833     
     3926.60381       23.267557     
     3930.37632       20.197260     
     3934.14884       17.649430     
     3937.92135       15.685962     
     3941.69387       14.238300     
     3945.46638       13.139117     
     3949.23889       12.177732     
     3953.01141       11.163046     
     3956.78392       9.9749476     
     3960.55644       8.5901207     
     3964.32895       7.0771805     
     3968.10147       5.5655069     
     3971.87398       4.1997163     
     3975.64650       3.0952619     
     3979.41901       2.3087494     
     3983.19152       1.8300518     
     3986.96404       1.5952916     
     3990.73655       1.5134151     
     3994.50907       1.4959506     
     3998.28158       1.4797808     
     4002.05410       1.4362009     
     4005.82661       1.3654724     
     4009.59912       1.2823527     
     4013.37164       1.2013792     
     4017.14415       1.1289456     
     4020.91667       1.0636877     
     4024.68918       1.0013642     
     4028.46170      0.93888414     
     4032.23421      0.87474026     
     4036.00673      0.80703711     
     4039.77924      0.73221224     
     4043.55175      0.64632940     
     4047.32427      0.54810586     
     4051.09678      0.44117009     
     4054.86930      0.33365902     
     4058.64181      0.23531661     
     4062.41433      0.15392569     
     4066.18684      0.93040413E-001
     4069.95936      0.51838230E-001
     4073.73187      0.26577691E-001
     4077.50438      0.12525018E-001
     4081.27690      0.54211757E-002
     4085.04941      0.21538944E-002
     4088.82193      0.78523660E-003
     4092.59444      0.26260126E-003
     4096.36696      0.80541432E-004
     4100.13947      0.22651450E-004
     4103.91198      0.58407693E-005
     4107.68450      0.13806894E-005
     4111.45701      0.29918277E-006
     4115.22953      0.59423846E-007
     4119.00204      0.10817882E-007
     4122.77456      0.18049224E-008
     4126.54707      0.27598784E-009
     4130.31959      0.38674016E-010
     4134.09210      0.49662801E-011
