      450.48390       2.2200733     
      450.66390       2.1797223     
      450.84390       2.1400037     
      451.02390       2.1009132     
      451.20390       2.0624466     
      451.38390       2.0245995     
      451.56390       1.9873676     
      451.74390       1.9507465     
      451.92390       1.9147318     
      452.10390       1.8793190     
      452.28390       1.8445035     
      452.46390       1.8102808     
      452.64390       1.7766462     
      452.82390       1.7435950     
      453.00390       1.7111224     
      453.18390       1.6792235     
      453.36390       1.6478936     
      453.54390       1.6171275     
      453.72390       1.5869203     
      453.90390       1.5572669     
      454.08390       1.5281620     
      454.26390       1.4996005     
      454.44390       1.4715770     
      454.62390       1.4440861     
      454.80390       1.4171223     
      454.98390       1.3906802     
      455.16390       1.3647541     
      455.34390       1.3393383     
      455.52390       1.3144272     
      455.70390       1.2900149     
      455.88390       1.2660955     
      456.06390       1.2426632     
      456.24390       1.2197118     
      456.42390       1.1972354     
      456.60390       1.1752279     
      456.78390       1.1536829     
      456.96390       1.1325945     
      457.14390       1.1119561     
      457.32390       1.0917616     
      457.50390       1.0720045     
      457.68390       1.0526784     
      457.86390       1.0337768     
      458.04390       1.0152933     
      458.22390      0.99722121     
      458.40390      0.97955406     
      458.58390      0.96228522     
      458.76390      0.94540804     
      458.94390      0.92891588     
      459.12390      0.91280206     
      459.30390      0.89705988     
      459.48390      0.88168264     
      459.66390      0.86666362     
      459.84390      0.85199610     
      460.02390      0.83767336     
      460.20390      0.82368866     
      460.38390      0.81003530     
      460.56390      0.79670656     
      460.74390      0.78369574     
      460.92390      0.77099615     
      461.10390      0.75860113     
      461.28390      0.74650404     
      461.46390      0.73469826     
      461.64390      0.72317720     
      461.82390      0.71193430     
      462.00390      0.70096305     
      462.18390      0.69025696     
      462.36390      0.67980960     
      462.54390      0.66961457     
      462.72390      0.65966554     
      462.90390      0.64995620     
      463.08390      0.64048034     
      463.26390      0.63123177     
      463.44390      0.62220437     
      463.62390      0.61339210     
      463.80390      0.60478896     
      463.98390      0.59638905     
      464.16390      0.58818653     
      464.34390      0.58017561     
      464.52390      0.57235061     
      464.70390      0.56470592     
      464.88390      0.55723601     
      465.06390      0.54993542     
      465.24390      0.54279879     
      465.42390      0.53582085     
      465.60390      0.52899641     
      465.78390      0.52232038     
      465.96390      0.51578774     
      466.14390      0.50939359     
      466.32390      0.50313311     
      466.50390      0.49700159     
      466.68390      0.49099440     
      466.86390      0.48510702     
      467.04390      0.47933502     
      467.22390      0.47367408     
      467.40390      0.46811998     
      467.58390      0.46266859     
      467.76390      0.45731589     
      467.94390      0.45205798     
      468.12390      0.44689103     
      468.30390      0.44181132     
      468.48390      0.43681527     
      468.66390      0.43189934     
      468.84390      0.42706015     
      469.02390      0.42229440     
      469.20390      0.41759888     
      469.38390      0.41297050     
      469.56390      0.40840626     
      469.74390      0.40390328     
      469.92390      0.39945875     
      470.10390      0.39506999     
      470.28390      0.39073440     
      470.46390      0.38644949     
      470.64390      0.38221285     
      470.82390      0.37802219     
      471.00390      0.37387529     
      471.18390      0.36977004     
      471.36390      0.36570442     
      471.54390      0.36167649     
      471.72390      0.35768442     
      471.90390      0.35372646     
      472.08390      0.34980093     
      472.26390      0.34590627     
      472.44390      0.34204096     
      472.62390      0.33820361     
      472.80390      0.33439288     
      472.98390      0.33060752     
      473.16390      0.32684635     
      473.34390      0.32310827     
      473.52390      0.31939225     
      473.70390      0.31569735     
      473.88390      0.31202267     
      474.06390      0.30836740     
      474.24390      0.30473080     
      474.42390      0.30111218     
      474.60390      0.29751092     
      474.78390      0.29392646     
      474.96390      0.29035829     
      475.14390      0.28680598     
      475.32390      0.28326913     
      475.50390      0.27974741     
      475.68390      0.27624052     
      475.86390      0.27274825     
      476.04390      0.26927039     
      476.22390      0.26580681     
      476.40390      0.26235739     
      476.58390      0.25892210     
      476.76390      0.25550090     
      476.94390      0.25209382     
      477.12390      0.24870090     
      477.30390      0.24532225     
      477.48390      0.24195798     
      477.66390      0.23860823     
      477.84390      0.23527320     
      478.02390      0.23195309     
      478.20390      0.22864813     
      478.38390      0.22535858     
      478.56390      0.22208470     
      478.74390      0.21882681     
      478.92390      0.21558522     
      479.10390      0.21236026     
      479.28390      0.20915228     
      479.46390      0.20596163     
      479.64390      0.20278871     
      479.82390      0.19963388     
      480.00390      0.19649755     
      480.18390      0.19338012     
      480.36390      0.19028200     
      480.54390      0.18720360     
      480.72390      0.18414536     
      480.90390      0.18110768     
      481.08390      0.17809100     
      481.26390      0.17509574     
      481.44390      0.17212233     
      481.62390      0.16917120     
      481.80390      0.16624276     
      481.98390      0.16333745     
      482.16390      0.16045566     
      482.34390      0.15759782     
      482.52390      0.15476433     
      482.70390      0.15195558     
      482.88390      0.14917197     
      483.06390      0.14641389     
      483.24390      0.14368170     
      483.42390      0.14097578     
      483.60390      0.13829647     
      483.78390      0.13564412     
      483.96390      0.13301907     
      484.14390      0.13042163     
      484.32390      0.12785213     
      484.50390      0.12531085     
      484.68390      0.12279808     
      484.86390      0.12031410     
      485.04390      0.11785916     
      485.22390      0.11543352     
      485.40390      0.11303739     
      485.58390      0.11067101     
      485.76390      0.10833457     
      485.94390      0.10602826     
      486.12390      0.10375227     
      486.30390      0.10150674     
      486.48390      0.99291838E-001
      486.66390      0.97107683E-001
      486.84390      0.94954398E-001
      487.02390      0.92832086E-001
      487.20390      0.90740836E-001
      487.38390      0.88680724E-001
      487.56390      0.86651811E-001
      487.74390      0.84654144E-001
      487.92390      0.82687758E-001
      488.10390      0.80752673E-001
      488.28390      0.78848895E-001
      488.46390      0.76976418E-001
      488.64390      0.75135224E-001
      488.82390      0.73325280E-001
      489.00390      0.71546543E-001
      489.18390      0.69798957E-001
      489.36390      0.68082454E-001
      489.54390      0.66396956E-001
      489.72390      0.64742373E-001
      489.90390      0.63118603E-001
      490.08390      0.61525537E-001
      490.26390      0.59963053E-001
      490.44390      0.58431022E-001
      490.62390      0.56929303E-001
      490.80390      0.55457750E-001
      490.98390      0.54016205E-001
      491.16390      0.52604504E-001
      491.34390      0.51222477E-001
      491.52390      0.49869944E-001
      491.70390      0.48546720E-001
      491.88390      0.47252615E-001
      492.06390      0.45987431E-001
      492.24390      0.44750967E-001
      492.42390      0.43543015E-001
      492.60390      0.42363365E-001
      492.78390      0.41211802E-001
      492.96390      0.40088109E-001
      493.14390      0.38992063E-001
      493.32390      0.37923443E-001
      493.50390      0.36882022E-001
      493.68390      0.35867574E-001
      493.86390      0.34879872E-001
      494.04390      0.33918687E-001
      494.22390      0.32983791E-001
      494.40390      0.32074957E-001
      494.58390      0.31191956E-001
      494.76390      0.30334564E-001
      494.94390      0.29502557E-001
      495.12390      0.28695713E-001
      495.30390      0.27913812E-001
      495.48390      0.27156640E-001
      495.66390      0.26423984E-001
      495.84390      0.25715634E-001
      496.02390      0.25031388E-001
      496.20390      0.24371045E-001
      496.38390      0.23734412E-001
      496.56390      0.23121300E-001
      496.74390      0.22531528E-001
      496.92390      0.21964918E-001
      497.10390      0.21421301E-001
      497.28390      0.20900516E-001
      497.46390      0.20402409E-001
      497.64390      0.19926832E-001
      497.82390      0.19473647E-001
      498.00390      0.19042725E-001
      498.18390      0.18633945E-001
      498.36390      0.18247196E-001
      498.54390      0.17882376E-001
      498.72390      0.17539394E-001
      498.90390      0.17218167E-001
      499.08390      0.16918627E-001
      499.26390      0.16640711E-001
      499.44390      0.16384373E-001
      499.62390      0.16149574E-001
      499.80390      0.15936289E-001
      499.98390      0.15744505E-001
      500.16390      0.15574220E-001
      500.34390      0.15425446E-001
      500.52390      0.15298206E-001
      500.70390      0.15192537E-001
      500.88390      0.15108490E-001
      501.06390      0.15046128E-001
      501.24390      0.15005528E-001
      501.42390      0.14986780E-001
      501.60390      0.14989990E-001
      501.78390      0.15015276E-001
      501.96390      0.15062770E-001
      502.14390      0.15132621E-001
      502.32390      0.15224991E-001
      502.50390      0.15340055E-001
      502.68390      0.15478005E-001
      502.86390      0.15639047E-001
      503.04390      0.15823402E-001
      503.22390      0.16031307E-001
      503.40390      0.16263011E-001
      503.58390      0.16518781E-001
      503.76390      0.16798899E-001
      503.94390      0.17103661E-001
      504.12390      0.17433378E-001
      504.30390      0.17788377E-001
      504.48390      0.18169000E-001
      504.66390      0.18575604E-001
      504.84390      0.19008561E-001
      505.02390      0.19468258E-001
      505.20390      0.19955096E-001
      505.38390      0.20469493E-001
      505.56390      0.21011880E-001
      505.74390      0.21582703E-001
      505.92390      0.22182422E-001
      506.10390      0.22811513E-001
      506.28390      0.23470463E-001
      506.46390      0.24159777E-001
      506.64390      0.24879969E-001
      506.82390      0.25631571E-001
      507.00390      0.26415126E-001
      507.18390      0.27231189E-001
      507.36390      0.28080330E-001
      507.54390      0.28963131E-001
      507.72390      0.29880184E-001
      507.90390      0.30832095E-001
      508.08390      0.31819481E-001
      508.26390      0.32842970E-001
      508.44390      0.33903199E-001
      508.62390      0.35000817E-001
      508.80390      0.36136483E-001
      508.98390      0.37310865E-001
      509.16390      0.38524639E-001
      509.34390      0.39778491E-001
      509.52390      0.41073112E-001
      509.70390      0.42409204E-001
      509.88390      0.43787473E-001
      510.06390      0.45208633E-001
      510.24390      0.46673403E-001
      510.42390      0.48182505E-001
      510.60390      0.49736669E-001
      510.78390      0.51336627E-001
      510.96390      0.52983112E-001
      511.14390      0.54676863E-001
      511.32390      0.56418618E-001
      511.50390      0.58209117E-001
      511.68390      0.60049099E-001
      511.86390      0.61939304E-001
      512.04390      0.63880468E-001
      512.22390      0.65873327E-001
      512.40390      0.67918612E-001
      512.58390      0.70017053E-001
      512.76390      0.72169371E-001
      512.94390      0.74376283E-001
      513.12390      0.76638501E-001
      513.30390      0.78956727E-001
      513.48390      0.81331655E-001
      513.66390      0.83763969E-001
      513.84390      0.86254344E-001
      514.02390      0.88803441E-001
      514.20390      0.91411912E-001
      514.38390      0.94080391E-001
      514.56390      0.96809500E-001
      514.74390      0.99599846E-001
      514.92390      0.10245202     
      515.10390      0.10536658     
      515.28390      0.10834410     
      515.46390      0.11138510     
      515.64390      0.11449009     
      515.82390      0.11765956     
      516.00390      0.12089398     
      516.18390      0.12419379     
      516.36390      0.12755940     
      516.54390      0.13099120     
      516.72390      0.13448956     
      516.90390      0.13805481     
      517.08390      0.14168724     
      517.26390      0.14538714     
      517.44390      0.14915473     
      517.62390      0.15299023     
      517.80390      0.15689381     
      517.98390      0.16086560     
      518.16390      0.16490570     
      518.34390      0.16901417     
      518.52390      0.17319103     
      518.70390      0.17743628     
      518.88390      0.18174984     
      519.06390      0.18613162     
      519.24390      0.19058148     
      519.42390      0.19509924     
      519.60390      0.19968465     
      519.78390      0.20433744     
      519.96390      0.20905730     
      520.14390      0.21384385     
      520.32390      0.21869667     
      520.50390      0.22361529     
      520.68390      0.22859920     
      520.86390      0.23364783     
      521.04390      0.23876057     
      521.22390      0.24393673     
      521.40390      0.24917560     
      521.58390      0.25447640     
      521.76390      0.25983830     
      521.94390      0.26526042     
      522.12390      0.27074182     
      522.30390      0.27628150     
      522.48390      0.28187842     
      522.66390      0.28753148     
      522.84390      0.29323951     
      523.02390      0.29900129     
      523.20390      0.30481556     
      523.38390      0.31068099     
      523.56390      0.31659619     
      523.74390      0.32255972     
      523.92390      0.32857009     
      524.10390      0.33462573     
      524.28390      0.34072505     
      524.46390      0.34686637     
      524.64390      0.35304798     
      524.82390      0.35926810     
      525.00390      0.36552490     
      525.18390      0.37181649     
      525.36390      0.37814095     
      525.54390      0.38449627     
      525.72390      0.39088042     
      525.90390      0.39729131     
      526.08390      0.40372679     
      526.26390      0.41018466     
      526.44390      0.41666268     
      526.62390      0.42315857     
      526.80390      0.42966998     
      526.98390      0.43619453     
      527.16390      0.44272981     
      527.34390      0.44927333     
      527.52390      0.45582259     
      527.70390      0.46237503     
      527.88390      0.46892807     
      528.06390      0.47547907     
      528.24390      0.48202538     
      528.42390      0.48856430     
      528.60390      0.49509310     
      528.78390      0.50160901     
      528.96390      0.50810926     
      529.14390      0.51459102     
      529.32390      0.52105145     
      529.50390      0.52748769     
      529.68390      0.53389685     
      529.86390      0.54027604     
      530.04390      0.54662232     
      530.22390      0.55293277     
      530.40390      0.55920444     
      530.58390      0.56543436     
      530.76390      0.57161958     
      530.94390      0.57775711     
      531.12390      0.58384399     
      531.30390      0.58987724     
      531.48390      0.59585387     
      531.66390      0.60177093     
      531.84390      0.60762544     
      532.02390      0.61341445     
      532.20390      0.61913500     
      532.38390      0.62478418     
      532.56390      0.63035905     
      532.74390      0.63585672     
      532.92390      0.64127432     
      533.10390      0.64660899     
      533.28390      0.65185789     
      533.46390      0.65701824     
      533.64390      0.66208725     
      533.82390      0.66706220     
      534.00390      0.67194038     
      534.18390      0.67671914     
      534.36390      0.68139584     
      534.54390      0.68596792     
      534.72390      0.69043283     
      534.90390      0.69478809     
      535.08390      0.69903127     
      535.26390      0.70315998     
      535.44390      0.70717190     
      535.62390      0.71106474     
      535.80390      0.71483630     
      535.98390      0.71848442     
      536.16390      0.72200701     
      536.34390      0.72540206     
      536.52390      0.72866759     
      536.70390      0.73180172     
      536.88390      0.73480263     
      537.06390      0.73766857     
      537.24390      0.74039788     
      537.42390      0.74298895     
      537.60390      0.74544026     
      537.78390      0.74775038     
      537.96390      0.74991793     
      538.14390      0.75194165     
      538.32390      0.75382033     
      538.50390      0.75555286     
      538.68390      0.75713822     
      538.86390      0.75857545     
      539.04390      0.75986371     
      539.22390      0.76100223     
      539.40390      0.76199032     
      539.58390      0.76282740     
      539.76390      0.76351297     
      539.94390      0.76404662     
      540.12390      0.76442802     
      540.30390      0.76465695     
      540.48390      0.76473328     
      540.66390      0.76465695     
      540.84390      0.76442801     
      541.02390      0.76404661     
      541.20390      0.76351296     
      541.38390      0.76282739     
      541.56390      0.76199030     
      541.74390      0.76100221     
      541.92390      0.75986369     
      542.10390      0.75857543     
      542.28390      0.75713819     
      542.46390      0.75555283     
      542.64390      0.75382029     
      542.82390      0.75194161     
      543.00390      0.74991788     
      543.18390      0.74775032     
      543.36390      0.74544020     
      543.54390      0.74298889     
      543.72390      0.74039781     
      543.90390      0.73766850     
      544.08390      0.73480255     
      544.26390      0.73180163     
      544.44390      0.72866749     
      544.62390      0.72540195     
      544.80390      0.72200690     
      544.98390      0.71848430     
      545.16390      0.71483616     
      545.34390      0.71106460     
      545.52390      0.70717174     
      545.70390      0.70315981     
      545.88390      0.69903109     
      546.06390      0.69478790     
      546.24390      0.69043262     
      546.42390      0.68596769     
      546.60390      0.68139560     
      546.78390      0.67671887     
      546.96390      0.67194010     
      547.14390      0.66706189     
      547.32390      0.66208692     
      547.50390      0.65701788     
      547.68390      0.65185750     
      547.86390      0.64660857     
      548.04390      0.64127387     
      548.22390      0.63585624     
      548.40390      0.63035853     
      548.58390      0.62478362     
      548.76390      0.61913440     
      548.94390      0.61341380     
      549.12390      0.60762474     
      549.30390      0.60177018     
      549.48390      0.59585307     
      549.66390      0.58987637     
      549.84390      0.58384306     
      550.02390      0.57775611     
      550.20390      0.57161850     
      550.38390      0.56543321     
      550.56390      0.55920320     
      550.74390      0.55293145     
      550.92390      0.54662090     
      551.10390      0.54027451     
      551.28390      0.53389522     
      551.46390      0.52748593     
      551.64390      0.52104957     
      551.82390      0.51458900     
      552.00390      0.50810710     
      552.18390      0.50160670     
      552.36390      0.49509062     
      552.54390      0.48856165     
      552.72390      0.48202254     
      552.90390      0.47547603     
      553.08390      0.46892481     
      553.26390      0.46237155     
      553.44390      0.45581886     
      553.62390      0.44926934     
      553.80390      0.44272555     
      553.98390      0.43618998     
      554.16390      0.42966511     
      554.34390      0.42315336     
      554.52390      0.41665712     
      554.70390      0.41017871     
      554.88390      0.40372044     
      555.06390      0.39728453     
      555.24390      0.39087319     
      555.42390      0.38448855     
      555.60390      0.37813270     
      555.78390      0.37180769     
      555.96390      0.36551551     
      556.14390      0.35925808     
      556.32390      0.35303730     
      556.50390      0.34685499     
      556.68390      0.34071291     
      556.86390      0.33461280     
      557.04390      0.32855630     
      557.22390      0.32254504     
      557.40390      0.31658055     
      557.58390      0.31066433     
      557.76390      0.30479783     
      557.94390      0.29898241     
      558.12390      0.29321941     
      558.30390      0.28751010     
      558.48390      0.28185568     
      558.66390      0.27625731     
      558.84390      0.27071609     
      559.02390      0.26523306     
      559.20390      0.25980922     
      559.38390      0.25444549     
      559.56390      0.24914275     
      559.74390      0.24390184     
      559.92390      0.23872350     
      560.10390      0.23360848     
      560.28390      0.22855741     
      560.46390      0.22357093     
      560.64390      0.21864959     
      560.82390      0.21379389     
      561.00390      0.20900430     
      561.18390      0.20428123     
      561.36390      0.19962503     
      561.54390      0.19503602     
      561.72390      0.19051448     
      561.90390      0.18606060     
      562.08390      0.18167459     
      562.26390      0.17735655     
      562.44390      0.17310659     
      562.62390      0.16892474     
      562.80390      0.16481101     
      562.98390      0.16076536     
      563.16390      0.15678773     
      563.34390      0.15287798     
      563.52390      0.14903598     
      563.70390      0.14526152     
      563.88390      0.14155440     
      564.06390      0.13791435     
      564.24390      0.13434109     
      564.42390      0.13083428     
      564.60390      0.12739358     
      564.78390      0.12401861     
      564.96390      0.12070895     
      565.14390      0.11746416     
      565.32390      0.11428378     
      565.50390      0.11116731     
      565.68390      0.10811424     
      565.86390      0.10512404     
      566.04390      0.10219613     
      566.22390      0.99329945E-001
      566.40390      0.96524871E-001
      566.58390      0.93780288E-001
      566.76390      0.91095559E-001
      566.94390      0.88470024E-001
      567.12390      0.85903012E-001
      567.30390      0.83393834E-001
      567.48390      0.80941788E-001
      567.66390      0.78546158E-001
      567.84390      0.76206218E-001
      568.02390      0.73921228E-001
      568.20390      0.71690438E-001
      568.38390      0.69513092E-001
      568.56390      0.67388421E-001
      568.74390      0.65315650E-001
      568.92390      0.63293999E-001
      569.10390      0.61322679E-001
      569.28390      0.59400897E-001
      569.46390      0.57527856E-001
      569.64390      0.55702756E-001
      569.82390      0.53924792E-001
      570.00390      0.52193159E-001
      570.18390      0.50507048E-001
      570.36390      0.48865651E-001
      570.54390      0.47268160E-001
      570.72390      0.45713767E-001
      570.90390      0.44201665E-001
      571.08390      0.42731048E-001
      571.26390      0.41301115E-001
      571.44390      0.39911063E-001
      571.62390      0.38560098E-001
      571.80390      0.37247426E-001
      571.98390      0.35972258E-001
      572.16390      0.34733811E-001
      572.34390      0.33531307E-001
      572.52390      0.32363973E-001
      572.70390      0.31231042E-001
      572.88390      0.30131755E-001
      573.06390      0.29065359E-001
      573.24390      0.28031107E-001
      573.42390      0.27028261E-001
      573.60390      0.26056092E-001
      573.78390      0.25113876E-001
      573.96390      0.24200900E-001
      574.14390      0.23316459E-001
      574.32390      0.22459857E-001
      574.50390      0.21630406E-001
      574.68390      0.20827428E-001
      574.86390      0.20050257E-001
      575.04390      0.19298232E-001
      575.22390      0.18570707E-001
      575.40390      0.17867041E-001
      575.58390      0.17186607E-001
      575.76390      0.16528785E-001
      575.94390      0.15892970E-001
      576.12390      0.15278561E-001
      576.30390      0.14684974E-001
      576.48390      0.14111631E-001
      576.66390      0.13557966E-001
      576.84390      0.13023423E-001
      577.02390      0.12507459E-001
      577.20390      0.12009539E-001
      577.38390      0.11529139E-001
      577.56390      0.11065746E-001
      577.74390      0.10618859E-001
      577.92390      0.10187985E-001
      578.10390      0.97726431E-002
      578.28390      0.93723629E-002
      578.46390      0.89866836E-002
      578.64390      0.86151553E-002
      578.82390      0.82573383E-002
      579.00390      0.79128028E-002
      579.18390      0.75811295E-002
      579.36390      0.72619088E-002
      579.54390      0.69547411E-002
      579.72390      0.66592366E-002
      579.90390      0.63750153E-002
      580.08390      0.61017066E-002
      580.26390      0.58389494E-002
      580.44390      0.55863920E-002
      580.62390      0.53436918E-002
      580.80390      0.51105155E-002
      580.98390      0.48865383E-002
      581.16390      0.46714448E-002
      581.34390      0.44649277E-002
      581.52390      0.42666886E-002
      581.70390      0.40764373E-002
      581.88390      0.38938918E-002
      582.06390      0.37187785E-002
      582.24390      0.35508313E-002
      582.42390      0.33897921E-002
      582.60390      0.32354106E-002
      582.78390      0.30874437E-002
      582.96390      0.29456557E-002
      583.14390      0.28098182E-002
      583.32390      0.26797099E-002
      583.50390      0.25551160E-002
      583.68390      0.24358289E-002
      583.86390      0.23216473E-002
      584.04390      0.22123763E-002
      584.22390      0.21078275E-002
      584.40390      0.20078184E-002
      584.58390      0.19121727E-002
      584.76390      0.18207197E-002
      584.94390      0.17332945E-002
      585.12390      0.16497379E-002
      585.30390      0.15698958E-002
      585.48390      0.14936196E-002
      585.66390      0.14207659E-002
      585.84390      0.13511959E-002
      586.02390      0.12847760E-002
      586.20390      0.12213772E-002
      586.38390      0.11608751E-002
      586.56390      0.11031499E-002
      586.74390      0.10480858E-002
      586.92390      0.99557148E-003
      587.10390      0.94549964E-003
      587.28390      0.89776690E-003
      587.46390      0.85227375E-003
      587.64390      0.80892442E-003
      587.82390      0.76762671E-003
      588.00390      0.72829195E-003
      588.18390      0.69083487E-003
      588.36390      0.65517345E-003
      588.54390      0.62122888E-003
      588.72390      0.58892540E-003
      588.90390      0.55819024E-003
      589.08390      0.52895350E-003
      589.26390      0.50114806E-003
      589.44390      0.47470949E-003
      589.62390      0.44957596E-003
      589.80390      0.42568814E-003
      589.98390      0.40298912E-003
      590.16390      0.38142434E-003
      590.34390      0.36094147E-003
      590.52390      0.34149037E-003
      590.70390      0.32302300E-003
      590.88390      0.30549334E-003
      591.06390      0.28885729E-003
      591.24390      0.27307266E-003
      591.42390      0.25809906E-003
      591.60390      0.24389783E-003
      591.78390      0.23043197E-003
      591.96390      0.21766613E-003
      592.14390      0.20556646E-003
      592.32390      0.19410064E-003
      592.50390      0.18323777E-003
      592.68390      0.17294831E-003
      592.86390      0.16320406E-003
      593.04390      0.15397807E-003
      593.22390      0.14524464E-003
      593.40390      0.13697921E-003
      593.58390      0.12915835E-003
      593.76390      0.12175972E-003
      593.94390      0.11476199E-003
      594.12390      0.10814485E-003
      594.30390      0.10188890E-003
      594.48390      0.95975688E-004
      594.66390      0.90387608E-004
      594.84390      0.85107897E-004
      595.02390      0.80120588E-004
      595.20390      0.75410478E-004
      595.38390      0.70963098E-004
      595.56390      0.66764676E-004
      595.74390      0.62802109E-004
      595.92390      0.59062933E-004
      596.10390      0.55535297E-004
      596.28390      0.52207932E-004
      596.46390      0.49070127E-004
      596.64390      0.46111705E-004
      596.82390      0.43322996E-004
      597.00390      0.40694815E-004
      597.18390      0.38218443E-004
      597.36390      0.35885599E-004
      597.54390      0.33688425E-004
      597.72390      0.31619466E-004
      597.90390      0.29671647E-004
      598.08390      0.27838259E-004
      598.26390      0.26112942E-004
      598.44390      0.24489664E-004
      598.62390      0.22962711E-004
      598.80390      0.21526668E-004
      598.98390      0.20176403E-004
      599.16390      0.18907059E-004
      599.34390      0.17714037E-004
      599.52390      0.16592980E-004
      599.70390      0.15539768E-004
      599.88390      0.14550503E-004
      600.06390      0.13621495E-004
      600.24390      0.12749255E-004
      600.42390      0.11930488E-004
      600.60390      0.11162073E-004
      600.78390      0.10441066E-004
      600.96390      0.97646822E-005
      601.14390      0.91302926E-005
      601.32390      0.85354138E-005
      601.50390      0.79777012E-005
      601.68390      0.74549418E-005
      601.86390      0.69650470E-005
      602.04390      0.65060463E-005
      602.22390      0.60760810E-005
      602.40390      0.56733981E-005
      602.58390      0.52963450E-005
      602.76390      0.49433638E-005
      602.94390      0.46129866E-005
      603.12390      0.43038300E-005
      603.30390      0.40145912E-005
      603.48390      0.37440432E-005
      603.66390      0.34910308E-005
      603.84390      0.32544666E-005
      604.02390      0.30333271E-005
      604.20390      0.28266497E-005
      604.38390      0.26335285E-005
      604.56390      0.24531120E-005
      604.74390      0.22845992E-005
      604.92390      0.21272375E-005
      605.10390      0.19803193E-005
      605.28390      0.18431802E-005
      605.46390      0.17151956E-005
      605.64390      0.15957793E-005
      605.82390      0.14843806E-005
      606.00390      0.13804830E-005
      606.18390      0.12836012E-005
      606.36390      0.11932804E-005
      606.54390      0.11090936E-005
      606.72390      0.10306404E-005
      606.90390      0.95754560E-006
      607.08390      0.88945720E-006
      607.26390      0.82604547E-006
      607.44390      0.76700139E-006
      607.62390      0.71203551E-006
      607.80390      0.66087673E-006
      607.98390      0.61327119E-006
      608.16390      0.56898128E-006
      608.34390      0.52778458E-006
      608.52390      0.48947297E-006
      608.70390      0.45385177E-006
      608.88390      0.42073889E-006
      609.06390      0.38996407E-006
      609.24390      0.36136811E-006
      609.42390      0.33480224E-006
      609.60390      0.31012744E-006
      609.78390      0.28721382E-006
      609.96390      0.26594007E-006
      610.14390      0.24619291E-006
      610.32390      0.22786656E-006
      610.50390      0.21086230E-006
      610.68390      0.19508802E-006
      610.86390      0.18045776E-006
      611.04390      0.16689135E-006
      611.22390      0.15431403E-006
      611.40390      0.14265608E-006
      611.58390      0.13185252E-006
      611.76390      0.12184282E-006
      611.94390      0.11257053E-006
      612.12390      0.10398311E-006
      612.30390      0.96031605E-007
      612.48390      0.88670443E-007
      612.66390      0.81857198E-007
      612.84390      0.75552384E-007
      613.02390      0.69719261E-007
      613.20390      0.64323650E-007
      613.38390      0.59333763E-007
      613.56390      0.54720040E-007
      613.74390      0.50455001E-007
      613.92390      0.46513106E-007
      614.10390      0.42870620E-007
      614.28390      0.39505494E-007
      614.46390      0.36397246E-007
      614.64390      0.33526858E-007
      614.82390      0.30876672E-007
      615.00390      0.28430299E-007
      615.18390      0.26172528E-007
      615.36390      0.24089247E-007
      615.54390      0.22167365E-007
      615.72390      0.20394742E-007
      615.90390      0.18760123E-007
      616.08390      0.17253072E-007
      616.26390      0.15863920E-007
      616.44390      0.14583705E-007
      616.62390      0.13404127E-007
      616.80390      0.12317498E-007
      616.98390      0.11316700E-007
      617.16390      0.10395141E-007
      617.34390      0.95467215E-008
      617.52390      0.87657977E-008
      617.70390      0.80471470E-008
      617.88390      0.73859392E-008
      618.06390      0.67777075E-008
      618.24390      0.62183222E-008
      618.42390      0.57039660E-008
      618.60390      0.52311110E-008
      618.78390      0.47964977E-008
      618.96390      0.43971154E-008
      619.14390      0.40301831E-008
      619.32390      0.36931334E-008
      619.50390      0.33835961E-008
      619.68390      0.30993837E-008
      619.86390      0.28384776E-008
      620.04390      0.25990158E-008
      620.22390      0.23792805E-008
      620.40390      0.21776882E-008
      620.58390      0.19927785E-008
      620.76390      0.18232057E-008
      620.94390      0.16677296E-008
      621.12390      0.15252073E-008
      621.30390      0.13945865E-008
      621.48390      0.12748976E-008
      621.66390      0.11652483E-008
      621.84390      0.10648169E-008
      622.02390      0.97284737E-009
      622.20390      0.88864394E-009
      622.38390      0.81156659E-009
      622.56390      0.74102667E-009
      622.74390      0.67648290E-009
      622.92390      0.61743766E-009
      623.10390      0.56343355E-009
      623.28390      0.51405028E-009
      623.46390      0.46890169E-009
      623.64390      0.42763308E-009
      623.82390      0.38991873E-009
      624.00390      0.35545957E-009
      624.18390      0.32398106E-009
      624.36390      0.29523126E-009
      624.54390      0.26897899E-009
      624.72390      0.24501218E-009
      624.90390      0.22313634E-009
      625.08390      0.20317311E-009
      625.26390      0.18495900E-009
      625.44390      0.16834414E-009
      625.62390      0.15319121E-009
      625.80390      0.13937439E-009
      625.98390      0.12677844E-009
      626.16390      0.11529784E-009
      626.34390      0.10483595E-009
      626.52390      0.95304317E-010
      626.70390      0.86622005E-010
      626.88390      0.78714945E-010
      627.06390      0.71515381E-010
      627.24390      0.64961348E-010
      627.42390      0.58996181E-010
      627.60390      0.53568079E-010
      627.78390      0.48629696E-010
      627.96390      0.44137765E-010
      628.14390      0.40052757E-010
      628.32390      0.36338568E-010
      628.50390      0.32962224E-010
      628.68390      0.29893619E-010
      628.86390      0.27105274E-010
      629.04390      0.24572107E-010
      629.22390      0.22271235E-010
      629.40390      0.20181782E-010
      629.58390      0.18284708E-010
      629.76390      0.16562651E-010
      629.94390      0.14999782E-010
      630.12390      0.13581676E-010
      630.30390      0.12295186E-010
      630.48390      0.11128334E-010
