      426.45720       4.0552787     
      426.63720       4.0134755     
      426.81720       3.9716778     
      426.99720       3.9299037     
      427.17720       3.8881709     
      427.35720       3.8464971     
      427.53720       3.8048994     
      427.71720       3.7633947     
      427.89720       3.7219995     
      428.07720       3.6807299     
      428.25720       3.6396018     
      428.43720       3.5986304     
      428.61720       3.5578307     
      428.79720       3.5172175     
      428.97720       3.4768048     
      429.15720       3.4366065     
      429.33720       3.3966359     
      429.51720       3.3569059     
      429.69720       3.3174291     
      429.87720       3.2782175     
      430.05720       3.2392827     
      430.23720       3.2006359     
      430.41720       3.1622878     
      430.59720       3.1242488     
      430.77720       3.0865285     
      430.95720       3.0491365     
      431.13720       3.0120816     
      431.31720       2.9753722     
      431.49720       2.9390164     
      431.67720       2.9030217     
      431.85720       2.8673952     
      432.03720       2.8321435     
      432.21720       2.7972728     
      432.39720       2.7627887     
      432.57720       2.7286967     
      432.75720       2.6950015     
      432.93720       2.6617075     
      433.11720       2.6288186     
      433.29720       2.5963385     
      433.47720       2.5642702     
      433.65720       2.5326163     
      433.83720       2.5013792     
      434.01720       2.4705607     
      434.19720       2.4401623     
      434.37720       2.4101850     
      434.55720       2.3806294     
      434.73720       2.3514960     
      434.91720       2.3227846     
      435.09720       2.2944947     
      435.27720       2.2666256     
      435.45720       2.2391762     
      435.63720       2.2121448     
      435.81720       2.1855299     
      435.99720       2.1593291     
      436.17720       2.1335401     
      436.35720       2.1081601     
      436.53720       2.0831862     
      436.71720       2.0586150     
      436.89720       2.0344429     
      437.07720       2.0106661     
      437.25720       1.9872805     
      437.43720       1.9642819     
      437.61720       1.9416657     
      437.79720       1.9194270     
      437.97720       1.8975610     
      438.15720       1.8760626     
      438.33720       1.8549263     
      438.51720       1.8341466     
      438.69720       1.8137180     
      438.87720       1.7936344     
      439.05720       1.7738901     
      439.23720       1.7544789     
      439.41720       1.7353946     
      439.59720       1.7166308     
      439.77720       1.6981812     
      439.95720       1.6800392     
      440.13720       1.6621983     
      440.31720       1.6446518     
      440.49720       1.6273930     
      440.67720       1.6104151     
      440.85720       1.5937114     
      441.03720       1.5772750     
      441.21720       1.5610990     
      441.39720       1.5451767     
      441.57720       1.5295012     
      441.75720       1.5140655     
      441.93720       1.4988630     
      442.11720       1.4838867     
      442.29720       1.4691300     
      442.47720       1.4545860     
      442.65720       1.4402480     
      442.83720       1.4261095     
      443.01720       1.4121639     
      443.19720       1.3984046     
      443.37720       1.3848252     
      443.55720       1.3714194     
      443.73720       1.3581809     
      443.91720       1.3451036     
      444.09720       1.3321813     
      444.27720       1.3194081     
      444.45720       1.3067782     
      444.63720       1.2942857     
      444.81720       1.2819251     
      444.99720       1.2696908     
      445.17720       1.2575776     
      445.35720       1.2455800     
      445.53720       1.2336931     
      445.71720       1.2219117     
      445.89720       1.2102312     
      446.07720       1.1986467     
      446.25720       1.1871537     
      446.43720       1.1757478     
      446.61720       1.1644247     
      446.79720       1.1531804     
      446.97720       1.1420108     
      447.15720       1.1309121     
      447.33720       1.1198807     
      447.51720       1.1089130     
      447.69720       1.0980057     
      447.87720       1.0871556     
      448.05720       1.0763596     
      448.23720       1.0656148     
      448.41720       1.0549185     
      448.59720       1.0442681     
      448.77720       1.0336611     
      448.95720       1.0230952     
      449.13720       1.0125683     
      449.31720       1.0020784     
      449.49720      0.99162355     
      449.67720      0.98120213     
      449.85720      0.97081253     
      450.03720      0.96045332     
      450.21720      0.95012318     
      450.39720      0.93982097     
      450.57720      0.92954564     
      450.75720      0.91929628     
      450.93720      0.90907213     
      451.11720      0.89887251     
      451.29720      0.88869691     
      451.47720      0.87854489     
      451.65720      0.86841616     
      451.83720      0.85831051     
      452.01720      0.84822788     
      452.19720      0.83816827     
      452.37720      0.82813180     
      452.55720      0.81811868     
      452.73720      0.80812924     
      452.91720      0.79816386     
      453.09720      0.78822304     
      453.27720      0.77830733     
      453.45720      0.76841739     
      453.63720      0.75855394     
      453.81720      0.74871777     
      453.99720      0.73890975     
      454.17720      0.72913079     
      454.35720      0.71938189     
      454.53720      0.70966408     
      454.71720      0.69997846     
      454.89720      0.69032618     
      455.07720      0.68070841     
      455.25720      0.67112640     
      455.43720      0.66158141     
      455.61720      0.65207474     
      455.79720      0.64260774     
      455.97720      0.63318175     
      456.15720      0.62379818     
      456.33720      0.61445842     
      456.51720      0.60516391     
      456.69720      0.59591608     
      456.87720      0.58671638     
      457.05720      0.57756628     
      457.23720      0.56846724     
      457.41720      0.55942072     
      457.59720      0.55042820     
      457.77720      0.54149113     
      457.95720      0.53261098     
      458.13720      0.52378919     
      458.31720      0.51502720     
      458.49720      0.50632643     
      458.67720      0.49768829     
      458.85720      0.48911417     
      459.03720      0.48060544     
      459.21720      0.47216345     
      459.39720      0.46378951     
      459.57720      0.45548493     
      459.75720      0.44725096     
      459.93720      0.43908885     
      460.11720      0.43099980     
      460.29720      0.42298498     
      460.47720      0.41504554     
      460.65720      0.40718256     
      460.83720      0.39939712     
      461.01720      0.39169024     
      461.19720      0.38406291     
      461.37720      0.37651606     
      461.55720      0.36905062     
      461.73720      0.36166743     
      461.91720      0.35436731     
      462.09720      0.34715105     
      462.27720      0.34001937     
      462.45720      0.33297296     
      462.63720      0.32601245     
      462.81720      0.31913845     
      462.99720      0.31235150     
      463.17720      0.30565211     
      463.35720      0.29904073     
      463.53720      0.29251778     
      463.71720      0.28608361     
      463.89720      0.27973856     
      464.07720      0.27348289     
      464.25720      0.26731683     
      464.43720      0.26124056     
      464.61720      0.25525423     
      464.79720      0.24935792     
      464.97720      0.24355168     
      465.15720      0.23783552     
      465.33720      0.23220940     
      465.51720      0.22667325     
      465.69720      0.22122693     
      465.87720      0.21587028     
      466.05720      0.21060311     
      466.23720      0.20542516     
      466.41720      0.20033616     
      466.59720      0.19533579     
      466.77720      0.19042368     
      466.95720      0.18559945     
      467.13720      0.18086266     
      467.31720      0.17621285     
      467.49720      0.17164953     
      467.67720      0.16717216     
      467.85720      0.16278018     
      468.03720      0.15847300     
      468.21720      0.15425000     
      468.39720      0.15011053     
      468.57720      0.14605391     
      468.75720      0.14207944     
      468.93720      0.13818640     
      469.11720      0.13437402     
      469.29720      0.13064153     
      469.47720      0.12698814     
      469.65720      0.12341302     
      469.83720      0.11991534     
      470.01720      0.11649424     
      470.19720      0.11314884     
      470.37720      0.10987825     
      470.55720      0.10668157     
      470.73720      0.10355788     
      470.91720      0.10050623     
      471.09720      0.97525678E-001
      471.27720      0.94615268E-001
      471.45720      0.91774029E-001
      471.63720      0.89000980E-001
      471.81720      0.86295135E-001
      471.99720      0.83655497E-001
      472.17720      0.81081065E-001
      472.35720      0.78570831E-001
      472.53720      0.76123783E-001
      472.71720      0.73738903E-001
      472.89720      0.71415173E-001
      473.07720      0.69151570E-001
      473.25720      0.66947073E-001
      473.43720      0.64800657E-001
      473.61720      0.62711298E-001
      473.79720      0.60677975E-001
      473.97720      0.58699667E-001
      474.15720      0.56775356E-001
      474.33720      0.54904026E-001
      474.51720      0.53084666E-001
      474.69720      0.51316270E-001
      474.87720      0.49597836E-001
      475.05720      0.47928366E-001
      475.23720      0.46306873E-001
      475.41720      0.44732372E-001
      475.59720      0.43203888E-001
      475.77720      0.41720452E-001
      475.95720      0.40281106E-001
      476.13720      0.38884899E-001
      476.31720      0.37530888E-001
      476.49720      0.36218143E-001
      476.67720      0.34945740E-001
      476.85720      0.33712770E-001
      477.03720      0.32518330E-001
      477.21720      0.31361532E-001
      477.39720      0.30241497E-001
      477.57720      0.29157359E-001
      477.75720      0.28108262E-001
      477.93720      0.27093366E-001
      478.11720      0.26111839E-001
      478.29720      0.25162865E-001
      478.47720      0.24245638E-001
      478.65720      0.23359368E-001
      478.83720      0.22503277E-001
      479.01720      0.21676598E-001
      479.19720      0.20878580E-001
      479.37720      0.20108486E-001
      479.55720      0.19365591E-001
      479.73720      0.18649183E-001
      479.91720      0.17958565E-001
      480.09720      0.17293054E-001
      480.27720      0.16651981E-001
      480.45720      0.16034688E-001
      480.63720      0.15440535E-001
      480.81720      0.14868892E-001
      480.99720      0.14319145E-001
      481.17720      0.13790692E-001
      481.35720      0.13282947E-001
      481.53720      0.12795336E-001
      481.71720      0.12327297E-001
      481.89720      0.11878285E-001
      482.07720      0.11447765E-001
      482.25720      0.11035218E-001
      482.43720      0.10640135E-001
      482.61720      0.10262023E-001
      482.79720      0.99003997E-002
      482.97720      0.95547966E-002
      483.15720      0.92247575E-002
      483.33720      0.89098385E-002
      483.51720      0.86096082E-002
      483.69720      0.83236470E-002
      483.87720      0.80515475E-002
      484.05720      0.77929139E-002
      484.23720      0.75473620E-002
      484.41720      0.73145192E-002
      484.59720      0.70940238E-002
      484.77720      0.68855253E-002
      484.95720      0.66886841E-002
      485.13720      0.65031710E-002
      485.31720      0.63286674E-002
      485.49720      0.61648650E-002
      485.67720      0.60114653E-002
      485.85720      0.58681798E-002
      486.03720      0.57347295E-002
      486.21720      0.56108450E-002
      486.39720      0.54962658E-002
      486.57720      0.53907407E-002
      486.75720      0.52940270E-002
      486.93720      0.52058906E-002
      487.11720      0.51261060E-002
      487.29720      0.50544554E-002
      487.47720      0.49907292E-002
      487.65720      0.49347254E-002
      487.83720      0.48862497E-002
      488.01720      0.48451147E-002
      488.19720      0.48111403E-002
      488.37720      0.47841532E-002
      488.55720      0.47639868E-002
      488.73720      0.47504808E-002
      488.91720      0.47434812E-002
      489.09720      0.47428400E-002
      489.27720      0.47484151E-002
      489.45720      0.47600698E-002
      489.63720      0.47776731E-002
      489.81720      0.48010988E-002
      489.99720      0.48302262E-002
      490.17720      0.48649390E-002
      490.35720      0.49051257E-002
      490.53720      0.49506793E-002
      490.71720      0.50014968E-002
      490.89720      0.50574794E-002
      491.07720      0.51185323E-002
      491.25720      0.51845642E-002
      491.43720      0.52554872E-002
      491.61720      0.53312170E-002
      491.79720      0.54116723E-002
      491.97720      0.54967748E-002
      492.15720      0.55864490E-002
      492.33720      0.56806220E-002
      492.51720      0.57792234E-002
      492.69720      0.58821853E-002
      492.87720      0.59894416E-002
      493.05720      0.61009286E-002
      493.23720      0.62165842E-002
      493.41720      0.63363479E-002
      493.59720      0.64601612E-002
      493.77720      0.65879664E-002
      493.95720      0.67197076E-002
      494.13720      0.68553299E-002
      494.31720      0.69947791E-002
      494.49720      0.71380022E-002
      494.67720      0.72849468E-002
      494.85720      0.74355612E-002
      495.03720      0.75897942E-002
      495.21720      0.77475948E-002
      495.39720      0.79089123E-002
      495.57720      0.80736964E-002
      495.75720      0.82418966E-002
      495.93720      0.84134624E-002
      496.11720      0.85883430E-002
      496.29720      0.87664877E-002
      496.47720      0.89478449E-002
      496.65720      0.91323630E-002
      496.83720      0.93199897E-002
      497.01720      0.95106720E-002
      497.19720      0.97043563E-002
      497.37720      0.99009881E-002
      497.55720      0.10100512E-001
      497.73720      0.10302872E-001
      497.91720      0.10508011E-001
      498.09720      0.10715870E-001
      498.27720      0.10926390E-001
      498.45720      0.11139511E-001
      498.63720      0.11355170E-001
      498.81720      0.11573304E-001
      498.99720      0.11793849E-001
      499.17720      0.12016739E-001
      499.35720      0.12241907E-001
      499.53720      0.12469283E-001
      499.71720      0.12698798E-001
      499.89720      0.12930380E-001
      500.07720      0.13163955E-001
      500.25720      0.13399449E-001
      500.43720      0.13636786E-001
      500.61720      0.13875886E-001
      500.79720      0.14116670E-001
      500.97720      0.14359058E-001
      501.15720      0.14602966E-001
      501.33720      0.14848309E-001
      501.51720      0.15095002E-001
      501.69720      0.15342957E-001
      501.87720      0.15592083E-001
      502.05720      0.15842291E-001
      502.23720      0.16093488E-001
      502.41720      0.16345579E-001
      502.59720      0.16598469E-001
      502.77720      0.16852061E-001
      502.95720      0.17106256E-001
      503.13720      0.17360954E-001
      503.31720      0.17616053E-001
      503.49720      0.17871451E-001
      503.67720      0.18127043E-001
      503.85720      0.18382724E-001
      504.03720      0.18638388E-001
      504.21720      0.18893925E-001
      504.39720      0.19149228E-001
      504.57720      0.19404185E-001
      504.75720      0.19658687E-001
      504.93720      0.19912620E-001
      505.11720      0.20165872E-001
      505.29720      0.20418329E-001
      505.47720      0.20669876E-001
      505.65720      0.20920398E-001
      505.83720      0.21169779E-001
      506.01720      0.21417903E-001
      506.19720      0.21664653E-001
      506.37720      0.21909912E-001
      506.55720      0.22153561E-001
      506.73720      0.22395484E-001
      506.91720      0.22635562E-001
      507.09720      0.22873677E-001
      507.27720      0.23109711E-001
      507.45720      0.23343547E-001
      507.63720      0.23575067E-001
      507.81720      0.23804154E-001
      507.99720      0.24030690E-001
      508.17720      0.24254560E-001
      508.35720      0.24475647E-001
      508.53720      0.24693837E-001
      508.71720      0.24909014E-001
      508.89720      0.25121067E-001
      509.07720      0.25329881E-001
      509.25720      0.25535346E-001
      509.43720      0.25737352E-001
      509.61720      0.25935788E-001
      509.79720      0.26130548E-001
      509.97720      0.26321525E-001
      510.15720      0.26508614E-001
      510.33720      0.26691713E-001
      510.51720      0.26870719E-001
      510.69720      0.27045534E-001
      510.87720      0.27216059E-001
      511.05720      0.27382198E-001
      511.23720      0.27543859E-001
      511.41720      0.27700949E-001
      511.59720      0.27853379E-001
      511.77720      0.28001061E-001
      511.95720      0.28143913E-001
      512.13720      0.28281850E-001
      512.31720      0.28414795E-001
      512.49720      0.28542669E-001
      512.67720      0.28665399E-001
      512.85720      0.28782914E-001
      513.03720      0.28895143E-001
      513.21720      0.29002023E-001
      513.39720      0.29103490E-001
      513.57720      0.29199485E-001
      513.75720      0.29289951E-001
      513.93720      0.29374834E-001
      514.11720      0.29454084E-001
      514.29720      0.29527655E-001
      514.47720      0.29595502E-001
      514.65720      0.29657586E-001
      514.83720      0.29713868E-001
      515.01720      0.29764317E-001
      515.19720      0.29808901E-001
      515.37720      0.29847593E-001
      515.55720      0.29880372E-001
      515.73720      0.29907216E-001
      515.91720      0.29928110E-001
      516.09720      0.29943041E-001
      516.27720      0.29952001E-001
      516.45720      0.29954983E-001
      516.63720      0.29951987E-001
      516.81720      0.29943013E-001
      516.99720      0.29928068E-001
      517.17720      0.29907159E-001
      517.35720      0.29880300E-001
      517.53720      0.29847507E-001
      517.71720      0.29808799E-001
      517.89720      0.29764199E-001
      518.07720      0.29713733E-001
      518.25720      0.29657433E-001
      518.43720      0.29595331E-001
      518.61720      0.29527464E-001
      518.79720      0.29453873E-001
      518.97720      0.29374600E-001
      519.15720      0.29289694E-001
      519.33720      0.29199204E-001
      519.51720      0.29103183E-001
      519.69720      0.29001688E-001
      519.87720      0.28894778E-001
      520.05720      0.28782516E-001
      520.23720      0.28664967E-001
      520.41720      0.28542201E-001
      520.59720      0.28414287E-001
      520.77720      0.28281301E-001
      520.95720      0.28143318E-001
      521.13720      0.28000418E-001
      521.31720      0.27852684E-001
      521.49720      0.27700198E-001
      521.67720      0.27543049E-001
      521.85720      0.27381325E-001
      522.03720      0.27215117E-001
      522.21720      0.27044518E-001
      522.39720      0.26869625E-001
      522.57720      0.26690534E-001
      522.75720      0.26507344E-001
      522.93720      0.26320157E-001
      523.11720      0.26129076E-001
      523.29720      0.25934204E-001
      523.47720      0.25735647E-001
      523.65720      0.25533513E-001
      523.83720      0.25327910E-001
      524.01720      0.25118948E-001
      524.19720      0.24906737E-001
      524.37720      0.24691389E-001
      524.55720      0.24473017E-001
      524.73720      0.24251735E-001
      524.91720      0.24027657E-001
      525.09720      0.23800897E-001
      525.27720      0.23571572E-001
      525.45720      0.23339796E-001
      525.63720      0.23105686E-001
      525.81720      0.22869359E-001
      525.99720      0.22630931E-001
      526.17720      0.22390518E-001
      526.35720      0.22148238E-001
      526.53720      0.21904206E-001
      526.71720      0.21658539E-001
      526.89720      0.21411352E-001
      527.07720      0.21162762E-001
      527.25720      0.20912882E-001
      527.43720      0.20661828E-001
      527.61720      0.20409713E-001
      527.79720      0.20156650E-001
      527.97720      0.19902752E-001
      528.15720      0.19648128E-001
      528.33720      0.19392891E-001
      528.51720      0.19137149E-001
      528.69720      0.18881009E-001
      528.87720      0.18624580E-001
      529.05720      0.18367966E-001
      529.23720      0.18111272E-001
      529.41720      0.17854601E-001
      529.59720      0.17598054E-001
      529.77720      0.17341731E-001
      529.95720      0.17085730E-001
      530.13720      0.16830148E-001
      530.31720      0.16575081E-001
      530.49720      0.16320620E-001
      530.67720      0.16066859E-001
      530.85720      0.15813885E-001
      531.03720      0.15561789E-001
      531.21720      0.15310654E-001
      531.39720      0.15060565E-001
      531.57720      0.14811604E-001
      531.75720      0.14563851E-001
      531.93720      0.14317384E-001
      532.11720      0.14072278E-001
      532.29720      0.13828607E-001
      532.47720      0.13586444E-001
      532.65720      0.13345856E-001
      532.83720      0.13106912E-001
      533.01720      0.12869677E-001
      533.19720      0.12634214E-001
      533.37720      0.12400582E-001
      533.55720      0.12168842E-001
      533.73720      0.11939049E-001
      533.91720      0.11711257E-001
      534.09720      0.11485518E-001
      534.27720      0.11261882E-001
      534.45720      0.11040396E-001
      534.63720      0.10821105E-001
      534.81720      0.10604054E-001
      534.99720      0.10389281E-001
      535.17720      0.10176827E-001
      535.35720      0.99667281E-002
      535.53720      0.97590179E-002
      535.71720      0.95537291E-002
      535.89720      0.93508919E-002
      536.07720      0.91505342E-002
      536.25720      0.89526822E-002
      536.43720      0.87573597E-002
      536.61720      0.85645887E-002
      536.79720      0.83743892E-002
      536.97720      0.81867791E-002
      537.15720      0.80017745E-002
      537.33720      0.78193895E-002
      537.51720      0.76396364E-002
      537.69720      0.74625256E-002
      537.87720      0.72880657E-002
      538.05720      0.71162637E-002
      538.23720      0.69471246E-002
      538.41720      0.67806518E-002
      538.59720      0.66168472E-002
      538.77720      0.64557109E-002
      538.95720      0.62972414E-002
      539.13720      0.61414358E-002
      539.31720      0.59882895E-002
      539.49720      0.58377967E-002
      539.67720      0.56899500E-002
      539.85720      0.55447406E-002
      540.03720      0.54021585E-002
      540.21720      0.52621923E-002
      540.39720      0.51248294E-002
      540.57720      0.49900559E-002
      540.75720      0.48578568E-002
      540.93720      0.47282161E-002
      541.11720      0.46011165E-002
      541.29720      0.44765397E-002
      541.47720      0.43544665E-002
      541.65720      0.42348767E-002
      541.83720      0.41177492E-002
      542.01720      0.40030620E-002
      542.19720      0.38907923E-002
      542.37720      0.37809165E-002
      542.55720      0.36734101E-002
      542.73720      0.35682482E-002
      542.91720      0.34654050E-002
      543.09720      0.33648541E-002
      543.27720      0.32665687E-002
      543.45720      0.31705211E-002
      543.63720      0.30766834E-002
      543.81720      0.29850270E-002
      543.99720      0.28955230E-002
      544.17720      0.28081422E-002
      544.35720      0.27228546E-002
      544.53720      0.26396305E-002
      544.71720      0.25584392E-002
      544.89720      0.24792504E-002
      545.07720      0.24020330E-002
      545.25720      0.23267561E-002
      545.43720      0.22533884E-002
      545.61720      0.21818985E-002
      545.79720      0.21122549E-002
      545.97720      0.20444262E-002
      546.15720      0.19783806E-002
      546.33720      0.19140864E-002
      546.51720      0.18515121E-002
      546.69720      0.17906259E-002
      546.87720      0.17313963E-002
      547.05720      0.16737917E-002
      547.23720      0.16177806E-002
      547.41720      0.15633318E-002
      547.59720      0.15104139E-002
      547.77720      0.14589960E-002
      547.95720      0.14090472E-002
      548.13720      0.13605368E-002
      548.31720      0.13134342E-002
      548.49720      0.12677093E-002
      548.67720      0.12233320E-002
      548.85720      0.11802725E-002
      549.03720      0.11385013E-002
      549.21720      0.10979893E-002
      549.39720      0.10587074E-002
      549.57720      0.10206272E-002
      549.75720      0.98372023E-003
      549.93720      0.94795861E-003
      550.11720      0.91331471E-003
      550.29720      0.87976126E-003
      550.47720      0.84727134E-003
      550.65720      0.81581841E-003
      550.83720      0.78537630E-003
      551.01720      0.75591922E-003
      551.19720      0.72742175E-003
      551.37720      0.69985889E-003
      551.55720      0.67320601E-003
      551.73720      0.64743891E-003
      551.91720      0.62253376E-003
      552.09720      0.59846715E-003
      552.27720      0.57521610E-003
      552.45720      0.55275803E-003
      552.63720      0.53107075E-003
      552.81720      0.51013252E-003
      552.99720      0.48992200E-003
      553.17720      0.47041826E-003
      553.35720      0.45160081E-003
      553.53720      0.43344954E-003
      553.71720      0.41594480E-003
      553.89720      0.39906730E-003
      554.07720      0.38279821E-003
      554.25720      0.36711907E-003
      554.43720      0.35201187E-003
      554.61720      0.33745896E-003
      554.79720      0.32344313E-003
      554.97720      0.30994754E-003
      555.15720      0.29695577E-003
      555.33720      0.28445177E-003
      555.51720      0.27241989E-003
      555.69720      0.26084487E-003
      555.87720      0.24971181E-003
      556.05720      0.23900620E-003
      556.23720      0.22871390E-003
      556.41720      0.21882113E-003
      556.59720      0.20931447E-003
      556.77720      0.20018086E-003
      556.95720      0.19140759E-003
      557.13720      0.18298230E-003
      557.31720      0.17489294E-003
      557.49720      0.16712784E-003
      557.67720      0.15967562E-003
      557.85720      0.15252525E-003
      558.03720      0.14566599E-003
      558.21720      0.13908743E-003
      558.39720      0.13277947E-003
      558.57720      0.12673228E-003
      558.75720      0.12093636E-003
      558.93720      0.11538247E-003
      559.11720      0.11006167E-003
      559.29720      0.10496527E-003
      559.47720      0.10008488E-003
      559.65720      0.95412359E-004
      559.83720      0.90939821E-004
      560.01720      0.86659635E-004
      560.19720      0.82564417E-004
      560.37720      0.78647023E-004
      560.55720      0.74900542E-004
      560.73720      0.71318292E-004
      560.91720      0.67893815E-004
      561.09720      0.64620869E-004
      561.27720      0.61493425E-004
      561.45720      0.58505658E-004
      561.63720      0.55651947E-004
      561.81720      0.52926863E-004
      561.99720      0.50325171E-004
      562.17720      0.47841816E-004
      562.35720      0.45471928E-004
      562.53720      0.43210807E-004
      562.71720      0.41053925E-004
      562.89720      0.38996919E-004
      563.07720      0.37035586E-004
      563.25720      0.35165876E-004
      563.43720      0.33383892E-004
      563.61720      0.31685882E-004
      563.79720      0.30068235E-004
      563.97720      0.28527477E-004
      564.15720      0.27060269E-004
      564.33720      0.25663397E-004
      564.51720      0.24333775E-004
      564.69720      0.23068435E-004
      564.87720      0.21864527E-004
      565.05720      0.20719313E-004
      565.23720      0.19630163E-004
      565.41720      0.18594554E-004
      565.59720      0.17610064E-004
      565.77720      0.16674369E-004
      565.95720      0.15785240E-004
      566.13720      0.14940539E-004
      566.31720      0.14138217E-004
      566.49720      0.13376310E-004
      566.67720      0.12652936E-004
      566.85720      0.11966292E-004
      567.03720      0.11314652E-004
      567.21720      0.10696362E-004
      567.39720      0.10109840E-004
      567.57720      0.95535721E-005
      567.75720      0.90261093E-005
      567.93720      0.85260662E-005
      568.11720      0.80521177E-005
      568.29720      0.76029972E-005
      568.47720      0.71774942E-005
      568.65720      0.67744520E-005
      568.83720      0.63927659E-005
      569.01720      0.60313805E-005
      569.19720      0.56892886E-005
      569.37720      0.53655284E-005
      569.55720      0.50591824E-005
      569.73720      0.47693751E-005
      569.91720      0.44952715E-005
      570.09720      0.42360754E-005
      570.27720      0.39910276E-005
      570.45720      0.37594048E-005
      570.63720      0.35405175E-005
      570.81720      0.33337092E-005
      570.99720      0.31383544E-005
      571.17720      0.29538576E-005
      571.35720      0.27796520E-005
      571.53720      0.26151981E-005
      571.71720      0.24599828E-005
      571.89720      0.23135179E-005
      572.07720      0.21753390E-005
      572.25720      0.20450048E-005
      572.43720      0.19220958E-005
      572.61720      0.18062133E-005
      572.79720      0.16969785E-005
      572.97720      0.15940316E-005
      573.15720      0.14970312E-005
      573.33720      0.14056528E-005
      573.51720      0.13195886E-005
      573.69720      0.12385467E-005
      573.87720      0.11622499E-005
      574.05720      0.10904354E-005
      574.23720      0.10228540E-005
      574.41720      0.95926961E-006
      574.59720      0.89945827E-006
      574.77720      0.84320788E-006
      574.95720      0.79031750E-006
      575.13720      0.74059682E-006
      575.31720      0.69386565E-006
      575.49720      0.64995343E-006
      575.67720      0.60869873E-006
      575.85720      0.56994881E-006
      576.03720      0.53355920E-006
      576.21720      0.49939326E-006
      576.39720      0.46732180E-006
      576.57720      0.43722271E-006
      576.75720      0.40898058E-006
      576.93720      0.38248637E-006
      577.11720      0.35763709E-006
      577.29720      0.33433545E-006
      577.47720      0.31248964E-006
      577.65720      0.29201295E-006
      577.83720      0.27282358E-006
      578.01720      0.25484435E-006
      578.19720      0.23800244E-006
      578.37720      0.22222919E-006
      578.55720      0.20745988E-006
      578.73720      0.19363347E-006
      578.91720      0.18069247E-006
      579.09720      0.16858268E-006
      579.27720      0.15725309E-006
      579.45720      0.14665562E-006
      579.63720      0.13674503E-006
      579.81720      0.12747871E-006
      579.99720      0.11881660E-006
      580.17720      0.11072096E-006
      580.35720      0.10315633E-006
      580.53720      0.96089344E-007
      580.71720      0.89488633E-007
      580.89720      0.83324713E-007
      581.07720      0.77569873E-007
      581.25720      0.72198079E-007
      581.43720      0.67184873E-007
      581.61720      0.62507290E-007
      581.79720      0.58143763E-007
      581.97720      0.54074051E-007
      582.15720      0.50279156E-007
      582.33720      0.46741254E-007
      582.51720      0.43443624E-007
      582.69720      0.40370584E-007
      582.87720      0.37507431E-007
      583.05720      0.34840382E-007
      583.23720      0.32356520E-007
      583.41720      0.30043741E-007
      583.59720      0.27890706E-007
      583.77720      0.25886797E-007
      583.95720      0.24022070E-007
      584.13720      0.22287216E-007
      584.31720      0.20673526E-007
      584.49720      0.19172845E-007
      584.67720      0.17777549E-007
      584.85720      0.16480505E-007
      585.03720      0.15275043E-007
      585.21720      0.14154928E-007
      585.39720      0.13114333E-007
      585.57720      0.12147812E-007
      585.75720      0.11250276E-007
      585.93720      0.10416975E-007
      586.11720      0.96434712E-008
      586.29720      0.89256210E-008
      586.47720      0.82595578E-008
      586.65720      0.76416731E-008
      586.83720      0.70686002E-008
      587.01720      0.65371987E-008
      587.19720      0.60445400E-008
      587.37720      0.55878936E-008
      587.55720      0.51647143E-008
      587.73720      0.47726301E-008
      587.91720      0.44094311E-008
      588.09720      0.40730585E-008
      588.27720      0.37615950E-008
      588.45720      0.34732555E-008
      588.63720      0.32063781E-008
      588.81720      0.29594161E-008
      588.99720      0.27309304E-008
      589.17720      0.25195822E-008
      589.35720      0.23241264E-008
      589.53720      0.21434051E-008
      589.71720      0.19763419E-008
      589.89720      0.18219363E-008
      590.07720      0.16792587E-008
      590.25720      0.15474454E-008
      590.43720      0.14256942E-008
      590.61720      0.13132600E-008
      590.79720      0.12094512E-008
      590.97720      0.11136258E-008
      591.15720      0.10251880E-008
      591.33720      0.94358510E-009
      591.51720      0.86830424E-009
      591.69720      0.79886993E-009
      591.87720      0.73484126E-009
      592.05720      0.67580950E-009
      592.23720      0.62139586E-009
      592.41720      0.57124936E-009
      592.59720      0.52504484E-009
      592.77720      0.48248117E-009
      592.95720      0.44327950E-009
      593.13720      0.40718168E-009
      593.31720      0.37394877E-009
      593.49720      0.34335968E-009
      593.67720      0.31520985E-009
      593.85720      0.28931009E-009
      594.03720      0.26548542E-009
      594.21720      0.24357408E-009
      594.39720      0.22342655E-009
      594.57720      0.20490464E-009
      594.75720      0.18788067E-009
      594.93720      0.17223671E-009
      595.11720      0.15786383E-009
      595.29720      0.14466146E-009
      595.47720      0.13253677E-009
      595.65720      0.12140406E-009
      595.83720      0.11118427E-009
      596.01720      0.10180445E-009
      596.19720      0.93197337E-010
      596.37720      0.85300886E-010
      596.55720      0.78057904E-010
      596.73720      0.71415673E-010
      596.91720      0.65325612E-010
      597.09720      0.59742960E-010
      597.27720      0.54626490E-010
      597.45720      0.49938231E-010
      597.63720      0.45643225E-010
      597.81720      0.41709289E-010
      597.99720      0.38106807E-010
      598.17720      0.34808526E-010
      598.35720      0.31789377E-010
      598.53720      0.29026301E-010
      598.71720      0.26498097E-010
      598.89720      0.24185271E-010
      599.07720      0.22069910E-010
      599.25720      0.20135548E-010
      599.43720      0.18367060E-010
      599.61720      0.16750553E-010
      599.79720      0.15273267E-010
      599.97720      0.13923489E-010
      600.15720      0.12690463E-010
      600.33720      0.11564322E-010
      600.51720      0.10536011E-010
      600.69720      0.95972217E-011
      600.87720      0.87403365E-011
      601.05720      0.79583692E-011
      601.23720      0.72449153E-011
      601.41720      0.65941048E-011
      601.59720      0.60005587E-011
      601.77720      0.54593486E-011
      601.95720      0.49659606E-011
      602.13720      0.45162609E-011
      602.31720      0.41064645E-011
      602.49720      0.37331069E-011
      602.67720      0.33930174E-011
      602.85720      0.30832948E-011
      603.03720      0.28012851E-011
      603.21720      0.25445611E-011
      603.39720      0.23109032E-011
      603.57720      0.20982824E-011
      603.75720      0.19048440E-011
      603.93720      0.17288933E-011
      604.11720      0.15688820E-011
      604.29720      0.14233957E-011
      604.47720      0.12911430E-011
      604.65720      0.11709446E-011
      604.83720      0.10617240E-011
      605.01720      0.96249892E-012
      605.19720      0.87237288E-012
      605.37720      0.79052820E-012
      605.55720      0.71621906E-012
      605.73720      0.64876542E-012
      605.91720      0.58754727E-012
      606.09720      0.53199951E-012
      606.27720      0.48160719E-012
      606.45720      0.43590112E-012
