      408.44920      0.12237088E-003
      408.62920      0.12311325E-003
      408.80920      0.12384545E-003
      408.98920      0.12456702E-003
      409.16920      0.12527750E-003
      409.34920      0.12597643E-003
      409.52920      0.12666336E-003
      409.70920      0.12733784E-003
      409.88920      0.12799942E-003
      410.06920      0.12864766E-003
      410.24920      0.12928212E-003
      410.42920      0.12990238E-003
      410.60920      0.13050801E-003
      410.78920      0.13109859E-003
      410.96920      0.13167369E-003
      411.14920      0.13223293E-003
      411.32920      0.13277590E-003
      411.50920      0.13330219E-003
      411.68920      0.13381144E-003
      411.86920      0.13430327E-003
      412.04920      0.13477729E-003
      412.22920      0.13523317E-003
      412.40920      0.13567054E-003
      412.58920      0.13608906E-003
      412.76920      0.13648841E-003
      412.94920      0.13686826E-003
      413.12920      0.13722830E-003
      413.30920      0.13756824E-003
      413.48920      0.13788778E-003
      413.66920      0.13818664E-003
      413.84920      0.13846456E-003
      414.02920      0.13872129E-003
      414.20920      0.13895658E-003
      414.38920      0.13917020E-003
      414.56920      0.13936194E-003
      414.74920      0.13953158E-003
      414.92920      0.13967894E-003
      415.10920      0.13980384E-003
      415.28920      0.13990611E-003
      415.46920      0.13998560E-003
      415.64920      0.14004217E-003
      415.82920      0.14007570E-003
      416.00920      0.14008607E-003
      416.18920      0.14007319E-003
      416.36920      0.14003697E-003
      416.54920      0.13997735E-003
      416.72920      0.13989426E-003
      416.90920      0.13978768E-003
      417.08920      0.13965756E-003
      417.26920      0.13950391E-003
      417.44920      0.13932672E-003
      417.62920      0.13912601E-003
      417.80920      0.13890181E-003
      417.98920      0.13865417E-003
      418.16920      0.13838314E-003
      418.34920      0.13808881E-003
      418.52920      0.13777125E-003
      418.70920      0.13743057E-003
      418.88920      0.13706689E-003
      419.06920      0.13668034E-003
      419.24920      0.13627106E-003
      419.42920      0.13583920E-003
      419.60920      0.13538494E-003
      419.78920      0.13490847E-003
      419.96920      0.13440998E-003
      420.14920      0.13388967E-003
      420.32920      0.13334778E-003
      420.50920      0.13278454E-003
      420.68920      0.13220020E-003
      420.86920      0.13159501E-003
      421.04920      0.13096925E-003
      421.22920      0.13032320E-003
      421.40920      0.12965715E-003
      421.58920      0.12897141E-003
      421.76920      0.12826630E-003
      421.94920      0.12754215E-003
      422.12920      0.12679928E-003
      422.30920      0.12603804E-003
      422.48920      0.12525880E-003
      422.66920      0.12446191E-003
      422.84920      0.12364775E-003
      423.02920      0.12281671E-003
      423.20920      0.12196916E-003
      423.38920      0.12110551E-003
      423.56920      0.12022616E-003
      423.74920      0.11933153E-003
      423.92920      0.11842204E-003
      424.10920      0.11749810E-003
      424.28920      0.11656015E-003
      424.46920      0.11560863E-003
      424.64920      0.11464397E-003
      424.82920      0.11366663E-003
      425.00920      0.11267704E-003
      425.18920      0.11167568E-003
      425.36920      0.11066298E-003
      425.54920      0.10963942E-003
      425.72920      0.10860546E-003
      425.90920      0.10756156E-003
      426.08920      0.10650819E-003
      426.26920      0.10544582E-003
      426.44920      0.10437492E-003
      426.62920      0.10329596E-003
      426.80920      0.10220941E-003
      426.98920      0.10111575E-003
      427.16920      0.10001543E-003
      427.34920      0.98908945E-004
      427.52920      0.97796750E-004
      427.70920      0.96679316E-004
      427.88920      0.95557108E-004
      428.06920      0.94430590E-004
      428.24920      0.93300224E-004
      428.42920      0.92166467E-004
      428.60920      0.91029775E-004
      428.78920      0.89890600E-004
      428.96920      0.88749389E-004
      429.14920      0.87606586E-004
      429.32920      0.86462630E-004
      429.50920      0.85317956E-004
      429.68920      0.84172994E-004
      429.86920      0.83028167E-004
      430.04920      0.81883896E-004
      430.22920      0.80740592E-004
      430.40920      0.79598663E-004
      430.58920      0.78458509E-004
      430.76920      0.77320526E-004
      430.94920      0.76185099E-004
      431.12920      0.75052612E-004
      431.30920      0.73923435E-004
      431.48920      0.72797937E-004
      431.66920      0.71676476E-004
      431.84920      0.70559402E-004
      432.02920      0.69447060E-004
      432.20920      0.68339785E-004
      432.38920      0.67237903E-004
      432.56920      0.66141735E-004
      432.74920      0.65051591E-004
      432.92920      0.63967773E-004
      433.10920      0.62890575E-004
      433.28920      0.61820282E-004
      433.46920      0.60757171E-004
      433.64920      0.59701510E-004
      433.82920      0.58653557E-004
      434.00920      0.57613563E-004
      434.18920      0.56581769E-004
      434.36920      0.55558407E-004
      434.54920      0.54543701E-004
      434.72920      0.53537865E-004
      434.90920      0.52541104E-004
      435.08920      0.51553614E-004
      435.26920      0.50575584E-004
      435.44920      0.49607193E-004
      435.62920      0.48648609E-004
      435.80920      0.47699994E-004
      435.98920      0.46761500E-004
      436.16920      0.45833270E-004
      436.34920      0.44915440E-004
      436.52920      0.44008136E-004
      436.70920      0.43111475E-004
      436.88920      0.42225567E-004
      437.06920      0.41350513E-004
      437.24920      0.40486405E-004
      437.42920      0.39633329E-004
      437.60920      0.38791361E-004
      437.78920      0.37960569E-004
      437.96920      0.37141016E-004
      438.14920      0.36332753E-004
      438.32920      0.35535828E-004
      438.50920      0.34750277E-004
      438.68920      0.33976134E-004
      438.86920      0.33213421E-004
      439.04920      0.32462156E-004
      439.22920      0.31722349E-004
      439.40920      0.30994004E-004
      439.58920      0.30277119E-004
      439.76920      0.29571683E-004
      439.94920      0.28877681E-004
      440.12920      0.28195093E-004
      440.30920      0.27523891E-004
      440.48920      0.26864042E-004
      440.66920      0.26215507E-004
      440.84920      0.25578243E-004
      441.02920      0.24952202E-004
      441.20920      0.24337328E-004
      441.38920      0.23733563E-004
      441.56920      0.23140844E-004
      441.74920      0.22559102E-004
      441.92920      0.21988266E-004
      442.10920      0.21428258E-004
      442.28920      0.20878999E-004
      442.46920      0.20340404E-004
      442.64920      0.19812384E-004
      442.82920      0.19294850E-004
      443.00920      0.18787705E-004
      443.18920      0.18290852E-004
      443.36920      0.17804191E-004
      443.54920      0.17327616E-004
      443.72920      0.16861023E-004
      443.90920      0.16404301E-004
      444.08920      0.15957341E-004
      444.26920      0.15520028E-004
      444.44920      0.15092246E-004
      444.62920      0.14673879E-004
      444.80920      0.14264807E-004
      444.98920      0.13864910E-004
      445.16920      0.13474065E-004
      445.34920      0.13092148E-004
      445.52920      0.12719036E-004
      445.70920      0.12354601E-004
      445.88920      0.11998718E-004
      446.06920      0.11651259E-004
      446.24920      0.11312095E-004
      446.42920      0.10981097E-004
      446.60920      0.10658137E-004
      446.78920      0.10343084E-004
      446.96920      0.10035810E-004
      447.14920      0.97361835E-005
      447.32920      0.94440751E-005
      447.50920      0.91593549E-005
      447.68920      0.88818933E-005
      447.86920      0.86115608E-005
      448.04920      0.83482286E-005
      448.22920      0.80917680E-005
      448.40920      0.78420511E-005
      448.58920      0.75989505E-005
      448.76920      0.73623397E-005
      448.94920      0.71320927E-005
      449.12920      0.69080847E-005
      449.30920      0.66901914E-005
      449.48920      0.64782898E-005
      449.66920      0.62722580E-005
      449.84920      0.60719750E-005
      450.02920      0.58773211E-005
      450.20920      0.56881778E-005
      450.38920      0.55044279E-005
      450.56920      0.53259554E-005
      450.74920      0.51526459E-005
      450.92920      0.49843863E-005
      451.10920      0.48210648E-005
      451.28920      0.46625714E-005
      451.46920      0.45087973E-005
      451.64920      0.43596355E-005
      451.82920      0.42149806E-005
      452.00920      0.40747286E-005
      452.18920      0.39387774E-005
      452.36920      0.38070263E-005
      452.54920      0.36793765E-005
      452.72920      0.35557309E-005
      452.90920      0.34359939E-005
      453.08920      0.33200719E-005
      453.26920      0.32078730E-005
      453.44920      0.30993069E-005
      453.62920      0.29942853E-005
      453.80920      0.28927214E-005
      453.98920      0.27945305E-005
      454.16920      0.26996294E-005
      454.34920      0.26079370E-005
      454.52920      0.25193737E-005
      454.70920      0.24338619E-005
      454.88920      0.23513256E-005
      455.06920      0.22716909E-005
      455.24920      0.21948853E-005
      455.42920      0.21208383E-005
      455.60920      0.20494813E-005
      455.78920      0.19807471E-005
      455.96920      0.19145707E-005
      456.14920      0.18508885E-005
      456.32920      0.17896388E-005
      456.50920      0.17307616E-005
      456.68920      0.16741987E-005
      456.86920      0.16198934E-005
      457.04920      0.15677909E-005
      457.22920      0.15178381E-005
      457.40920      0.14699833E-005
      457.58920      0.14241767E-005
      457.76920      0.13803701E-005
      457.94920      0.13385169E-005
      458.12920      0.12985720E-005
      458.30920      0.12604920E-005
      458.48920      0.12242350E-005
      458.66920      0.11897608E-005
      458.84920      0.11570306E-005
      459.02920      0.11260070E-005
      459.20920      0.10966545E-005
      459.38920      0.10689385E-005
      459.56920      0.10428265E-005
      459.74920      0.10182869E-005
      459.92920      0.99528979E-006
      460.10920      0.97380664E-006
      460.28920      0.95381025E-006
      460.46920      0.93527481E-006
      460.64920      0.91817584E-006
      460.82920      0.90249019E-006
      461.00920      0.88819599E-006
      461.18920      0.87527269E-006
      461.36920      0.86370096E-006
      461.54920      0.85346274E-006
      461.72920      0.84454117E-006
      461.90920      0.83692060E-006
      462.08920      0.83058655E-006
      462.26920      0.82552571E-006
      462.44920      0.82172588E-006
      462.62920      0.81917601E-006
      462.80920      0.81786612E-006
      462.98920      0.81778732E-006
      463.16920      0.81893175E-006
      463.34920      0.82129262E-006
      463.52920      0.82486411E-006
      463.70920      0.82964140E-006
      463.88920      0.83562067E-006
      464.06920      0.84279900E-006
      464.24920      0.85117443E-006
      464.42920      0.86074588E-006
      464.60920      0.87151318E-006
      464.78920      0.88347698E-006
      464.96920      0.89663881E-006
      465.14920      0.91100100E-006
      465.32920      0.92656666E-006
      465.50920      0.94333970E-006
      465.68920      0.96132475E-006
      465.86920      0.98052719E-006
      466.04920      0.10009531E-005
      466.22920      0.10226092E-005
      466.40920      0.10455030E-005
      466.58920      0.10696424E-005
      466.76920      0.10950363E-005
      466.94920      0.11216937E-005
      467.12920      0.11496245E-005
      467.30920      0.11788391E-005
      467.48920      0.12093483E-005
      467.66920      0.12411635E-005
      467.84920      0.12742966E-005
      468.02920      0.13087597E-005
      468.20920      0.13445656E-005
      468.38920      0.13817273E-005
      468.56920      0.14202582E-005
      468.74920      0.14601721E-005
      468.92920      0.15014832E-005
      469.10920      0.15442056E-005
      469.28920      0.15883541E-005
      469.46920      0.16339435E-005
      469.64920      0.16809888E-005
      469.82920      0.17295052E-005
      470.00920      0.17795081E-005
      470.18920      0.18310129E-005
      470.36920      0.18840352E-005
      470.54920      0.19385905E-005
      470.72920      0.19946945E-005
      470.90920      0.20523629E-005
      471.08920      0.21116111E-005
      471.26920      0.21724548E-005
      471.44920      0.22349092E-005
      471.62920      0.22989899E-005
      471.80920      0.23647117E-005
      471.98920      0.24320898E-005
      472.16920      0.25011387E-005
      472.34920      0.25718731E-005
      472.52920      0.26443070E-005
      472.70920      0.27184542E-005
      472.88920      0.27943284E-005
      473.06920      0.28719426E-005
      473.24920      0.29513095E-005
      473.42920      0.30324413E-005
      473.60920      0.31153498E-005
      473.78920      0.32000463E-005
      473.96920      0.32865414E-005
      474.14920      0.33748453E-005
      474.32920      0.34649674E-005
      474.50920      0.35569166E-005
      474.68920      0.36507009E-005
      474.86920      0.37463280E-005
      475.04920      0.38438044E-005
      475.22920      0.39431361E-005
      475.40920      0.40443281E-005
      475.58920      0.41473847E-005
      475.76920      0.42523093E-005
      475.94920      0.43591043E-005
      476.12920      0.44677713E-005
      476.30920      0.45783108E-005
      476.48920      0.46907224E-005
      476.66920      0.48050045E-005
      476.84920      0.49211547E-005
      477.02920      0.50391693E-005
      477.20920      0.51590435E-005
      477.38920      0.52807715E-005
      477.56920      0.54043461E-005
      477.74920      0.55297592E-005
      477.92920      0.56570013E-005
      478.10920      0.57860615E-005
      478.28920      0.59169280E-005
      478.46920      0.60495874E-005
      478.64920      0.61840250E-005
      478.82920      0.63202250E-005
      479.00920      0.64581700E-005
      479.18920      0.65978414E-005
      479.36920      0.67392189E-005
      479.54920      0.68822813E-005
      479.72920      0.70270055E-005
      479.90920      0.71733672E-005
      480.08920      0.73213405E-005
      480.26920      0.74708983E-005
      480.44920      0.76220117E-005
      480.62920      0.77746505E-005
      480.80920      0.79287830E-005
      480.98920      0.80843759E-005
      481.16920      0.82413946E-005
      481.34920      0.83998027E-005
      481.52920      0.85595626E-005
      481.70920      0.87206349E-005
      481.88920      0.88829790E-005
      482.06920      0.90465526E-005
      482.24920      0.92113118E-005
      482.42920      0.93772116E-005
      482.60920      0.95442050E-005
      482.78920      0.97122439E-005
      482.96920      0.98812786E-005
      483.14920      0.10051258E-004
      483.32920      0.10222130E-004
      483.50920      0.10393839E-004
      483.68920      0.10566332E-004
      483.86920      0.10739550E-004
      484.04920      0.10913436E-004
      484.22920      0.11087931E-004
      484.40920      0.11262974E-004
      484.58920      0.11438502E-004
      484.76920      0.11614452E-004
      484.94920      0.11790760E-004
      485.12920      0.11967360E-004
      485.30920      0.12144186E-004
      485.48920      0.12321168E-004
      485.66920      0.12498239E-004
      485.84920      0.12675328E-004
      486.02920      0.12852363E-004
      486.20920      0.13029274E-004
      486.38920      0.13205986E-004
      486.56920      0.13382427E-004
      486.74920      0.13558520E-004
      486.92920      0.13734192E-004
      487.10920      0.13909365E-004
      487.28920      0.14083963E-004
      487.46920      0.14257909E-004
      487.64920      0.14431124E-004
      487.82920      0.14603529E-004
      488.00920      0.14775047E-004
      488.18920      0.14945596E-004
      488.36920      0.15115099E-004
      488.54920      0.15283474E-004
      488.72920      0.15450641E-004
      488.90920      0.15616520E-004
      489.08920      0.15781031E-004
      489.26920      0.15944093E-004
      489.44920      0.16105626E-004
      489.62920      0.16265549E-004
      489.80920      0.16423782E-004
      489.98920      0.16580245E-004
      490.16920      0.16734858E-004
      490.34920      0.16887542E-004
      490.52920      0.17038219E-004
      490.70920      0.17186809E-004
      490.88920      0.17333235E-004
      491.06920      0.17477421E-004
      491.24920      0.17619288E-004
      491.42920      0.17758762E-004
      491.60920      0.17895768E-004
      491.78920      0.18030232E-004
      491.96920      0.18162081E-004
      492.14920      0.18291242E-004
      492.32920      0.18417646E-004
      492.50920      0.18541221E-004
      492.68920      0.18661900E-004
      492.86920      0.18779616E-004
      493.04920      0.18894302E-004
      493.22920      0.19005895E-004
      493.40920      0.19114331E-004
      493.58920      0.19219549E-004
      493.76920      0.19321488E-004
      493.94920      0.19420092E-004
      494.12920      0.19515302E-004
      494.30920      0.19607065E-004
      494.48920      0.19695328E-004
      494.66920      0.19780039E-004
      494.84920      0.19861150E-004
      495.02920      0.19938612E-004
      495.20920      0.20012382E-004
      495.38920      0.20082415E-004
      495.56920      0.20148670E-004
      495.74920      0.20211110E-004
      495.92920      0.20269696E-004
      496.10920      0.20324394E-004
      496.28920      0.20375172E-004
      496.46920      0.20422000E-004
      496.64920      0.20464850E-004
      496.82920      0.20503697E-004
      497.00920      0.20538516E-004
      497.18920      0.20569289E-004
      497.36920      0.20595996E-004
      497.54920      0.20618621E-004
      497.72920      0.20637150E-004
      497.90920      0.20651574E-004
      498.08920      0.20661882E-004
      498.26920      0.20668070E-004
      498.44920      0.20670132E-004
      498.62920      0.20668069E-004
      498.80920      0.20661880E-004
      498.98920      0.20651571E-004
      499.16920      0.20637146E-004
      499.34920      0.20618616E-004
      499.52920      0.20595990E-004
      499.70920      0.20569282E-004
      499.88920      0.20538508E-004
      500.06920      0.20503687E-004
      500.24920      0.20464840E-004
      500.42920      0.20421988E-004
      500.60920      0.20375159E-004
      500.78920      0.20324380E-004
      500.96920      0.20269680E-004
      501.14920      0.20211092E-004
      501.32920      0.20148651E-004
      501.50920      0.20082394E-004
      501.68920      0.20012359E-004
      501.86920      0.19938588E-004
      502.04920      0.19861124E-004
      502.22920      0.19780011E-004
      502.40920      0.19695298E-004
      502.58920      0.19607033E-004
      502.76920      0.19515267E-004
      502.94920      0.19420054E-004
      503.12920      0.19321448E-004
      503.30920      0.19219505E-004
      503.48920      0.19114285E-004
      503.66920      0.19005845E-004
      503.84920      0.18894249E-004
      504.02920      0.18779559E-004
      504.20920      0.18661839E-004
      504.38920      0.18541156E-004
      504.56920      0.18417576E-004
      504.74920      0.18291168E-004
      504.92920      0.18162001E-004
      505.10920      0.18030147E-004
      505.28920      0.17895678E-004
      505.46920      0.17758665E-004
      505.64920      0.17619185E-004
      505.82920      0.17477310E-004
      506.00920      0.17333117E-004
      506.18920      0.17186683E-004
      506.36920      0.17038085E-004
      506.54920      0.16887399E-004
      506.72920      0.16734705E-004
      506.90920      0.16580082E-004
      507.08920      0.16423609E-004
      507.26920      0.16265364E-004
      507.44920      0.16105430E-004
      507.62920      0.15943884E-004
      507.80920      0.15780809E-004
      507.98920      0.15616283E-004
      508.16920      0.15450389E-004
      508.34920      0.15283205E-004
      508.52920      0.15114813E-004
      508.70920      0.14945293E-004
      508.88920      0.14774724E-004
      509.06920      0.14603186E-004
      509.24920      0.14430759E-004
      509.42920      0.14257521E-004
      509.60920      0.14083551E-004
      509.78920      0.13908927E-004
      509.96920      0.13733727E-004
      510.14920      0.13558026E-004
      510.32920      0.13381902E-004
      510.50920      0.13205429E-004
      510.68920      0.13028682E-004
      510.86920      0.12851735E-004
      511.04920      0.12674661E-004
      511.22920      0.12497531E-004
      511.40920      0.12320417E-004
      511.58920      0.12143389E-004
      511.76920      0.11966516E-004
      511.94920      0.11789864E-004
      512.12920      0.11613502E-004
      512.30920      0.11437495E-004
      512.48920      0.11261907E-004
      512.66920      0.11086801E-004
      512.84920      0.10912239E-004
      513.02920      0.10738282E-004
      513.20920      0.10564988E-004
      513.38920      0.10392416E-004
      513.56920      0.10220623E-004
      513.74920      0.10049663E-004
      513.92920      0.98795904E-005
      514.10920      0.97104572E-005
      514.28920      0.95423145E-005
      514.46920      0.93752115E-005
      514.64920      0.92091961E-005
      514.82920      0.90443149E-005
      515.00920      0.88806128E-005
      515.18920      0.87181331E-005
      515.36920      0.85569178E-005
      515.54920      0.83970072E-005
      515.72920      0.82384403E-005
      515.90920      0.80812543E-005
      516.08920      0.79254850E-005
      516.26920      0.77711668E-005
      516.44920      0.76183324E-005
      516.62920      0.74670129E-005
      516.80920      0.73172382E-005
      516.98920      0.71690365E-005
      517.16920      0.70224343E-005
      517.34920      0.68774571E-005
      517.52920      0.67341284E-005
      517.70920      0.65924706E-005
      517.88920      0.64525044E-005
      518.06920      0.63142493E-005
      518.24920      0.61777232E-005
      518.42920      0.60429426E-005
      518.60920      0.59099226E-005
      518.78920      0.57786770E-005
      518.96920      0.56492182E-005
      519.14920      0.55215573E-005
      519.32920      0.53957041E-005
      519.50920      0.52716670E-005
      519.68920      0.51494531E-005
      519.86920      0.50290686E-005
      520.04920      0.49105180E-005
      520.22920      0.47938050E-005
      520.40920      0.46789319E-005
      520.58920      0.45658999E-005
      520.76920      0.44547091E-005
      520.94920      0.43453586E-005
      521.12920      0.42378462E-005
      521.30920      0.41321689E-005
      521.48920      0.40283226E-005
      521.66920      0.39263022E-005
      521.84920      0.38261017E-005
      522.02920      0.37277141E-005
      522.20920      0.36311316E-005
      522.38920      0.35363455E-005
      522.56920      0.34433462E-005
      522.74920      0.33521233E-005
      522.92920      0.32626658E-005
      523.10920      0.31749618E-005
      523.28920      0.30889986E-005
      523.46920      0.30047631E-005
      523.64920      0.29222411E-005
      523.82920      0.28414183E-005
      524.00920      0.27622794E-005
      524.18920      0.26848086E-005
      524.36920      0.26089897E-005
      524.54920      0.25348058E-005
      524.72920      0.24622397E-005
      524.90920      0.23912736E-005
      525.08920      0.23218894E-005
      525.26920      0.22540683E-005
      525.44920      0.21877915E-005
      525.62920      0.21230395E-005
      525.80920      0.20597928E-005
      525.98920      0.19980314E-005
      526.16920      0.19377349E-005
      526.34920      0.18788830E-005
      526.52920      0.18214548E-005
      526.70920      0.17654295E-005
      526.88920      0.17107859E-005
      527.06920      0.16575027E-005
      527.24920      0.16055585E-005
      527.42920      0.15549317E-005
      527.60920      0.15056007E-005
      527.78920      0.14575438E-005
      527.96920      0.14107391E-005
      528.14920      0.13651649E-005
      528.32920      0.13207993E-005
      528.50920      0.12776204E-005
      528.68920      0.12356064E-005
      528.86920      0.11947355E-005
      529.04920      0.11549859E-005
      529.22920      0.11163359E-005
      529.40920      0.10787640E-005
      529.58920      0.10422485E-005
      529.76920      0.10067680E-005
      529.94920      0.97230121E-006
      530.12920      0.93882699E-006
      530.30920      0.90632427E-006
      530.48920      0.87477217E-006
      530.66920      0.84414997E-006
      530.84920      0.81443712E-006
      531.02920      0.78561328E-006
      531.20920      0.75765829E-006
      531.38920      0.73055218E-006
      531.56920      0.70427522E-006
      531.74920      0.67880789E-006
      531.92920      0.65413088E-006
      532.10920      0.63022515E-006
      532.28920      0.60707187E-006
      532.46920      0.58465248E-006
      532.64920      0.56294865E-006
      532.82920      0.54194232E-006
      533.00920      0.52161571E-006
      533.18920      0.50195127E-006
      533.36920      0.48293175E-006
      533.54920      0.46454016E-006
      533.72920      0.44675978E-006
      533.90920      0.42957419E-006
      534.08920      0.41296724E-006
      534.26920      0.39692304E-006
      534.44920      0.38142604E-006
      534.62920      0.36646091E-006
      534.80920      0.35201266E-006
      534.98920      0.33806656E-006
      535.16920      0.32460817E-006
      535.34920      0.31162335E-006
      535.52920      0.29909822E-006
      535.70920      0.28701921E-006
      535.88920      0.27537304E-006
      536.06920      0.26414669E-006
      536.24920      0.25332743E-006
      536.42920      0.24290283E-006
      536.60920      0.23286072E-006
      536.78920      0.22318922E-006
      536.96920      0.21387670E-006
      537.14920      0.20491184E-006
      537.32920      0.19628356E-006
      537.50920      0.18798106E-006
      537.68920      0.17999381E-006
      537.86920      0.17231154E-006
      538.04920      0.16492422E-006
      538.22920      0.15782211E-006
      538.40920      0.15099569E-006
      538.58920      0.14443569E-006
      538.76920      0.13813312E-006
      538.94920      0.13207920E-006
      539.12920      0.12626540E-006
      539.30920      0.12068341E-006
      539.48920      0.11532516E-006
      539.66920      0.11018282E-006
      539.84920      0.10524877E-006
      540.02920      0.10051559E-006
      540.20920      0.95976115E-007
      540.38920      0.91623357E-007
      540.56920      0.87450548E-007
      540.74920      0.83451120E-007
      540.92920      0.79618706E-007
      541.10920      0.75947129E-007
      541.28920      0.72430404E-007
      541.46920      0.69062733E-007
      541.64920      0.65838498E-007
      541.82920      0.62752260E-007
      542.00920      0.59798754E-007
      542.18920      0.56972883E-007
      542.36920      0.54269718E-007
      542.54920      0.51684490E-007
      542.72920      0.49212589E-007
      542.90920      0.46849557E-007
      543.08920      0.44591089E-007
      543.26920      0.42433022E-007
      543.44920      0.40371338E-007
      543.62920      0.38402159E-007
      543.80920      0.36521738E-007
      543.98920      0.34726462E-007
      544.16920      0.33012844E-007
      544.34920      0.31377522E-007
      544.52920      0.29817254E-007
      544.70920      0.28328916E-007
      544.88920      0.26909497E-007
      545.06920      0.25556095E-007
      545.24920      0.24265918E-007
      545.42920      0.23036275E-007
      545.60920      0.21864577E-007
      545.78920      0.20748333E-007
      545.96920      0.19685146E-007
      546.14920      0.18672711E-007
      546.32920      0.17708812E-007
      546.50920      0.16791317E-007
      546.68920      0.15918180E-007
      546.86920      0.15087434E-007
      547.04920      0.14297188E-007
      547.22920      0.13545629E-007
      547.40920      0.12831016E-007
      547.58920      0.12151677E-007
      547.76920      0.11506008E-007
      547.94920      0.10892472E-007
      548.12920      0.10309593E-007
      548.30920      0.97559578E-008
      548.48920      0.92302103E-008
      548.66920      0.87310521E-008
      548.84920      0.82572393E-008
      549.02920      0.78075804E-008
      549.20920      0.73809346E-008
      549.38920      0.69762102E-008
      549.56920      0.65923622E-008
      549.74920      0.62283910E-008
      549.92920      0.58833404E-008
      550.10920      0.55562962E-008
      550.28920      0.52463844E-008
      550.46920      0.49527696E-008
      550.64920      0.46746538E-008
      550.82920      0.44112744E-008
      551.00920      0.41619035E-008
      551.18920      0.39258458E-008
      551.36920      0.37024378E-008
      551.54920      0.34910464E-008
      551.72920      0.32910673E-008
      551.90920      0.31019244E-008
      552.08920      0.29230682E-008
      552.26920      0.27539751E-008
      552.44920      0.25941457E-008
      552.62920      0.24431044E-008
      552.80920      0.23003980E-008
      552.98920      0.21655951E-008
      553.16920      0.20382846E-008
      553.34920      0.19180755E-008
      553.52920      0.18045955E-008
      553.70920      0.16974905E-008
      553.88920      0.15964236E-008
      554.06920      0.15010744E-008
      554.24920      0.14111384E-008
      554.42920      0.13263261E-008
      554.60920      0.12463623E-008
      554.78920      0.11709857E-008
      554.96920      0.10999481E-008
      555.14920      0.10330138E-008
      555.32920      0.96995889E-009
      555.50920      0.91057106E-009
      555.68920      0.85464875E-009
      555.86920      0.80200076E-009
      556.04920      0.75244577E-009
      556.22920      0.70581183E-009
      556.40920      0.66193594E-009
      556.58920      0.62066363E-009
      556.76920      0.58184852E-009
      556.94920      0.54535196E-009
      557.12920      0.51104262E-009
      557.30920      0.47879617E-009
      557.48920      0.44849491E-009
      557.66920      0.42002745E-009
      557.84920      0.39328839E-009
      558.02920      0.36817805E-009
      558.20920      0.34460213E-009
      558.38920      0.32247149E-009
      558.56920      0.30170186E-009
      558.74920      0.28221362E-009
      558.92920      0.26393151E-009
      559.10920      0.24678447E-009
      559.28920      0.23070537E-009
      559.46920      0.21563085E-009
      559.64920      0.20150109E-009
      559.82920      0.18825962E-009
      560.00920      0.17585320E-009
      560.18920      0.16423158E-009
      560.36920      0.15334739E-009
      560.54920      0.14315595E-009
      560.72920      0.13361515E-009
      560.90920      0.12468532E-009
      561.08920      0.11632907E-009
      561.26920      0.10851117E-009
      561.44920      0.10119848E-009
      561.62920      0.94359757E-010
      561.80920      0.87965615E-010
      561.98920      0.81988394E-010
      562.16920      0.76402069E-010
      562.34920      0.71182160E-010
      562.52920      0.66305645E-010
      562.70920      0.61750880E-010
      562.88920      0.57497519E-010
      563.06920      0.53526440E-010
      563.24920      0.49819678E-010
      563.42920      0.46360358E-010
      563.60920      0.43132630E-010
      563.78920      0.40121616E-010
      563.96920      0.37313345E-010
      564.14920      0.34694710E-010
      564.32920      0.32253410E-010
      564.50920      0.29977908E-010
      564.68920      0.27857382E-010
      564.86920      0.25881688E-010
      565.04920      0.24041313E-010
      565.22920      0.22327345E-010
      565.40920      0.20731431E-010
      565.58920      0.19245747E-010
      565.76920      0.17862967E-010
      565.94920      0.16576227E-010
      566.12920      0.15379107E-010
      566.30920      0.14265593E-010
      566.48920      0.13230061E-010
      566.66920      0.12267249E-010
      566.84920      0.11372234E-010
      567.02920      0.10540415E-010
      567.20920      0.97674895E-011
      567.38920      0.90494355E-011
      567.56920      0.83824955E-011
      567.74920      0.77631588E-011
      567.92920      0.71881464E-011
      568.10920      0.66543963E-011
      568.28920      0.61590498E-011
      568.46920      0.56994385E-011
      568.64920      0.52730724E-011
      568.82920      0.48776282E-011
      569.00920      0.45109391E-011
      569.18920      0.41709841E-011
      569.36920      0.38558791E-011
      569.54920      0.35638677E-011
      569.72920      0.32933134E-011
      569.90920      0.30426909E-011
      570.08920      0.28105798E-011
      570.26920      0.25956571E-011
      570.44920      0.23966908E-011
      570.62920      0.22125343E-011
      570.80920      0.20421202E-011
      570.98920      0.18844556E-011
      571.16920      0.17386166E-011
      571.34920      0.16037439E-011
      571.52920      0.14790387E-011
      571.70920      0.13637581E-011
      571.88920      0.12572119E-011
      572.06920      0.11587584E-011
      572.24920      0.10678017E-011
      572.42920      0.98378830E-012
      572.60920      0.90620402E-012
      572.78920      0.83457164E-012
      572.96920      0.76844814E-012
      573.14920      0.70742240E-012
      573.32920      0.65111298E-012
      573.50920      0.59916606E-012
      573.68920      0.55125349E-012
      573.86920      0.50707104E-012
      574.04920      0.46633667E-012
      574.22920      0.42878900E-012
      574.40920      0.39418582E-012
      574.58920      0.36230278E-012
      574.76920      0.33293208E-012
      574.94920      0.30588130E-012
      575.12920      0.28097230E-012
      575.30920      0.25804021E-012
      575.48920      0.23693246E-012
      575.66920      0.21750791E-012
      575.84920      0.19963600E-012
      576.02920      0.18319599E-012
      576.20920      0.16807625E-012
      576.38920      0.15417362E-012
      576.56920      0.14139273E-012
      576.74920      0.12964548E-012
      576.92920      0.11885049E-012
      577.10920      0.10893261E-012
      577.28920      0.99822428E-013
      577.46920      0.91455884E-013
      577.64920      0.83773851E-013
      577.82920      0.76721769E-013
      578.00920      0.70249307E-013
      578.18920      0.64310040E-013
      578.36920      0.58861161E-013
      578.54920      0.53863202E-013
      578.72920      0.49279786E-013
      578.90920      0.45077390E-013
      579.08920      0.41225128E-013
      579.26920      0.37694551E-013
      579.44920      0.34459457E-013
      579.62920      0.31495724E-013
      579.80920      0.28781145E-013
      579.98920      0.26295282E-013
      580.16920      0.24019331E-013
      580.34920      0.21935993E-013
      580.52920      0.20029355E-013
      580.70920      0.18284789E-013
      580.88920      0.16688844E-013
      581.06920      0.15229156E-013
      581.24920      0.13894366E-013
      581.42920      0.12674036E-013
      581.60920      0.11558579E-013
      581.78920      0.10539190E-013
      581.96920      0.96077864E-014
      582.14920      0.87569476E-014
      582.32920      0.79798636E-014
      582.50920      0.72702858E-014
      582.68920      0.66224823E-014
      582.86920      0.60311958E-014
      583.04920      0.54916059E-014
      583.22920      0.49992930E-014
      583.40920      0.45502067E-014
      583.58920      0.41406351E-014
      583.76920      0.37671777E-014
      583.94920      0.34267195E-014
      584.12920      0.31164079E-014
      584.30920      0.28336314E-014
      584.48920      0.25759991E-014
      584.66920      0.23413232E-014
      584.84920      0.21276017E-014
      585.02920      0.19330033E-014
      585.20920      0.17558530E-014
      585.38920      0.15946194E-014
      585.56920      0.14479021E-014
      585.74920      0.13144216E-014
      585.92920      0.11930083E-014
      586.10920      0.10825938E-014
      586.28920      0.98220228E-015
      586.46920      0.89094241E-015
      586.64920      0.80800050E-015
      586.82920      0.73263376E-015
      587.00920      0.66416430E-015
      587.18920      0.60197358E-015
      587.36920      0.54549735E-015
      587.54920      0.49422095E-015
      587.72920      0.44767513E-015
      587.90920      0.40543206E-015
      588.08920      0.36710180E-015
      588.26920      0.33232900E-015
      588.44920      0.30078991E-015
