      380.04780       6.9497249     
      380.22780       6.9634925     
      380.40780       6.9784557     
      380.58780       6.9945964     
      380.76780       7.0118957     
      380.94780       7.0303339     
      381.12780       7.0498907     
      381.30780       7.0705450     
      381.48780       7.0922749     
      381.66780       7.1150579     
      381.84780       7.1388708     
      382.02780       7.1636898     
      382.20780       7.1894902     
      382.38780       7.2162471     
      382.56780       7.2439347     
      382.74780       7.2725265     
      382.92780       7.3019958     
      383.10780       7.3323151     
      383.28780       7.3634564     
      383.46780       7.3953912     
      383.64780       7.4280905     
      383.82780       7.4615250     
      384.00780       7.4956647     
      384.18780       7.5304793     
      384.36780       7.5659381     
      384.54780       7.6020101     
      384.72780       7.6386637     
      384.90780       7.6758673     
      385.08780       7.7135886     
      385.26780       7.7517954     
      385.44780       7.7904549     
      385.62780       7.8295343     
      385.80780       7.8690005     
      385.98780       7.9088201     
      386.16780       7.9489597     
      386.34780       7.9893857     
      386.52780       8.0300642     
      386.70780       8.0709615     
      386.88780       8.1120436     
      387.06780       8.1532766     
      387.24780       8.1946263     
      387.42780       8.2360588     
      387.60780       8.2775401     
      387.78780       8.3190362     
      387.96780       8.3605133     
      388.14780       8.4019374     
      388.32780       8.4432751     
      388.50780       8.4844926     
      388.68780       8.5255567     
      388.86780       8.5664340     
      389.04780       8.6070917     
      389.22780       8.6474970     
      389.40780       8.6876173     
      389.58780       8.7274204     
      389.76780       8.7668744     
      389.94780       8.8059478     
      390.12780       8.8446091     
      390.30780       8.8828276     
      390.48780       8.9205727     
      390.66780       8.9578144     
      390.84780       8.9945230     
      391.02780       9.0306692     
      391.20780       9.0662244     
      391.38780       9.1011602     
      391.56780       9.1354490     
      391.74780       9.1690635     
      391.92780       9.2019771     
      392.10780       9.2341638     
      392.28780       9.2655979     
      392.46780       9.2962547     
      392.64780       9.3261099     
      392.82780       9.3551398     
      393.00780       9.3833215     
      393.18780       9.4106326     
      393.36780       9.4370516     
      393.54780       9.4625576     
      393.72780       9.4871303     
      393.90780       9.5107502     
      394.08780       9.5333988     
      394.26780       9.5550580     
      394.44780       9.5757105     
      394.62780       9.5953401     
      394.80780       9.6139310     
      394.98780       9.6314684     
      395.16780       9.6479384     
      395.34780       9.6633277     
      395.52780       9.6776239     
      395.70780       9.6908156     
      395.88780       9.7028920     
      396.06780       9.7138432     
      396.24780       9.7236604     
      396.42780       9.7323353     
      396.60780       9.7398607     
      396.78780       9.7462302     
      396.96780       9.7514382     
      397.14780       9.7554801     
      397.32780       9.7583522     
      397.50780       9.7600515     
      397.68780       9.7605759     
      397.86780       9.7599243     
      398.04780       9.7580964     
      398.22780       9.7550928     
      398.40780       9.7509150     
      398.58780       9.7455652     
      398.76780       9.7390466     
      398.94780       9.7313632     
      399.12780       9.7225200     
      399.30780       9.7125225     
      399.48780       9.7013774     
      399.66780       9.6890920     
      399.84780       9.6756746     
      400.02780       9.6611340     
      400.20780       9.6454802     
      400.38780       9.6287236     
      400.56780       9.6108757     
      400.74780       9.5919486     
      400.92780       9.5719551     
      401.10780       9.5509089     
      401.28780       9.5288242     
      401.46780       9.5057162     
      401.64780       9.4816006     
      401.82780       9.4564937     
      402.00780       9.4304127     
      402.18780       9.4033753     
      402.36780       9.3753998     
      402.54780       9.3465052     
      402.72780       9.3167110     
      402.90780       9.2860373     
      403.08780       9.2545048     
      403.26780       9.2221347     
      403.44780       9.1889487     
      403.62780       9.1549690     
      403.80780       9.1202182     
      403.98780       9.0847195     
      404.16780       9.0484963     
      404.34780       9.0115726     
      404.52780       8.9739727     
      404.70780       8.9357212     
      404.88780       8.8968431     
      405.06780       8.8573638     
      405.24780       8.8173088     
      405.42780       8.7767038     
      405.60780       8.7355751     
      405.78780       8.6939488     
      405.96780       8.6518514     
      406.14780       8.6093095     
      406.32780       8.5663499     
      406.50780       8.5229994     
      406.68780       8.4792849     
      406.86780       8.4352335     
      407.04780       8.3908721     
      407.22780       8.3462279     
      407.40780       8.3013278     
      407.58780       8.2561988     
      407.76780       8.2108678     
      407.94780       8.1653617     
      408.12780       8.1197071     
      408.30780       8.0739306     
      408.48780       8.0280586     
      408.66780       7.9821173     
      408.84780       7.9361327     
      409.02780       7.8901306     
      409.20780       7.8441365     
      409.38780       7.7981755     
      409.56780       7.7522727     
      409.74780       7.7064526     
      409.92780       7.6607394     
      410.10780       7.6151571     
      410.28780       7.5697292     
      410.46780       7.5244786     
      410.64780       7.4794281     
      410.82780       7.4346000     
      411.00780       7.3900158     
      411.18780       7.3456970     
      411.36780       7.3016642     
      411.54780       7.2579378     
      411.72780       7.2145374     
      411.90780       7.1714822     
      412.08780       7.1287907     
      412.26780       7.0864811     
      412.44780       7.0445707     
      412.62780       7.0030764     
      412.80780       6.9620144     
      412.98780       6.9214003     
      413.16780       6.8812489     
      413.34780       6.8415747     
      413.52780       6.8023912     
      413.70780       6.7637114     
      413.88780       6.7255476     
      414.06780       6.6879114     
      414.24780       6.6508137     
      414.42780       6.6142648     
      414.60780       6.5782742     
      414.78780       6.5428508     
      414.96780       6.5080026     
      415.14780       6.4737370     
      415.32780       6.4400608     
      415.50780       6.4069800     
      415.68780       6.3744999     
      415.86780       6.3426249     
      416.04780       6.3113591     
      416.22780       6.2807055     
      416.40780       6.2506666     
      416.58780       6.2212442     
      416.76780       6.1924392     
      416.94780       6.1642522     
      417.12780       6.1366826     
      417.30780       6.1097297     
      417.48780       6.0833916     
      417.66780       6.0576660     
      417.84780       6.0325500     
      418.02780       6.0080399     
      418.20780       5.9841313     
      418.38780       5.9608195     
      418.56780       5.9380989     
      418.74780       5.9159634     
      418.92780       5.8944061     
      419.10780       5.8734199     
      419.28780       5.8529969     
      419.46780       5.8331286     
      419.64780       5.8138061     
      419.82780       5.7950198     
      420.00780       5.7767599     
      420.18780       5.7590157     
      420.36780       5.7417764     
      420.54780       5.7250305     
      420.72780       5.7087660     
      420.90780       5.6929708     
      421.08780       5.6776320     
      421.26780       5.6627366     
      421.44780       5.6482710     
      421.62780       5.6342214     
      421.80780       5.6205737     
      421.98780       5.6073133     
      422.16780       5.5944254     
      422.34780       5.5818948     
      422.52780       5.5697063     
      422.70780       5.5578442     
      422.88780       5.5462927     
      423.06780       5.5350357     
      423.24780       5.5240569     
      423.42780       5.5133401     
      423.60780       5.5028686     
      423.78780       5.4926258     
      423.96780       5.4825948     
      424.14780       5.4727588     
      424.32780       5.4631008     
      424.50780       5.4536038     
      424.68780       5.4442507     
      424.86780       5.4350246     
      425.04780       5.4259082     
      425.22780       5.4168846     
      425.40780       5.4079367     
      425.58780       5.3990477     
      425.76780       5.3902006     
      425.94780       5.3813786     
      426.12780       5.3725651     
      426.30780       5.3637436     
      426.48780       5.3548975     
      426.66780       5.3460107     
      426.84780       5.3370671     
      427.02780       5.3280507     
      427.20780       5.3189459     
      427.38780       5.3097373     
      427.56780       5.3004095     
      427.74780       5.2909476     
      427.92780       5.2813369     
      428.10780       5.2715629     
      428.28780       5.2616114     
      428.46780       5.2514686     
      428.64780       5.2411208     
      428.82780       5.2305549     
      429.00780       5.2197579     
      429.18780       5.2087172     
      429.36780       5.1974207     
      429.54780       5.1858564     
      429.72780       5.1740129     
      429.90780       5.1618790     
      430.08780       5.1494440     
      430.26780       5.1366976     
      430.44780       5.1236299     
      430.62780       5.1102312     
      430.80780       5.0964924     
      430.98780       5.0824050     
      431.16780       5.0679604     
      431.34780       5.0531510     
      431.52780       5.0379692     
      431.70780       5.0224081     
      431.88780       5.0064611     
      432.06780       4.9901220     
      432.24780       4.9733852     
      432.42780       4.9562454     
      432.60780       4.9386977     
      432.78780       4.9207379     
      432.96780       4.9023619     
      433.14780       4.8835663     
      433.32780       4.8643481     
      433.50780       4.8447045     
      433.68780       4.8246335     
      433.86780       4.8041333     
      434.04780       4.7832026     
      434.22780       4.7618404     
      434.40780       4.7400464     
      434.58780       4.7178204     
      434.76780       4.6951628     
      434.94780       4.6720745     
      435.12780       4.6485566     
      435.30780       4.6246106     
      435.48780       4.6002387     
      435.66780       4.5754430     
      435.84780       4.5502265     
      436.02780       4.5245921     
      436.20780       4.4985435     
      436.38780       4.4720845     
      436.56780       4.4452192     
      436.74780       4.4179522     
      436.92780       4.3902885     
      437.10780       4.3622332     
      437.28780       4.3337919     
      437.46780       4.3049704     
      437.64780       4.2757749     
      437.82780       4.2462119     
      438.00780       4.2162881     
      438.18780       4.1860105     
      438.36780       4.1553864     
      438.54780       4.1244234     
      438.72780       4.0931292     
      438.90780       4.0615118     
      439.08780       4.0295796     
      439.26780       3.9973409     
      439.44780       3.9648045     
      439.62780       3.9319792     
      439.80780       3.8988742     
      439.98780       3.8654986     
      440.16780       3.8318618     
      440.34780       3.7979735     
      440.52780       3.7638433     
      440.70780       3.7294812     
      440.88780       3.6948970     
      441.06780       3.6601009     
      441.24780       3.6251030     
      441.42780       3.5899138     
      441.60780       3.5545435     
      441.78780       3.5190026     
      441.96780       3.4833017     
      442.14780       3.4474514     
      442.32780       3.4114622     
      442.50780       3.3753449     
      442.68780       3.3391101     
      442.86780       3.3027686     
      443.04780       3.2663312     
      443.22780       3.2298085     
      443.40780       3.1932113     
      443.58780       3.1565502     
      443.76780       3.1198361     
      443.94780       3.0830795     
      444.12780       3.0462910     
      444.30780       3.0094813     
      444.48780       2.9726608     
      444.66780       2.9358399     
      444.84780       2.8990291     
      445.02780       2.8622386     
      445.20780       2.8254787     
      445.38780       2.7887594     
      445.56780       2.7520907     
      445.74780       2.7154826     
      445.92780       2.6789449     
      446.10780       2.6424872     
      446.28780       2.6061191     
      446.46780       2.5698499     
      446.64780       2.5336890     
      446.82780       2.4976456     
      447.00780       2.4617285     
      447.18780       2.4259467     
      447.36780       2.3903089     
      447.54780       2.3548235     
      447.72780       2.3194989     
      447.90780       2.2843433     
      448.08780       2.2493648     
      448.26780       2.2145712     
      448.44780       2.1799701     
      448.62780       2.1455691     
      448.80780       2.1113754     
      448.98780       2.0773962     
      449.16780       2.0436384     
      449.34780       2.0101086     
      449.52780       1.9768136     
      449.70780       1.9437595     
      449.88780       1.9109526     
      450.06780       1.8783988     
      450.24780       1.8461039     
      450.42780       1.8140733     
      450.60780       1.7823125     
      450.78780       1.7508266     
      450.96780       1.7196205     
      451.14780       1.6886990     
      451.32780       1.6580666     
      451.50780       1.6277276     
      451.68780       1.5976862     
      451.86780       1.5679463     
      452.04780       1.5385117     
      452.22780       1.5093858     
      452.40780       1.4805719     
      452.58780       1.4520733     
      452.76780       1.4238929     
      452.94780       1.3960333     
      453.12780       1.3684971     
      453.30780       1.3412867     
      453.48780       1.3144043     
      453.66780       1.2878517     
      453.84780       1.2616309     
      454.02780       1.2357433     
      454.20780       1.2101903     
      454.38780       1.1849734     
      454.56780       1.1600934     
      454.74780       1.1355512     
      454.92780       1.1113477     
      455.10780       1.0874832     
      455.28780       1.0639582     
      455.46780       1.0407730     
      455.64780       1.0179274     
      455.82780      0.99542151     
      456.00780      0.97325496     
      456.18780      0.95142736     
      456.36780      0.92993814     
      456.54780      0.90878659     
      456.72780      0.88797186     
      456.90780      0.86749296     
      457.08780      0.84734877     
      457.26780      0.82753803     
      457.44780      0.80805935     
      457.62780      0.78891124     
      457.80780      0.77009206     
      457.98780      0.75160007     
      458.16780      0.73343340     
      458.34780      0.71559011     
      458.52780      0.69806809     
      458.70780      0.68086520     
      458.88780      0.66397914     
      459.06780      0.64740754     
      459.24780      0.63114795     
      459.42780      0.61519782     
      459.60780      0.59955451     
      459.78780      0.58421531     
      459.96780      0.56917743     
      460.14780      0.55443800     
      460.32780      0.53999408     
      460.50780      0.52584268     
      460.68780      0.51198072     
      460.86780      0.49840509     
      461.04780      0.48511261     
      461.22780      0.47210004     
      461.40780      0.45936410     
      461.58780      0.44690146     
      461.76780      0.43470874     
      461.94780      0.42278255     
      462.12780      0.41111942     
      462.30780      0.39971588     
      462.48780      0.38856841     
      462.66780      0.37767348     
      462.84780      0.36702752     
      463.02780      0.35662695     
      463.20780      0.34646816     
      463.38780      0.33654753     
      463.56780      0.32686143     
      463.74780      0.31740622     
      463.92780      0.30817824     
      464.10780      0.29917383     
      464.28780      0.29038934     
      464.46780      0.28182110     
      464.64780      0.27346546     
      464.82780      0.26531876     
      465.00780      0.25737734     
      465.18780      0.24963758     
      465.36780      0.24209584     
      465.54780      0.23474850     
      465.72780      0.22759195     
      465.90780      0.22062262     
      466.08780      0.21383693     
      466.26780      0.20723134     
      466.44780      0.20080231     
      466.62780      0.19454634     
      466.80780      0.18845996     
      466.98780      0.18253970     
      467.16780      0.17678215     
      467.34780      0.17118391     
      467.52780      0.16574160     
      467.70780      0.16045190     
      467.88780      0.15531151     
      468.06780      0.15031715     
      468.24780      0.14546558     
      468.42780      0.14075363     
      468.60780      0.13617811     
      468.78780      0.13173591     
      468.96780      0.12742395     
      469.14780      0.12323917     
      469.32780      0.11917858     
      469.50780      0.11523920     
      469.68780      0.11141812     
      469.86780      0.10771244     
      470.04780      0.10411933     
      470.22780      0.10063600     
      470.40780      0.97259679E-001
      470.58780      0.93987667E-001
      470.76780      0.90817293E-001
      470.94780      0.87745932E-001
      471.12780      0.84771006E-001
      471.30780      0.81889980E-001
      471.48780      0.79100361E-001
      471.66780      0.76399704E-001
      471.84780      0.73785607E-001
      472.02780      0.71255712E-001
      472.20780      0.68807707E-001
      472.38780      0.66439323E-001
      472.56780      0.64148336E-001
      472.74780      0.61932567E-001
      472.92780      0.59789880E-001
      473.10780      0.57718182E-001
      473.28780      0.55715426E-001
      473.46780      0.53779607E-001
      473.64780      0.51908764E-001
      473.82780      0.50100977E-001
      474.00780      0.48354370E-001
      474.18780      0.46667110E-001
      474.36780      0.45037403E-001
      474.54780      0.43463500E-001
      474.72780      0.41943689E-001
      474.90780      0.40476302E-001
      475.08780      0.39059709E-001
      475.26780      0.37692321E-001
      475.44780      0.36372587E-001
      475.62780      0.35098996E-001
      475.80780      0.33870072E-001
      475.98780      0.32684382E-001
      476.16780      0.31540525E-001
      476.34780      0.30437139E-001
      476.52780      0.29372899E-001
      476.70780      0.28346512E-001
      476.88780      0.27356724E-001
      477.06780      0.26402312E-001
      477.24780      0.25482089E-001
      477.42780      0.24594899E-001
      477.60780      0.23739621E-001
      477.78780      0.22915164E-001
      477.96780      0.22120469E-001
      478.14780      0.21354509E-001
      478.32780      0.20616285E-001
      478.50780      0.19904829E-001
      478.68780      0.19219202E-001
      478.86780      0.18558492E-001
      479.04780      0.17921816E-001
      479.22780      0.17308319E-001
      479.40780      0.16717170E-001
      479.58780      0.16147566E-001
      479.76780      0.15598730E-001
      479.94780      0.15069907E-001
      480.12780      0.14560368E-001
      480.30780      0.14069408E-001
      480.48780      0.13596345E-001
      480.66780      0.13140519E-001
      480.84780      0.12701291E-001
      481.02780      0.12278045E-001
      481.20780      0.11870185E-001
      481.38780      0.11477136E-001
      481.56780      0.11098341E-001
      481.74780      0.10733265E-001
      481.92780      0.10381389E-001
      482.10780      0.10042213E-001
      482.28780      0.97152553E-002
      482.46780      0.94000512E-002
      482.64780      0.90961521E-002
      482.82780      0.88031259E-002
      483.00780      0.85205562E-002
      483.18780      0.82480419E-002
      483.36780      0.79851963E-002
      483.54780      0.77316475E-002
      483.72780      0.74870373E-002
      483.90780      0.72510207E-002
      484.08780      0.70232661E-002
      484.26780      0.68034542E-002
      484.44780      0.65912781E-002
      484.62780      0.63864426E-002
      484.80780      0.61886639E-002
      484.98780      0.59976692E-002
      485.16780      0.58131965E-002
      485.34780      0.56349939E-002
      485.52780      0.54628196E-002
      485.70780      0.52964413E-002
      485.88780      0.51356359E-002
      486.06780      0.49801894E-002
      486.24780      0.48298963E-002
      486.42780      0.46845593E-002
      486.60780      0.45439893E-002
      486.78780      0.44080048E-002
      486.96780      0.42764317E-002
      487.14780      0.41491031E-002
      487.32780      0.40258589E-002
      487.50780      0.39065455E-002
      487.68780      0.37910160E-002
      487.86780      0.36791292E-002
      488.04780      0.35707501E-002
      488.22780      0.34657491E-002
      488.40780      0.33640020E-002
      488.58780      0.32653901E-002
      488.76780      0.31697993E-002
      488.94780      0.30771206E-002
      489.12780      0.29872493E-002
      489.30780      0.29000853E-002
      489.48780      0.28155326E-002
      489.66780      0.27334993E-002
      489.84780      0.26538973E-002
      490.02780      0.25766424E-002
      490.20780      0.25016536E-002
      490.38780      0.24288535E-002
      490.56780      0.23581679E-002
      490.74780      0.22895258E-002
      490.92780      0.22228590E-002
      491.10780      0.21581022E-002
      491.28780      0.20951927E-002
      491.46780      0.20340707E-002
      491.64780      0.19746785E-002
      491.82780      0.19169609E-002
      492.00780      0.18608650E-002
      492.18780      0.18063400E-002
      492.36780      0.17533371E-002
      492.54780      0.17018096E-002
      492.72780      0.16517124E-002
      492.90780      0.16030024E-002
      493.08780      0.15556381E-002
      493.26780      0.15095797E-002
      493.44780      0.14647888E-002
      493.62780      0.14212286E-002
      493.80780      0.13788635E-002
      493.98780      0.13376595E-002
      494.16780      0.12975836E-002
      494.34780      0.12586042E-002
      494.52780      0.12206907E-002
      494.70780      0.11838137E-002
      494.88780      0.11479447E-002
      495.06780      0.11130565E-002
      495.24780      0.10791225E-002
      495.42780      0.10461171E-002
      495.60780      0.10140157E-002
      495.78780      0.98279438E-003
      495.96780      0.95242999E-003
      496.14780      0.92290018E-003
      496.32780      0.89418328E-003
      496.50780      0.86625830E-003
      496.68780      0.83910491E-003
      496.86780      0.81270336E-003
      497.04780      0.78703452E-003
      497.22780      0.76207979E-003
      497.40780      0.73782112E-003
      497.58780      0.71424097E-003
      497.76780      0.69132229E-003
      497.94780      0.66904850E-003
      498.12780      0.64740345E-003
      498.30780      0.62637145E-003
      498.48780      0.60593720E-003
      498.66780      0.58608579E-003
      498.84780      0.56680271E-003
      499.02780      0.54807380E-003
      499.20780      0.52988526E-003
      499.38780      0.51222360E-003
      499.56780      0.49507570E-003
      499.74780      0.47842871E-003
      499.92780      0.46227012E-003
      500.10780      0.44658767E-003
      500.28780      0.43136942E-003
      500.46780      0.41660368E-003
      500.64780      0.40227904E-003
      500.82780      0.38838432E-003
      501.00780      0.37490863E-003
      501.18780      0.36184127E-003
      501.36780      0.34917182E-003
      501.54780      0.33689007E-003
      501.72780      0.32498601E-003
      501.90780      0.31344989E-003
      502.08780      0.30227213E-003
      502.26780      0.29144339E-003
      502.44780      0.28095450E-003
      502.62780      0.27079650E-003
      502.80780      0.26096062E-003
      502.98780      0.25143829E-003
      503.16780      0.24222110E-003
      503.34780      0.23330085E-003
      503.52780      0.22466948E-003
      503.70780      0.21631913E-003
      503.88780      0.20824210E-003
      504.06780      0.20043087E-003
      504.24780      0.19287805E-003
      504.42780      0.18557645E-003
      504.60780      0.17851902E-003
      504.78780      0.17169886E-003
      504.96780      0.16510922E-003
      505.14780      0.15874353E-003
      505.32780      0.15259533E-003
      505.50780      0.14665833E-003
      505.68780      0.14092636E-003
      505.86780      0.13539343E-003
      506.04780      0.13005364E-003
      506.22780      0.12490126E-003
      506.40780      0.11993068E-003
      506.58780      0.11513643E-003
      506.76780      0.11051317E-003
      506.94780      0.10605567E-003
      507.12780      0.10175885E-003
      507.30780      0.97617731E-004
      507.48780      0.93627479E-004
      507.66780      0.89783364E-004
      507.84780      0.86080779E-004
      508.02780      0.82515231E-004
      508.20780      0.79082342E-004
      508.38780      0.75777845E-004
      508.56780      0.72597585E-004
      508.74780      0.69537514E-004
      508.92780      0.66593690E-004
      509.10780      0.63762276E-004
      509.28780      0.61039537E-004
      509.46780      0.58421840E-004
      509.64780      0.55905649E-004
      509.82780      0.53487527E-004
      510.00780      0.51164131E-004
      510.18780      0.48932210E-004
      510.36780      0.46788608E-004
      510.54780      0.44730255E-004
      510.72780      0.42754173E-004
      510.90780      0.40857465E-004
      511.08780      0.39037324E-004
      511.26780      0.37291021E-004
      511.44780      0.35615911E-004
      511.62780      0.34009426E-004
      511.80780      0.32469076E-004
      511.98780      0.30992448E-004
      512.16780      0.29577202E-004
      512.34780      0.28221071E-004
      512.52780      0.26921856E-004
      512.70780      0.25677431E-004
      512.88780      0.24485735E-004
      513.06780      0.23344773E-004
      513.24780      0.22252615E-004
      513.42780      0.21207393E-004
      513.60780      0.20207300E-004
      513.78780      0.19250590E-004
      513.96780      0.18335572E-004
      514.14780      0.17460614E-004
      514.32780      0.16624139E-004
      514.50780      0.15824622E-004
      514.68780      0.15060592E-004
      514.86780      0.14330627E-004
      515.04780      0.13633355E-004
      515.22780      0.12967454E-004
      515.40780      0.12331645E-004
      515.58780      0.11724697E-004
      515.76780      0.11145422E-004
      515.94780      0.10592675E-004
      516.12780      0.10065353E-004
      516.30780      0.95623915E-005
      516.48780      0.90827675E-005
      516.66780      0.86254943E-005
      516.84780      0.81896225E-005
      517.02780      0.77742381E-005
      517.20780      0.73784618E-005
      517.38780      0.70014477E-005
      517.56780      0.66423820E-005
      517.74780      0.63004826E-005
      517.92780      0.59749976E-005
      518.10780      0.56652042E-005
      518.28780      0.53704084E-005
      518.46780      0.50899431E-005
      518.64780      0.48231683E-005
      518.82780      0.45694690E-005
      519.00780      0.43282555E-005
      519.18780      0.40989615E-005
      519.36780      0.38810441E-005
      519.54780      0.36739826E-005
      519.72780      0.34772777E-005
      519.90780      0.32904507E-005
      520.08780      0.31130430E-005
      520.26780      0.29446154E-005
      520.44780      0.27847468E-005
      520.62780      0.26330345E-005
      520.80780      0.24890926E-005
      520.98780      0.23525519E-005
      521.16780      0.22230592E-005
      521.34780      0.21002765E-005
      521.52780      0.19838806E-005
      521.70780      0.18735626E-005
      521.88780      0.17690271E-005
      522.06780      0.16699919E-005
      522.24780      0.15761873E-005
      522.42780      0.14873557E-005
      522.60780      0.14032512E-005
      522.78780      0.13236391E-005
      522.96780      0.12482951E-005
      523.14780      0.11770055E-005
      523.32780      0.11095663E-005
      523.50780      0.10457829E-005
      523.68780      0.98546978E-006
      523.86780      0.92845019E-006
      524.04780      0.87455557E-006
      524.22780      0.82362534E-006
      524.40780      0.77550656E-006
      524.58780      0.73005358E-006
      524.76780      0.68712772E-006
      524.94780      0.64659698E-006
      525.12780      0.60833574E-006
      525.30780      0.57222451E-006
      525.48780      0.53814961E-006
      525.66780      0.50600295E-006
      525.84780      0.47568178E-006
      526.02780      0.44708842E-006
      526.20780      0.42013005E-006
      526.38780      0.39471853E-006
      526.56780      0.37077010E-006
      526.74780      0.34820524E-006
      526.92780      0.32694849E-006
      527.10780      0.30692818E-006
      527.28780      0.28807635E-006
      527.46780      0.27032851E-006
      527.64780      0.25362351E-006
      527.82780      0.23790335E-006
      528.00780      0.22311306E-006
      528.18780      0.20920056E-006
      528.36780      0.19611646E-006
      528.54780      0.18381403E-006
      528.72780      0.17224898E-006
      528.90780      0.16137938E-006
      529.08780      0.15116553E-006
      529.26780      0.14156989E-006
      529.44780      0.13255692E-006
      529.62780      0.12409300E-006
      529.80780      0.11614633E-006
      529.98780      0.10868688E-006
      530.16780      0.10168621E-006
      530.34780      0.95117495E-007
      530.52780      0.88955354E-007
      530.70780      0.83175828E-007
      530.88780      0.77756291E-007
      531.06780      0.72675376E-007
      531.24780      0.67912919E-007
      531.42780      0.63449887E-007
      531.60780      0.59268326E-007
      531.78780      0.55351298E-007
      531.96780      0.51682833E-007
      532.14780      0.48247871E-007
      532.32780      0.45032219E-007
      532.50780      0.42022499E-007
      532.68780      0.39206109E-007
      532.86780      0.36571178E-007
      533.04780      0.34106527E-007
      533.22780      0.31801630E-007
      533.40780      0.29646580E-007
      533.58780      0.27632053E-007
      533.76780      0.25749277E-007
      533.94780      0.23990001E-007
      534.12780      0.22346464E-007
      534.30780      0.20811371E-007
      534.48780      0.19377864E-007
      534.66780      0.18039498E-007
      534.84780      0.16790217E-007
      535.02780      0.15624334E-007
      535.20780      0.14536506E-007
      535.38780      0.13521718E-007
      535.56780      0.12575262E-007
      535.74780      0.11692720E-007
      535.92780      0.10869945E-007
      536.10780      0.10103050E-007
      536.28780      0.93883864E-008
      536.46780      0.87225354E-008
      536.64780      0.81022911E-008
      536.82780      0.75246493E-008
      537.00780      0.69867951E-008
      537.18780      0.64860915E-008
      537.36780      0.60200688E-008
      537.54780      0.55864144E-008
      537.72780      0.51829637E-008
      537.90780      0.48076905E-008
      538.08780      0.44586989E-008
      538.26780      0.41342155E-008
      538.44780      0.38325814E-008
      538.62780      0.35522456E-008
      538.80780      0.32917580E-008
      538.98780      0.30497632E-008
      539.16780      0.28249949E-008
      539.34780      0.26162697E-008
      539.52780      0.24224827E-008
      539.70780      0.22426018E-008
      539.88780      0.20756635E-008
      540.06780      0.19207686E-008
      540.24780      0.17770779E-008
      540.42780      0.16438084E-008
      540.60780      0.15202298E-008
      540.78780      0.14056610E-008
      540.96780      0.12994670E-008
      541.14780      0.12010559E-008
      541.32780      0.11098761E-008
      541.50780      0.10254136E-008
      541.68780      0.94718975E-009
      541.86780      0.87475856E-009
      542.04780      0.80770491E-009
      542.22780      0.74564232E-009
      542.40780      0.68821113E-009
      542.58780      0.63507664E-009
      542.76780      0.58592752E-009
      542.94780      0.54047419E-009
      543.12780      0.49844740E-009
      543.30780      0.45959682E-009
      543.48780      0.42368979E-009
      543.66780      0.39051013E-009
      543.84780      0.35985696E-009
      544.02780      0.33154373E-009
      544.20780      0.30539719E-009
      544.38780      0.28125650E-009
      544.56780      0.25897235E-009
      544.74780      0.23840620E-009
      544.92780      0.21942949E-009
      545.10780      0.20192298E-009
      545.28780      0.18577608E-009
      545.46780      0.17088627E-009
      545.64780      0.15715849E-009
      545.82780      0.14450465E-009
      546.00780      0.13284313E-009
      546.18780      0.12209832E-009
      546.36780      0.11220019E-009
      546.54780      0.10308389E-009
      546.72780      0.94689389E-010
      546.90780      0.86961121E-010
      547.08780      0.79847671E-010
      547.26780      0.73301469E-010
      547.44780      0.67278518E-010
      547.62780      0.61738127E-010
      547.80780      0.56642680E-010
      547.98780      0.51957404E-010
      548.16780      0.47650164E-010
      548.34780      0.43691269E-010
      548.52780      0.40053293E-010
      548.70780      0.36710905E-010
      548.88780      0.33640719E-010
      549.06780      0.30821143E-010
      549.24780      0.28232253E-010
      549.42780      0.25855659E-010
      549.60780      0.23674402E-010
      549.78780      0.21672834E-010
      549.96780      0.19836531E-010
      550.14780      0.18152190E-010
      550.32780      0.16607553E-010
      550.50780      0.15191321E-010
      550.68780      0.13893088E-010
      550.86780      0.12703263E-010
      551.04780      0.11613019E-010
      551.22780      0.10614224E-010
      551.40780      0.96993963E-011
      551.58780      0.88616471E-011
      551.76780      0.80946392E-011
      551.94780      0.73925428E-011
      552.12780      0.67499958E-011
      552.30780      0.61620677E-011
      552.48780      0.56242256E-011
      552.66780      0.51323031E-011
      552.84780      0.46824718E-011
      553.02780      0.42712142E-011
      553.20780      0.38952993E-011
      553.38780      0.35517600E-011
      553.56780      0.32378722E-011
      553.74780      0.29511352E-011
      553.92780      0.26892538E-011
      554.10780      0.24501225E-011
      554.28780      0.22318094E-011
      554.46780      0.20325429E-011
      554.64780      0.18506983E-011
      554.82780      0.16847864E-011
      555.00780      0.15334420E-011
      555.18780      0.13954144E-011
      555.36780      0.12695573E-011
      555.54780      0.11548212E-011
      555.72780      0.10502447E-011
      555.90780      0.95494756E-012
      556.08780      0.86812421E-012
      556.26780      0.78903726E-012
      556.44780      0.71701207E-012
      556.62780      0.65143145E-012
      556.80780      0.59173094E-012
      556.98780      0.53739440E-012
      557.16780      0.48794998E-012
      557.34780      0.44296639E-012
      557.52780      0.40204952E-012
      557.70780      0.36483931E-012
      557.88780      0.33100687E-012
      558.06780      0.30025185E-012
      558.24780      0.27230002E-012
      558.42780      0.24690107E-012
      558.60780      0.22382653E-012
      558.78780      0.20286796E-012
      558.96780      0.18383520E-012
      559.14780      0.16655481E-012
      559.32780      0.15086864E-012
      559.50780      0.13663252E-012
      559.68780      0.12371504E-012
      559.86780      0.11199644E-012
      560.04780      0.10136762E-012
