      442.12650      0.16409929E-002
      442.30650      0.16459622E-002
      442.48650      0.16506589E-002
      442.66650      0.16550807E-002
      442.84650      0.16592254E-002
      443.02650      0.16630912E-002
      443.20650      0.16666762E-002
      443.38650      0.16699787E-002
      443.56650      0.16729972E-002
      443.74650      0.16757304E-002
      443.92650      0.16781769E-002
      444.10650      0.16803357E-002
      444.28650      0.16822060E-002
      444.46650      0.16837869E-002
      444.64650      0.16850777E-002
      444.82650      0.16860781E-002
      445.00650      0.16867878E-002
      445.18650      0.16872064E-002
      445.36650      0.16873342E-002
      445.54650      0.16871711E-002
      445.72650      0.16867175E-002
      445.90650      0.16859739E-002
      446.08650      0.16849408E-002
      446.26650      0.16836189E-002
      446.44650      0.16820093E-002
      446.62650      0.16801128E-002
      446.80650      0.16779308E-002
      446.98650      0.16754644E-002
      447.16650      0.16727153E-002
      447.34650      0.16696850E-002
      447.52650      0.16663753E-002
      447.70650      0.16627881E-002
      447.88650      0.16589254E-002
      448.06650      0.16547893E-002
      448.24650      0.16503823E-002
      448.42650      0.16457066E-002
      448.60650      0.16407650E-002
      448.78650      0.16355600E-002
      448.96650      0.16300944E-002
      449.14650      0.16243713E-002
      449.32650      0.16183935E-002
      449.50650      0.16121644E-002
      449.68650      0.16056872E-002
      449.86650      0.15989652E-002
      450.04650      0.15920019E-002
      450.22650      0.15848010E-002
      450.40650      0.15773662E-002
      450.58650      0.15697011E-002
      450.76650      0.15618098E-002
      450.94650      0.15536961E-002
      451.12650      0.15453642E-002
      451.30650      0.15368182E-002
      451.48650      0.15280623E-002
      451.66650      0.15191008E-002
      451.84650      0.15099381E-002
      452.02650      0.15005786E-002
      452.20650      0.14910270E-002
      452.38650      0.14812876E-002
      452.56650      0.14713653E-002
      452.74650      0.14612646E-002
      452.92650      0.14509903E-002
      453.10650      0.14405473E-002
      453.28650      0.14299402E-002
      453.46650      0.14191742E-002
      453.64650      0.14082539E-002
      453.82650      0.13971845E-002
      454.00650      0.13859708E-002
      454.18650      0.13746179E-002
      454.36650      0.13631309E-002
      454.54650      0.13515147E-002
      454.72650      0.13397745E-002
      454.90650      0.13279152E-002
      455.08650      0.13159421E-002
      455.26650      0.13038602E-002
      455.44650      0.12916747E-002
      455.62650      0.12793905E-002
      455.80650      0.12670128E-002
      455.98650      0.12545467E-002
      456.16650      0.12419972E-002
      456.34650      0.12293695E-002
      456.52650      0.12166685E-002
      456.70650      0.12038993E-002
      456.88650      0.11910669E-002
      457.06650      0.11781762E-002
      457.24650      0.11652322E-002
      457.42650      0.11522398E-002
      457.60650      0.11392039E-002
      457.78650      0.11261293E-002
      457.96650      0.11130208E-002
      458.14650      0.10998832E-002
      458.32650      0.10867211E-002
      458.50650      0.10735393E-002
      458.68650      0.10603423E-002
      458.86650      0.10471347E-002
      459.04650      0.10339210E-002
      459.22650      0.10207056E-002
      459.40650      0.10074929E-002
      459.58650      0.99428734E-003
      459.76650      0.98109304E-003
      459.94650      0.96791425E-003
      460.12650      0.95475509E-003
      460.30650      0.94161963E-003
      460.48650      0.92851184E-003
      460.66650      0.91543565E-003
      460.84650      0.90239490E-003
      461.02650      0.88939337E-003
      461.20650      0.87643475E-003
      461.38650      0.86352266E-003
      461.56650      0.85066063E-003
      461.74650      0.83785212E-003
      461.92650      0.82510053E-003
      462.10650      0.81240914E-003
      462.28650      0.79978118E-003
      462.46650      0.78721978E-003
      462.64650      0.77472799E-003
      462.82650      0.76230879E-003
      463.00650      0.74996505E-003
      463.18650      0.73769957E-003
      463.36650      0.72551507E-003
      463.54650      0.71341419E-003
      463.72650      0.70139945E-003
      463.90650      0.68947333E-003
      464.08650      0.67763820E-003
      464.26650      0.66589633E-003
      464.44650      0.65424994E-003
      464.62650      0.64270114E-003
      464.80650      0.63125195E-003
      464.98650      0.61990433E-003
      465.16650      0.60866014E-003
      465.34650      0.59752116E-003
      465.52650      0.58648907E-003
      465.70650      0.57556548E-003
      465.88650      0.56475194E-003
      466.06650      0.55404987E-003
      466.24650      0.54346064E-003
      466.42650      0.53298553E-003
      466.60650      0.52262576E-003
      466.78650      0.51238243E-003
      466.96650      0.50225660E-003
      467.14650      0.49224924E-003
      467.32650      0.48236123E-003
      467.50650      0.47259339E-003
      467.68650      0.46294646E-003
      467.86650      0.45342111E-003
      468.04650      0.44401793E-003
      468.22650      0.43473746E-003
      468.40650      0.42558013E-003
      468.58650      0.41654635E-003
      468.76650      0.40763642E-003
      468.94650      0.39885059E-003
      469.12650      0.39018906E-003
      469.30650      0.38165195E-003
      469.48650      0.37323931E-003
      469.66650      0.36495114E-003
      469.84650      0.35678738E-003
      470.02650      0.34874791E-003
      470.20650      0.34083256E-003
      470.38650      0.33304109E-003
      470.56650      0.32537321E-003
      470.74650      0.31782858E-003
      470.92650      0.31040682E-003
      471.10650      0.30310747E-003
      471.28650      0.29593006E-003
      471.46650      0.28887403E-003
      471.64650      0.28193882E-003
      471.82650      0.27512378E-003
      472.00650      0.26842826E-003
      472.18650      0.26185154E-003
      472.36650      0.25539286E-003
      472.54650      0.24905144E-003
      472.72650      0.24282644E-003
      472.90650      0.23671702E-003
      473.08650      0.23072226E-003
      473.26650      0.22484124E-003
      473.44650      0.21907300E-003
      473.62650      0.21341655E-003
      473.80650      0.20787086E-003
      473.98650      0.20243489E-003
      474.16650      0.19710756E-003
      474.34650      0.19188778E-003
      474.52650      0.18677443E-003
      474.70650      0.18176635E-003
      474.88650      0.17686240E-003
      475.06650      0.17206138E-003
      475.24650      0.16736210E-003
      475.42650      0.16276333E-003
      475.60650      0.15826384E-003
      475.78650      0.15386239E-003
      475.96650      0.14955771E-003
      476.14650      0.14534853E-003
      476.32650      0.14123356E-003
      476.50650      0.13721151E-003
      476.68650      0.13328107E-003
      476.86650      0.12944094E-003
      477.04650      0.12568980E-003
      477.22650      0.12202632E-003
      477.40650      0.11844918E-003
      477.58650      0.11495704E-003
      477.76650      0.11154857E-003
      477.94650      0.10822243E-003
      478.12650      0.10497729E-003
      478.30650      0.10181181E-003
      478.48650      0.98724652E-004
      478.66650      0.95714480E-004
      478.84650      0.92779964E-004
      479.02650      0.89919774E-004
      479.20650      0.87132585E-004
      479.38650      0.84417078E-004
      479.56650      0.81771937E-004
      479.74650      0.79195852E-004
      479.92650      0.76687523E-004
      480.10650      0.74245654E-004
      480.28650      0.71868958E-004
      480.46650      0.69556157E-004
      480.64650      0.67305982E-004
      480.82650      0.65117172E-004
      481.00650      0.62988479E-004
      481.18650      0.60918663E-004
      481.36650      0.58906496E-004
      481.54650      0.56950761E-004
      481.72650      0.55050255E-004
      481.90650      0.53203785E-004
      482.08650      0.51410171E-004
      482.26650      0.49668247E-004
      482.44650      0.47976858E-004
      482.62650      0.46334866E-004
      482.80650      0.44741144E-004
      482.98650      0.43194581E-004
      483.16650      0.41694080E-004
      483.34650      0.40238558E-004
      483.52650      0.38826947E-004
      483.70650      0.37458194E-004
      483.88650      0.36131262E-004
      484.06650      0.34845129E-004
      484.24650      0.33598788E-004
      484.42650      0.32391248E-004
      484.60650      0.31221534E-004
      484.78650      0.30088685E-004
      484.96650      0.28991758E-004
      485.14650      0.27929826E-004
      485.32650      0.26901975E-004
      485.50650      0.25907312E-004
      485.68650      0.24944954E-004
      485.86650      0.24014040E-004
      486.04650      0.23113719E-004
      486.22650      0.22243161E-004
      486.40650      0.21401550E-004
      486.58650      0.20588085E-004
      486.76650      0.19801981E-004
      486.94650      0.19042471E-004
      487.12650      0.18308800E-004
      487.30650      0.17600232E-004
      487.48650      0.16916044E-004
      487.66650      0.16255529E-004
      487.84650      0.15617997E-004
      488.02650      0.15002771E-004
      488.20650      0.14409190E-004
      488.38650      0.13836607E-004
      488.56650      0.13284390E-004
      488.74650      0.12751922E-004
      488.92650      0.12238600E-004
      489.10650      0.11743837E-004
      489.28650      0.11267056E-004
      489.46650      0.10807698E-004
      489.64650      0.10365215E-004
      489.82650      0.99390741E-005
      490.00650      0.95287555E-005
      490.18650      0.91337520E-005
      490.36650      0.87535697E-005
      490.54650      0.83877273E-005
      490.72650      0.80357563E-005
      490.90650      0.76972004E-005
      491.08650      0.73716155E-005
      491.26650      0.70585696E-005
      491.44650      0.67576422E-005
      491.62650      0.64684245E-005
      491.80650      0.61905192E-005
      491.98650      0.59235398E-005
      492.16650      0.56671110E-005
      492.34650      0.54208681E-005
      492.52650      0.51844569E-005
      492.70650      0.49575336E-005
      492.88650      0.47397645E-005
      493.06650      0.45308255E-005
      493.24650      0.43304026E-005
      493.42650      0.41381910E-005
      493.60650      0.39538952E-005
      493.78650      0.37772288E-005
      493.96650      0.36079142E-005
      494.14650      0.34456826E-005
      494.32650      0.32902736E-005
      494.50650      0.31414350E-005
      494.68650      0.29989226E-005
      494.86650      0.28625002E-005
      495.04650      0.27319393E-005
      495.22650      0.26070188E-005
      495.40650      0.24875250E-005
      495.58650      0.23732510E-005
      495.76650      0.22639974E-005
      495.94650      0.21595710E-005
      496.12650      0.20597854E-005
      496.30650      0.19644608E-005
      496.48650      0.18734232E-005
      496.66650      0.17865049E-005
      496.84650      0.17035442E-005
      497.02650      0.16243850E-005
      497.20650      0.15488766E-005
      497.38650      0.14768739E-005
      497.56650      0.14082371E-005
      497.74650      0.13428313E-005
      497.92650      0.12805267E-005
      498.10650      0.12211982E-005
      498.28650      0.11647255E-005
      498.46650      0.11109926E-005
      498.64650      0.10598880E-005
      498.82650      0.10113045E-005
      499.00650      0.96513888E-006
      499.18650      0.92129196E-006
      499.36650      0.87966839E-006
      499.54650      0.84017657E-006
      499.72650      0.80272850E-006
      499.90650      0.76723965E-006
      500.08650      0.73362888E-006
      500.26650      0.70181830E-006
      500.44650      0.67173319E-006
      500.62650      0.64330186E-006
      500.80650      0.61645556E-006
      500.98650      0.59112838E-006
      501.16650      0.56725715E-006
      501.34650      0.54478134E-006
      501.52650      0.52364297E-006
      501.70650      0.50378653E-006
      501.88650      0.48515887E-006
      502.06650      0.46770912E-006
      502.24650      0.45138862E-006
      502.42650      0.43615081E-006
      502.60650      0.42195120E-006
      502.78650      0.40874722E-006
      502.96650      0.39649823E-006
      503.14650      0.38516537E-006
      503.32650      0.37471155E-006
      503.50650      0.36510135E-006
      503.68650      0.35630095E-006
      503.86650      0.34827809E-006
      504.04650      0.34100198E-006
      504.22650      0.33444326E-006
      504.40650      0.32857395E-006
      504.58650      0.32336735E-006
      504.76650      0.31879804E-006
      504.94650      0.31484178E-006
      505.12650      0.31147551E-006
      505.30650      0.30867723E-006
      505.48650      0.30642603E-006
      505.66650      0.30470198E-006
      505.84650      0.30348612E-006
      506.02650      0.30276041E-006
      506.20650      0.30250769E-006
      506.38650      0.30271162E-006
      506.56650      0.30335667E-006
      506.74650      0.30442807E-006
      506.92650      0.30591175E-006
      507.10650      0.30779436E-006
      507.28650      0.31006317E-006
      507.46650      0.31270608E-006
      507.64650      0.31571160E-006
      507.82650      0.31906877E-006
      508.00650      0.32276717E-006
      508.18650      0.32679687E-006
      508.36650      0.33114843E-006
      508.54650      0.33581284E-006
      508.72650      0.34078152E-006
      508.90650      0.34604627E-006
      509.08650      0.35159930E-006
      509.26650      0.35743313E-006
      509.44650      0.36354062E-006
      509.62650      0.36991495E-006
      509.80650      0.37654957E-006
      509.98650      0.38343820E-006
      510.16650      0.39057483E-006
      510.34650      0.39795366E-006
      510.52650      0.40556910E-006
      510.70650      0.41341577E-006
      510.88650      0.42148847E-006
      511.06650      0.42978215E-006
      511.24650      0.43829195E-006
      511.42650      0.44701310E-006
      511.60650      0.45594098E-006
      511.78650      0.46507109E-006
      511.96650      0.47439900E-006
      512.14650      0.48392040E-006
      512.32650      0.49363103E-006
      512.50650      0.50352671E-006
      512.68650      0.51360331E-006
      512.86650      0.52385674E-006
      513.04650      0.53428297E-006
      513.22650      0.54487797E-006
      513.40650      0.55563773E-006
      513.58650      0.56655829E-006
      513.76650      0.57763563E-006
      513.94650      0.58886579E-006
      514.12650      0.60024477E-006
      514.30650      0.61176854E-006
      514.48650      0.62343307E-006
      514.66650      0.63523431E-006
      514.84650      0.64716815E-006
      515.02650      0.65923046E-006
      515.20650      0.67141706E-006
      515.38650      0.68372374E-006
      515.56650      0.69614622E-006
      515.74650      0.70868018E-006
      515.92650      0.72132124E-006
      516.10650      0.73406495E-006
      516.28650      0.74690682E-006
      516.46650      0.75984227E-006
      516.64650      0.77286668E-006
      516.82650      0.78597535E-006
      517.00650      0.79916350E-006
      517.18650      0.81242629E-006
      517.36650      0.82575882E-006
      517.54650      0.83915610E-006
      517.72650      0.85261307E-006
      517.90650      0.86612462E-006
      518.08650      0.87968553E-006
      518.26650      0.89329055E-006
      518.44650      0.90693432E-006
      518.62650      0.92061144E-006
      518.80650      0.93431643E-006
      518.98650      0.94804373E-006
      519.16650      0.96178772E-006
      519.34650      0.97554274E-006
      519.52650      0.98930304E-006
      519.70650      0.10030628E-005
      519.88650      0.10168162E-005
      520.06650      0.10305573E-005
      520.24650      0.10442800E-005
      520.42650      0.10579785E-005
      520.60650      0.10716466E-005
      520.78650      0.10852783E-005
      520.96650      0.10988672E-005
      521.14650      0.11124074E-005
      521.32650      0.11258925E-005
      521.50650      0.11393162E-005
      521.68650      0.11526724E-005
      521.86650      0.11659546E-005
      522.04650      0.11791566E-005
      522.22650      0.11922720E-005
      522.40650      0.12052944E-005
      522.58650      0.12182176E-005
      522.76650      0.12310351E-005
      522.94650      0.12437407E-005
      523.12650      0.12563278E-005
      523.30650      0.12687903E-005
      523.48650      0.12811218E-005
      523.66650      0.12933159E-005
      523.84650      0.13053666E-005
      524.02650      0.13172674E-005
      524.20650      0.13290122E-005
      524.38650      0.13405948E-005
      524.56650      0.13520092E-005
      524.74650      0.13632492E-005
      524.92650      0.13743090E-005
      525.10650      0.13851825E-005
      525.28650      0.13958638E-005
      525.46650      0.14063472E-005
      525.64650      0.14166270E-005
      525.82650      0.14266975E-005
      526.00650      0.14365531E-005
      526.18650      0.14461884E-005
      526.36650      0.14555981E-005
      526.54650      0.14647769E-005
      526.72650      0.14737196E-005
      526.90650      0.14824212E-005
      527.08650      0.14908767E-005
      527.26650      0.14990814E-005
      527.44650      0.15070306E-005
      527.62650      0.15147197E-005
      527.80650      0.15221443E-005
      527.98650      0.15293001E-005
      528.16650      0.15361830E-005
      528.34650      0.15427890E-005
      528.52650      0.15491143E-005
      528.70650      0.15551551E-005
      528.88650      0.15609079E-005
      529.06650      0.15663694E-005
      529.24650      0.15715364E-005
      529.42650      0.15764057E-005
      529.60650      0.15809746E-005
      529.78650      0.15852403E-005
      529.96650      0.15892003E-005
      530.14650      0.15928522E-005
      530.32650      0.15961939E-005
      530.50650      0.15992233E-005
      530.68650      0.16019388E-005
      530.86650      0.16043386E-005
      531.04650      0.16064213E-005
      531.22650      0.16081856E-005
      531.40650      0.16096306E-005
      531.58650      0.16107553E-005
      531.76650      0.16115591E-005
      531.94650      0.16120415E-005
      532.12650      0.16122022E-005
      532.30650      0.16120411E-005
      532.48650      0.16115582E-005
      532.66650      0.16107540E-005
      532.84650      0.16096288E-005
      533.02650      0.16081833E-005
      533.20650      0.16064185E-005
      533.38650      0.16043352E-005
      533.56650      0.16019349E-005
      533.74650      0.15992189E-005
      533.92650      0.15961888E-005
      534.10650      0.15928465E-005
      534.28650      0.15891939E-005
      534.46650      0.15852332E-005
      534.64650      0.15809668E-005
      534.82650      0.15763971E-005
      535.00650      0.15715269E-005
      535.18650      0.15663590E-005
      535.36650      0.15608965E-005
      535.54650      0.15551425E-005
      535.72650      0.15491006E-005
      535.90650      0.15427740E-005
      536.08650      0.15361666E-005
      536.26650      0.15292822E-005
      536.44650      0.15221248E-005
      536.62650      0.15146985E-005
      536.80650      0.15070075E-005
      536.98650      0.14990563E-005
      537.16650      0.14908495E-005
      537.34650      0.14823916E-005
      537.52650      0.14736874E-005
      537.70650      0.14647420E-005
      537.88650      0.14555602E-005
      538.06650      0.14461473E-005
      538.24650      0.14365085E-005
      538.42650      0.14266491E-005
      538.60650      0.14165745E-005
      538.78650      0.14062903E-005
      538.96650      0.13958022E-005
      539.14650      0.13851157E-005
      539.32650      0.13742366E-005
      539.50650      0.13631709E-005
      539.68650      0.13519244E-005
      539.86650      0.13405030E-005
      540.04650      0.13289128E-005
      540.22650      0.13171598E-005
      540.40650      0.13052503E-005
      540.58650      0.12931902E-005
      540.76650      0.12809858E-005
      540.94650      0.12686432E-005
      541.12650      0.12561689E-005
      541.30650      0.12435689E-005
      541.48650      0.12308495E-005
      541.66650      0.12180171E-005
      541.84650      0.12050779E-005
      542.02650      0.11920382E-005
      542.20650      0.11789041E-005
      542.38650      0.11656821E-005
      542.56650      0.11523783E-005
      542.74650      0.11389989E-005
      542.92650      0.11255502E-005
      543.10650      0.11120382E-005
      543.28650      0.10984692E-005
      543.46650      0.10848491E-005
      543.64650      0.10711841E-005
      543.82650      0.10574800E-005
      544.00650      0.10437429E-005
      544.18650      0.10299786E-005
      544.36650      0.10161930E-005
      544.54650      0.10023917E-005
      544.72650      0.98858053E-006
      544.90650      0.97476503E-006
      545.08650      0.96095075E-006
      545.26650      0.94714315E-006
      545.44650      0.93334761E-006
      545.62650      0.91956942E-006
      545.80650      0.90581378E-006
      545.98650      0.89208581E-006
      546.16650      0.87839052E-006
      546.34650      0.86473285E-006
      546.52650      0.85111760E-006
      546.70650      0.83754952E-006
      546.88650      0.82403322E-006
      547.06650      0.81057321E-006
      547.24650      0.79717391E-006
      547.42650      0.78383962E-006
      547.60650      0.77057452E-006
      547.78650      0.75738271E-006
      547.96650      0.74426815E-006
      548.14650      0.73123468E-006
      548.32650      0.71828605E-006
      548.50650      0.70542587E-006
      548.68650      0.69265766E-006
      548.86650      0.67998480E-006
      549.04650      0.66741055E-006
      549.22650      0.65493807E-006
      549.40650      0.64257038E-006
      549.58650      0.63031041E-006
      549.76650      0.61816094E-006
      549.94650      0.60612464E-006
      550.12650      0.59420407E-006
      550.30650      0.58240167E-006
      550.48650      0.57071975E-006
      550.66650      0.55916052E-006
      550.84650      0.54772605E-006
      551.02650      0.53641831E-006
      551.20650      0.52523916E-006
      551.38650      0.51419033E-006
      551.56650      0.50327345E-006
      551.74650      0.49249002E-006
      551.92650      0.48184144E-006
      552.10650      0.47132901E-006
      552.28650      0.46095391E-006
      552.46650      0.45071719E-006
      552.64650      0.44061985E-006
      552.82650      0.43066273E-006
      553.00650      0.42084661E-006
      553.18650      0.41117213E-006
      553.36650      0.40163987E-006
      553.54650      0.39225028E-006
      553.72650      0.38300374E-006
      553.90650      0.37390052E-006
      554.08650      0.36494081E-006
      554.26650      0.35612470E-006
      554.44650      0.34745219E-006
      554.62650      0.33892322E-006
      554.80650      0.33053762E-006
      554.98650      0.32229515E-006
      555.16650      0.31419549E-006
      555.34650      0.30623825E-006
      555.52650      0.29842295E-006
      555.70650      0.29074905E-006
      555.88650      0.28321594E-006
      556.06650      0.27582295E-006
      556.24650      0.26856932E-006
      556.42650      0.26145424E-006
      556.60650      0.25447686E-006
      556.78650      0.24763625E-006
      556.96650      0.24093141E-006
      557.14650      0.23436132E-006
      557.32650      0.22792489E-006
      557.50650      0.22162098E-006
      557.68650      0.21544842E-006
      557.86650      0.20940596E-006
      558.04650      0.20349234E-006
      558.22650      0.19770625E-006
      558.40650      0.19204634E-006
      558.58650      0.18651123E-006
      558.76650      0.18109949E-006
      558.94650      0.17580968E-006
      559.12650      0.17064031E-006
      559.30650      0.16558988E-006
      559.48650      0.16065685E-006
      559.66650      0.15583967E-006
      559.84650      0.15113675E-006
      560.02650      0.14654650E-006
      560.20650      0.14206730E-006
      560.38650      0.13769751E-006
      560.56650      0.13343550E-006
      560.74650      0.12927959E-006
      560.92650      0.12522811E-006
      561.10650      0.12127940E-006
      561.28650      0.11743175E-006
      561.46650      0.11368347E-006
      561.64650      0.11003286E-006
      561.82650      0.10647823E-006
      562.00650      0.10301786E-006
      562.18650      0.99650054E-007
      562.36650      0.96373105E-007
      562.54650      0.93185313E-007
      562.72650      0.90084980E-007
      562.90650      0.87070414E-007
      563.08650      0.84139928E-007
      563.26650      0.81291842E-007
      563.44650      0.78524485E-007
      563.62650      0.75836195E-007
      563.80650      0.73225320E-007
      563.98650      0.70690218E-007
      564.16650      0.68229261E-007
      564.34650      0.65840833E-007
      564.52650      0.63523332E-007
      564.70650      0.61275170E-007
      564.88650      0.59094775E-007
      565.06650      0.56980591E-007
      565.24650      0.54931077E-007
      565.42650      0.52944711E-007
      565.60650      0.51019989E-007
      565.78650      0.49155423E-007
      565.96650      0.47349546E-007
      566.14650      0.45600909E-007
      566.32650      0.43908084E-007
      566.50650      0.42269662E-007
      566.68650      0.40684255E-007
      566.86650      0.39150496E-007
      567.04650      0.37667038E-007
      567.22650      0.36232556E-007
      567.40650      0.34845747E-007
      567.58650      0.33505329E-007
      567.76650      0.32210043E-007
      567.94650      0.30958650E-007
      568.12650      0.29749936E-007
      568.30650      0.28582708E-007
      568.48650      0.27455793E-007
      568.66650      0.26368045E-007
      568.84650      0.25318336E-007
      569.02650      0.24305564E-007
      569.20650      0.23328646E-007
      569.38650      0.22386525E-007
      569.56650      0.21478163E-007
      569.74650      0.20602545E-007
      569.92650      0.19758680E-007
      570.10650      0.18945597E-007
      570.28650      0.18162346E-007
      570.46650      0.17408001E-007
      570.64650      0.16681657E-007
      570.82650      0.15982428E-007
      571.00650      0.15309451E-007
      571.18650      0.14661885E-007
      571.36650      0.14038907E-007
      571.54650      0.13439715E-007
      571.72650      0.12863530E-007
      571.90650      0.12309589E-007
      572.08650      0.11777151E-007
      572.26650      0.11265494E-007
      572.44650      0.10773915E-007
      572.62650      0.10301730E-007
      572.80650      0.98482725E-008
      572.98650      0.94128962E-008
      573.16650      0.89949713E-008
      573.34650      0.85938862E-008
      573.52650      0.82090466E-008
      573.70650      0.78398751E-008
      573.88650      0.74858113E-008
      574.06650      0.71463109E-008
      574.24650      0.68208460E-008
      574.42650      0.65089042E-008
      574.60650      0.62099889E-008
      574.78650      0.59236183E-008
      574.96650      0.56493257E-008
      575.14650      0.53866588E-008
      575.32650      0.51351794E-008
      575.50650      0.48944633E-008
      575.68650      0.46640999E-008
      575.86650      0.44436916E-008
      576.04650      0.42328539E-008
      576.22650      0.40312149E-008
      576.40650      0.38384149E-008
      576.58650      0.36541065E-008
      576.76650      0.34779536E-008
      576.94650      0.33096317E-008
      577.12650      0.31488274E-008
      577.30650      0.29952381E-008
      577.48650      0.28485716E-008
      577.66650      0.27085462E-008
      577.84650      0.25748898E-008
      578.02650      0.24473402E-008
      578.20650      0.23256447E-008
      578.38650      0.22095593E-008
      578.56650      0.20988494E-008
      578.74650      0.19932887E-008
      578.92650      0.18926592E-008
      579.10650      0.17967512E-008
      579.28650      0.17053628E-008
      579.46650      0.16182996E-008
      579.64650      0.15353746E-008
      579.82650      0.14564081E-008
      580.00650      0.13812272E-008
      580.18650      0.13096658E-008
      580.36650      0.12415640E-008
      580.54650      0.11767686E-008
      580.72650      0.11151321E-008
      580.90650      0.10565131E-008
      581.08650      0.10007757E-008
      581.26650      0.94778956E-009
      581.44650      0.89742960E-009
      581.62650      0.84957586E-009
      581.80650      0.80411329E-009
      581.98650      0.76093160E-009
      582.16650      0.71992508E-009
      582.34650      0.68099244E-009
      582.52650      0.64403664E-009
      582.70650      0.60896477E-009
      582.88650      0.57568785E-009
      583.06650      0.54412072E-009
      583.24650      0.51418188E-009
      583.42650      0.48579336E-009
      583.60650      0.45888059E-009
      583.78650      0.43337225E-009
      583.96650      0.40920018E-009
      584.14650      0.38629922E-009
      584.32650      0.36460713E-009
      584.50650      0.34406444E-009
      584.68650      0.32461435E-009
      584.86650      0.30620265E-009
      585.04650      0.28877759E-009
      585.22650      0.27228977E-009
      585.40650      0.25669208E-009
      585.58650      0.24193957E-009
      585.76650      0.22798940E-009
      585.94650      0.21480071E-009
      586.12650      0.20233456E-009
      586.30650      0.19055385E-009
      586.48650      0.17942324E-009
      586.66650      0.16890907E-009
      586.84650      0.15897928E-009
      587.02650      0.14960338E-009
      587.20650      0.14075233E-009
      587.38650      0.13239850E-009
      587.56650      0.12451562E-009
      587.74650      0.11707871E-009
      587.92650      0.11006401E-009
      588.10650      0.10344893E-009
      588.28650      0.97212031E-010
      588.46650      0.91332914E-010
      588.64650      0.85792223E-010
      588.82650      0.80571570E-010
      589.00650      0.75653502E-010
      589.18650      0.71021453E-010
      589.36650      0.66659702E-010
      589.54650      0.62553338E-010
      589.72650      0.58688217E-010
      589.90650      0.55050927E-010
      590.08650      0.51628757E-010
      590.26650      0.48409657E-010
      590.44650      0.45382210E-010
      590.62650      0.42535602E-010
      590.80650      0.39859590E-010
      590.98650      0.37344476E-010
      591.16650      0.34981081E-010
      591.34650      0.32760716E-010
      591.52650      0.30675160E-010
      591.70650      0.28716638E-010
      591.88650      0.26877797E-010
      592.06650      0.25151682E-010
      592.24650      0.23531722E-010
      592.42650      0.22011705E-010
      592.60650      0.20585762E-010
      592.78650      0.19248351E-010
      592.96650      0.17994236E-010
      593.14650      0.16818475E-010
      593.32650      0.15716401E-010
      593.50650      0.14683612E-010
      593.68650      0.13715953E-010
      593.86650      0.12809506E-010
      594.04650      0.11960576E-010
      594.22650      0.11165678E-010
      594.40650      0.10421528E-010
      594.58650      0.97250318E-011
      594.76650      0.90732723E-011
      594.94650      0.84635033E-011
      595.12650      0.78931380E-011
      595.30650      0.73597408E-011
      595.48650      0.68610195E-011
      595.66650      0.63948165E-011
      595.84650      0.59591021E-011
      596.02650      0.55519669E-011
      596.20650      0.51716153E-011
      596.38650      0.48163591E-011
      596.56650      0.44846114E-011
      596.74650      0.41748807E-011
      596.92650      0.38857658E-011
      597.10650      0.36159506E-011
      597.28650      0.33641988E-011
      597.46650      0.31293499E-011
      597.64650      0.29103143E-011
      597.82650      0.27060696E-011
      598.00650      0.25156565E-011
      598.18650      0.23381751E-011
      598.36650      0.21727813E-011
      598.54650      0.20186838E-011
      598.72650      0.18751408E-011
      598.90650      0.17414571E-011
      599.08650      0.16169813E-011
      599.26650      0.15011030E-011
      599.44650      0.13932508E-011
      599.62650      0.12928895E-011
      599.80650      0.11995181E-011
      599.98650      0.11126678E-011
      600.16650      0.10318999E-011
      600.34650      0.95680376E-012
      600.52650      0.88699567E-012
      600.70650      0.82211662E-012
      600.88650      0.76183103E-012
      601.06650      0.70582526E-012
      601.24650      0.65380620E-012
      601.42650      0.60550004E-012
      601.60650      0.56065103E-012
      601.78650      0.51902033E-012
      601.96650      0.48038499E-012
      602.14650      0.44453686E-012
      602.32650      0.41128175E-012
      602.50650      0.38043845E-012
      602.68650      0.35183794E-012
      602.86650      0.32532260E-012
      603.04650      0.30074548E-012
      603.22650      0.27796959E-012
      603.40650      0.25686727E-012
      603.58650      0.23731957E-012
      603.76650      0.21921569E-012
      603.94650      0.20245244E-012
      604.12650      0.18693375E-012
      604.30650      0.17257016E-012
      604.48650      0.15927845E-012
      604.66650      0.14698114E-012
      604.84650      0.13560619E-012
      605.02650      0.12508658E-012
      605.20650      0.11536000E-012
      605.38650      0.10636851E-012
      605.56650      0.98058259E-013
      605.74650      0.90379223E-013
      605.92650      0.83284912E-013
      606.10650      0.76732149E-013
      606.28650      0.70680838E-013
      606.46650      0.65093756E-013
      606.64650      0.59936347E-013
      606.82650      0.55176546E-013
      607.00650      0.50784603E-013
      607.18650      0.46732919E-013
      607.36650      0.42995902E-013
      607.54650      0.39549821E-013
      607.72650      0.36372678E-013
      607.90650      0.33444087E-013
      608.08650      0.30745157E-013
      608.26650      0.28258388E-013
      608.44650      0.25967572E-013
      608.62650      0.23857703E-013
      608.80650      0.21914886E-013
      608.98650      0.20126261E-013
      609.16650      0.18479928E-013
      609.34650      0.16964879E-013
      609.52650      0.15570930E-013
      609.70650      0.14288665E-013
      609.88650      0.13109377E-013
      610.06650      0.12025019E-013
      610.24650      0.11028153E-013
      610.42650      0.10111907E-013
      610.60650      0.92699352E-014
      610.78650      0.84963739E-014
      610.96650      0.77858106E-014
      611.14650      0.71332486E-014
      611.32650      0.65340761E-014
      611.50650      0.59840376E-014
      611.68650      0.54792075E-014
      611.86650      0.50159649E-014
      612.04650      0.45909708E-014
      612.22650      0.42011469E-014
      612.40650      0.38436561E-014
      612.58650      0.35158835E-014
      612.76650      0.32154201E-014
      612.94650      0.29400471E-014
      613.12650      0.26877207E-014
      613.30650      0.24565596E-014
      613.48650      0.22448316E-014
      613.66650      0.20509428E-014
      613.84650      0.18734263E-014
      614.02650      0.17109330E-014
      614.20650      0.15622217E-014
      614.38650      0.14261515E-014
      614.56650      0.13016732E-014
      614.74650      0.11878225E-014
      614.92650      0.10837134E-014
      615.10650      0.98853178E-015
      615.28650      0.90152990E-015
      615.46650      0.82202105E-015
      615.64650      0.74937474E-015
      615.82650      0.68301220E-015
      616.00650      0.62240228E-015
      616.18650      0.56705762E-015
      616.36650      0.51653115E-015
      616.54650      0.47041281E-015
      616.72650      0.42832662E-015
      616.90650      0.38992789E-015
      617.08650      0.35490068E-015
      617.26650      0.32295549E-015
      617.44650      0.29382708E-015
      617.62650      0.26727249E-015
      617.80650      0.24306924E-015
      617.98650      0.22101363E-015
      618.16650      0.20091919E-015
      618.34650      0.18261526E-015
      618.52650      0.16594571E-015
      618.70650      0.15076770E-015
      618.88650      0.13695058E-015
      619.06650      0.12437490E-015
      619.24650      0.11293145E-015
      619.42650      0.10252042E-015
      619.60650      0.93050599E-016
      619.78650      0.84438646E-016
      619.96650      0.76608445E-016
      620.14650      0.69490484E-016
      620.32650      0.63021297E-016
      620.50650      0.57142947E-016
      620.68650      0.51802562E-016
      620.86650      0.46951897E-016
      621.04650      0.42546942E-016
      621.22650      0.38547557E-016
      621.40650      0.34917141E-016
      621.58650      0.31622325E-016
      621.76650      0.28632694E-016
      621.94650      0.25920534E-016
      622.12650      0.23460592E-016
