      385.64780       2.4604983     
      385.82780       2.4363316     
      386.00780       2.4129117     
      386.18780       2.3902437     
      386.36780       2.3683321     
      386.54780       2.3471812     
      386.72780       2.3267944     
      386.90780       2.3071752     
      387.08780       2.2883263     
      387.26780       2.2702501     
      387.44780       2.2529485     
      387.62780       2.2364233     
      387.80780       2.2206754     
      387.98780       2.2057057     
      388.16780       2.1915145     
      388.34780       2.1781016     
      388.52780       2.1654666     
      388.70780       2.1536087     
      388.88780       2.1425265     
      389.06780       2.1322185     
      389.24780       2.1226826     
      389.42780       2.1139164     
      389.60780       2.1059171     
      389.78780       2.0986816     
      389.96780       2.0922064     
      390.14780       2.0864877     
      390.32780       2.0815211     
      390.50780       2.0773022     
      390.68780       2.0738261     
      390.86780       2.0710876     
      391.04780       2.0690811     
      391.22780       2.0678007     
      391.40780       2.0672402     
      391.58780       2.0673932     
      391.76780       2.0682528     
      391.94780       2.0698119     
      392.12780       2.0720632     
      392.30780       2.0749989     
      392.48780       2.0786111     
      392.66780       2.0828915     
      392.84780       2.0878316     
      393.02780       2.0934227     
      393.20780       2.0996557     
      393.38780       2.1065213     
      393.56780       2.1140100     
      393.74780       2.1221120     
      393.92780       2.1308174     
      394.10780       2.1401159     
      394.28780       2.1499970     
      394.46780       2.1604502     
      394.64780       2.1714645     
      394.82780       2.1830288     
      395.00780       2.1951319     
      395.18780       2.2077623     
      395.36780       2.2209085     
      395.54780       2.2345585     
      395.72780       2.2487003     
      395.90780       2.2633219     
      396.08780       2.2784109     
      396.26780       2.2939548     
      396.44780       2.3099410     
      396.62780       2.3263567     
      396.80780       2.3431891     
      396.98780       2.3604251     
      397.16780       2.3780515     
      397.34780       2.3960552     
      397.52780       2.4144226     
      397.70780       2.4331404     
      397.88780       2.4521949     
      398.06780       2.4715725     
      398.24780       2.4912593     
      398.42780       2.5112416     
      398.60780       2.5315053     
      398.78780       2.5520366     
      398.96780       2.5728213     
      399.14780       2.5938453     
      399.32780       2.6150945     
      399.50780       2.6365546     
      399.68780       2.6582114     
      399.86780       2.6800505     
      400.04780       2.7020577     
      400.22780       2.7242185     
      400.40780       2.7465187     
      400.58780       2.7689438     
      400.76780       2.7914795     
      400.94780       2.8141114     
      401.12780       2.8368252     
      401.30780       2.8596063     
      401.48780       2.8824406     
      401.66780       2.9053137     
      401.84780       2.9282113     
      402.02780       2.9511191     
      402.20780       2.9740230     
      402.38780       2.9969087     
      402.56780       3.0197622     
      402.74780       3.0425694     
      402.92780       3.0653164     
      403.10780       3.0879892     
      403.28780       3.1105740     
      403.46780       3.1330569     
      403.64780       3.1554245     
      403.82780       3.1776631     
      404.00780       3.1997591     
      404.18780       3.2216994     
      404.36780       3.2434705     
      404.54780       3.2650594     
      404.72780       3.2864531     
      404.90780       3.3076387     
      405.08780       3.3286033     
      405.26780       3.3493345     
      405.44780       3.3698198     
      405.62780       3.3900468     
      405.80780       3.4100034     
      405.98780       3.4296776     
      406.16780       3.4490576     
      406.34780       3.4681317     
      406.52780       3.4868884     
      406.70780       3.5053164     
      406.88780       3.5234048     
      407.06780       3.5411424     
      407.24780       3.5585187     
      407.42780       3.5755231     
      407.60780       3.5921452     
      407.78780       3.6083752     
      407.96780       3.6242029     
      408.14780       3.6396189     
      408.32780       3.6546136     
      408.50780       3.6691780     
      408.68780       3.6833030     
      408.86780       3.6969799     
      409.04780       3.7102002     
      409.22780       3.7229558     
      409.40780       3.7352387     
      409.58780       3.7470411     
      409.76780       3.7583556     
      409.94780       3.7691750     
      410.12780       3.7794923     
      410.30780       3.7893010     
      410.48780       3.7985947     
      410.66780       3.8073671     
      410.84780       3.8156126     
      411.02780       3.8233255     
      411.20780       3.8305006     
      411.38780       3.8371329     
      411.56780       3.8432177     
      411.74780       3.8487507     
      411.92780       3.8537277     
      412.10780       3.8581449     
      412.28780       3.8619988     
      412.46780       3.8652862     
      412.64780       3.8680042     
      412.82780       3.8701502     
      413.00780       3.8717218     
      413.18780       3.8727170     
      413.36780       3.8731341     
      413.54780       3.8729718     
      413.72780       3.8722289     
      413.90780       3.8709046     
      414.08780       3.8689984     
      414.26780       3.8665101     
      414.44780       3.8634399     
      414.62780       3.8597881     
      414.80780       3.8555554     
      414.98780       3.8507429     
      415.16780       3.8453519     
      415.34780       3.8393839     
      415.52780       3.8328409     
      415.70780       3.8257250     
      415.88780       3.8180388     
      416.06780       3.8097849     
      416.24780       3.8009666     
      416.42780       3.7915870     
      416.60780       3.7816499     
      416.78780       3.7711591     
      416.96780       3.7601188     
      417.14780       3.7485335     
      417.32780       3.7364078     
      417.50780       3.7237468     
      417.68780       3.7105557     
      417.86780       3.6968399     
      418.04780       3.6826053     
      418.22780       3.6678578     
      418.40780       3.6526036     
      418.58780       3.6368493     
      418.76780       3.6206016     
      418.94780       3.6038673     
      419.12780       3.5866537     
      419.30780       3.5689681     
      419.48780       3.5508181     
      419.66780       3.5322115     
      419.84780       3.5131564     
      420.02780       3.4936609     
      420.20780       3.4737334     
      420.38780       3.4533825     
      420.56780       3.4326169     
      420.74780       3.4114455     
      420.92780       3.3898774     
      421.10780       3.3679219     
      421.28780       3.3455884     
      421.46780       3.3228863     
      421.64780       3.2998253     
      421.82780       3.2764154     
      422.00780       3.2526663     
      422.18780       3.2285881     
      422.36780       3.2041910     
      422.54780       3.1794852     
      422.72780       3.1544811     
      422.90780       3.1291892     
      423.08780       3.1036198     
      423.26780       3.0777838     
      423.44780       3.0516916     
      423.62780       3.0253540     
      423.80780       2.9987819     
      423.98780       2.9719859     
      424.16780       2.9449771     
      424.34780       2.9177661     
      424.52780       2.8903641     
      424.70780       2.8627818     
      424.88780       2.8350303     
      425.06780       2.8071204     
      425.24780       2.7790631     
      425.42780       2.7508693     
      425.60780       2.7225499     
      425.78780       2.6941158     
      425.96780       2.6655777     
      426.14780       2.6369466     
      426.32780       2.6082332     
      426.50780       2.5794480     
      426.68780       2.5506019     
      426.86780       2.5217053     
      427.04780       2.4927688     
      427.22780       2.4638027     
      427.40780       2.4348174     
      427.58780       2.4058231     
      427.76780       2.3768300     
      427.94780       2.3478482     
      428.12780       2.3188874     
      428.30780       2.2899576     
      428.48780       2.2610684     
      428.66780       2.2322295     
      428.84780       2.2034502     
      429.02780       2.1747398     
      429.20780       2.1461076     
      429.38780       2.1175625     
      429.56780       2.0891134     
      429.74780       2.0607690     
      429.92780       2.0325379     
      430.10780       2.0044284     
      430.28780       1.9764489     
      430.46780       1.9486073     
      430.64780       1.9209115     
      430.82780       1.8933693     
      431.00780       1.8659882     
      431.18780       1.8387755     
      431.36780       1.8117384     
      431.54780       1.7848839     
      431.72780       1.7582187     
      431.90780       1.7317495     
      432.08780       1.7054826     
      432.26780       1.6794242     
      432.44780       1.6535805     
      432.62780       1.6279570     
      432.80780       1.6025595     
      432.98780       1.5773934     
      433.16780       1.5524638     
      433.34780       1.5277757     
      433.52780       1.5033339     
      433.70780       1.4791431     
      433.88780       1.4552075     
      434.06780       1.4315313     
      434.24780       1.4081185     
      434.42780       1.3849729     
      434.60780       1.3620980     
      434.78780       1.3394971     
      434.96780       1.3171734     
      435.14780       1.2951298     
      435.32780       1.2733691     
      435.50780       1.2518937     
      435.68780       1.2307060     
      435.86780       1.2098082     
      436.04780       1.1892022     
      436.22780       1.1688896     
      436.40780       1.1488721     
      436.58780       1.1291510     
      436.76780       1.1097275     
      436.94780       1.0906025     
      437.12780       1.0717769     
      437.30780       1.0532512     
      437.48780       1.0350258     
      437.66780       1.0171011     
      437.84780      0.99947704     
      438.02780      0.98215357     
      438.20780      0.96513041     
      438.38780      0.94840713     
      438.56780      0.93198314     
      438.74780      0.91585767     
      438.92780      0.90002982     
      439.10780      0.88449853     
      439.28780      0.86926257     
      439.46780      0.85432058     
      439.64780      0.83967106     
      439.82780      0.82531238     
      440.00780      0.81124275     
      440.18780      0.79746027     
      440.36780      0.78396290     
      440.54780      0.77074848     
      440.72780      0.75781474     
      440.90780      0.74515928     
      441.08780      0.73277960     
      441.26780      0.72067309     
      441.44780      0.70883702     
      441.62780      0.69726858     
      441.80780      0.68596486     
      441.98780      0.67492285     
      442.16780      0.66413947     
      442.34780      0.65361154     
      442.52780      0.64333580     
      442.70780      0.63330892     
      442.88780      0.62352750     
      443.06780      0.61398807     
      443.24780      0.60468710     
      443.42780      0.59562100     
      443.60780      0.58678611     
      443.78780      0.57817874     
      443.96780      0.56979513     
      444.14780      0.56163150     
      444.32780      0.55368401     
      444.50780      0.54594879     
      444.68780      0.53842195     
      444.86780      0.53109954     
      445.04780      0.52397762     
      445.22780      0.51705220     
      445.40780      0.51031929     
      445.58780      0.50377488     
      445.76780      0.49741493     
      445.94780      0.49123543     
      446.12780      0.48523233     
      446.30780      0.47940160     
      446.48780      0.47373919     
      446.66780      0.46824109     
      446.84780      0.46290325     
      447.02780      0.45772168     
      447.20780      0.45269237     
      447.38780      0.44781133     
      447.56780      0.44307460     
      447.74780      0.43847824     
      447.92780      0.43401833     
      448.10780      0.42969097     
      448.28780      0.42549231     
      448.46780      0.42141852     
      448.64780      0.41746579     
      448.82780      0.41363036     
      449.00780      0.40990851     
      449.18780      0.40629656     
      449.36780      0.40279087     
      449.54780      0.39938784     
      449.72780      0.39608392     
      449.90780      0.39287561     
      450.08780      0.38975944     
      450.26780      0.38673203     
      450.44780      0.38379001     
      450.62780      0.38093008     
      450.80780      0.37814901     
      450.98780      0.37544361     
      451.16780      0.37281074     
      451.34780      0.37024734     
      451.52780      0.36775039     
      451.70780      0.36531693     
      451.88780      0.36294408     
      452.06780      0.36062900     
      452.24780      0.35836893     
      452.42780      0.35616117     
      452.60780      0.35400305     
      452.78780      0.35189202     
      452.96780      0.34982556     
      453.14780      0.34780121     
      453.32780      0.34581659     
      453.50780      0.34386939     
      453.68780      0.34195734     
      453.86780      0.34007826     
      454.04780      0.33823002     
      454.22780      0.33641057     
      454.40780      0.33461790     
      454.58780      0.33285009     
      454.76780      0.33110526     
      454.94780      0.32938163     
      455.12780      0.32767745     
      455.30780      0.32599104     
      455.48780      0.32432079     
      455.66780      0.32266515     
      455.84780      0.32102264     
      456.02780      0.31939182     
      456.20780      0.31777132     
      456.38780      0.31615985     
      456.56780      0.31455614     
      456.74780      0.31295901     
      456.92780      0.31136733     
      457.10780      0.30978001     
      457.28780      0.30819603     
      457.46780      0.30661443     
      457.64780      0.30503430     
      457.82780      0.30345476     
      458.00780      0.30187501     
      458.18780      0.30029430     
      458.36780      0.29871190     
      458.54780      0.29712716     
      458.72780      0.29553947     
      458.90780      0.29394825     
      459.08780      0.29235298     
      459.26780      0.29075318     
      459.44780      0.28914842     
      459.62780      0.28753830     
      459.80780      0.28592246     
      459.98780      0.28430059     
      460.16780      0.28267241     
      460.34780      0.28103768     
      460.52780      0.27939619     
      460.70780      0.27774776     
      460.88780      0.27609227     
      461.06780      0.27442959     
      461.24780      0.27275967     
      461.42780      0.27108244     
      461.60780      0.26939789     
      461.78780      0.26770602     
      461.96780      0.26600688     
      462.14780      0.26430051     
      462.32780      0.26258701     
      462.50780      0.26086646     
      462.68780      0.25913901     
      462.86780      0.25740479     
      463.04780      0.25566396     
      463.22780      0.25391672     
      463.40780      0.25216325     
      463.58780      0.25040377     
      463.76780      0.24863852     
      463.94780      0.24686772     
      464.12780      0.24509164     
      464.30780      0.24331054     
      464.48780      0.24152470     
      464.66780      0.23973441     
      464.84780      0.23793995     
      465.02780      0.23614164     
      465.20780      0.23433978     
      465.38780      0.23253468     
      465.56780      0.23072668     
      465.74780      0.22891609     
      465.92780      0.22710324     
      466.10780      0.22528847     
      466.28780      0.22347210     
      466.46780      0.22165449     
      466.64780      0.21983595     
      466.82780      0.21801683     
      467.00780      0.21619747     
      467.18780      0.21437819     
      467.36780      0.21255934     
      467.54780      0.21074124     
      467.72780      0.20892422     
      467.90780      0.20710861     
      468.08780      0.20529473     
      468.26780      0.20348290     
      468.44780      0.20167343     
      468.62780      0.19986663     
      468.80780      0.19806280     
      468.98780      0.19626224     
      469.16780      0.19446525     
      469.34780      0.19267210     
      469.52780      0.19088308     
      469.70780      0.18909846     
      469.88780      0.18731850     
      470.06780      0.18554347     
      470.24780      0.18377361     
      470.42780      0.18200918     
      470.60780      0.18025040     
      470.78780      0.17849751     
      470.96780      0.17675073     
      471.14780      0.17501027     
      471.32780      0.17327633     
      471.50780      0.17154912     
      471.68780      0.16982883     
      471.86780      0.16811564     
      472.04780      0.16640972     
      472.22780      0.16471124     
      472.40780      0.16302037     
      472.58780      0.16133724     
      472.76780      0.15966201     
      472.94780      0.15799481     
      473.12780      0.15633578     
      473.30780      0.15468503     
      473.48780      0.15304268     
      473.66780      0.15140883     
      473.84780      0.14978360     
      474.02780      0.14816706     
      474.20780      0.14655932     
      474.38780      0.14496045     
      474.56780      0.14337053     
      474.74780      0.14178963     
      474.92780      0.14021780     
      475.10780      0.13865512     
      475.28780      0.13710163     
      475.46780      0.13555738     
      475.64780      0.13402241     
      475.82780      0.13249677     
      476.00780      0.13098048     
      476.18780      0.12947357     
      476.36780      0.12797606     
      476.54780      0.12648799     
      476.72780      0.12500937     
      476.90780      0.12354020     
      477.08780      0.12208050     
      477.26780      0.12063028     
      477.44780      0.11918955     
      477.62780      0.11775829     
      477.80780      0.11633652     
      477.98780      0.11492424     
      478.16780      0.11352142     
      478.34780      0.11212808     
      478.52780      0.11074419     
      478.70780      0.10936976     
      478.88780      0.10800476     
      479.06780      0.10664919     
      479.24780      0.10530303     
      479.42780      0.10396627     
      479.60780      0.10263889     
      479.78780      0.10132088     
      479.96780      0.10001221     
      480.14780      0.98712887E-001
      480.32780      0.97422878E-001
      480.50780      0.96142169E-001
      480.68780      0.94870746E-001
      480.86780      0.93608591E-001
      481.04780      0.92355688E-001
      481.22780      0.91112022E-001
      481.40780      0.89877578E-001
      481.58780      0.88652341E-001
      481.76780      0.87436297E-001
      481.94780      0.86229433E-001
      482.12780      0.85031737E-001
      482.30780      0.83843197E-001
      482.48780      0.82663801E-001
      482.66780      0.81493542E-001
      482.84780      0.80332408E-001
      483.02780      0.79180393E-001
      483.20780      0.78037489E-001
      483.38780      0.76903690E-001
      483.56780      0.75778992E-001
      483.74780      0.74663390E-001
      483.92780      0.73556881E-001
      484.10780      0.72459463E-001
      484.28780      0.71371136E-001
      484.46780      0.70291898E-001
      484.64780      0.69221752E-001
      484.82780      0.68160698E-001
      485.00780      0.67108739E-001
      485.18780      0.66065880E-001
      485.36780      0.65032123E-001
      485.54780      0.64007475E-001
      485.72780      0.62991940E-001
      485.90780      0.61985526E-001
      486.08780      0.60988239E-001
      486.26780      0.60000086E-001
      486.44780      0.59021077E-001
      486.62780      0.58051219E-001
      486.80780      0.57090520E-001
      486.98780      0.56138991E-001
      487.16780      0.55196640E-001
      487.34780      0.54263476E-001
      487.52780      0.53339510E-001
      487.70780      0.52424750E-001
      487.88780      0.51519207E-001
      488.06780      0.50622889E-001
      488.24780      0.49735805E-001
      488.42780      0.48857964E-001
      488.60780      0.47989374E-001
      488.78780      0.47130044E-001
      488.96780      0.46279981E-001
      489.14780      0.45439191E-001
      489.32780      0.44607681E-001
      489.50780      0.43785456E-001
      489.68780      0.42972520E-001
      489.86780      0.42168878E-001
      490.04780      0.41374532E-001
      490.22780      0.40589483E-001
      490.40780      0.39813733E-001
      490.58780      0.39047281E-001
      490.76780      0.38290125E-001
      490.94780      0.37542263E-001
      491.12780      0.36803689E-001
      491.30780      0.36074399E-001
      491.48780      0.35354385E-001
      491.66780      0.34643638E-001
      491.84780      0.33942149E-001
      492.02780      0.33249906E-001
      492.20780      0.32566896E-001
      492.38780      0.31893103E-001
      492.56780      0.31228511E-001
      492.74780      0.30573102E-001
      492.92780      0.29926856E-001
      493.10780      0.29289750E-001
      493.28780      0.28661762E-001
      493.46780      0.28042865E-001
      493.64780      0.27433033E-001
      493.82780      0.26832236E-001
      494.00780      0.26240442E-001
      494.18780      0.25657620E-001
      494.36780      0.25083735E-001
      494.54780      0.24518749E-001
      494.72780      0.23962624E-001
      494.90780      0.23415320E-001
      495.08780      0.22876793E-001
      495.26780      0.22347001E-001
      495.44780      0.21825897E-001
      495.62780      0.21313433E-001
      495.80780      0.20809558E-001
      495.98780      0.20314222E-001
      496.16780      0.19827372E-001
      496.34780      0.19348951E-001
      496.52780      0.18878903E-001
      496.70780      0.18417169E-001
      496.88780      0.17963689E-001
      497.06780      0.17518400E-001
      497.24780      0.17081240E-001
      497.42780      0.16652143E-001
      497.60780      0.16231041E-001
      497.78780      0.15817868E-001
      497.96780      0.15412552E-001
      498.14780      0.15015023E-001
      498.32780      0.14625208E-001
      498.50780      0.14243033E-001
      498.68780      0.13868422E-001
      498.86780      0.13501300E-001
      499.04780      0.13141588E-001
      499.22780      0.12789208E-001
      499.40780      0.12444080E-001
      499.58780      0.12106122E-001
      499.76780      0.11775252E-001
      499.94780      0.11451388E-001
      500.12780      0.11134446E-001
      500.30780      0.10824340E-001
      500.48780      0.10520986E-001
      500.66780      0.10224297E-001
      500.84780      0.99341864E-002
      501.02780      0.96505665E-002
      501.20780      0.93733493E-002
      501.38780      0.91024462E-002
      501.56780      0.88377680E-002
      501.74780      0.85792254E-002
      501.92780      0.83267286E-002
      502.10780      0.80801873E-002
      502.28780      0.78395114E-002
      502.46780      0.76046102E-002
      502.64780      0.73753931E-002
      502.82780      0.71517693E-002
      503.00780      0.69336481E-002
      503.18780      0.67209387E-002
      503.36780      0.65135503E-002
      503.54780      0.63113924E-002
      503.72780      0.61143745E-002
      503.90780      0.59224064E-002
      504.08780      0.57353982E-002
      504.26780      0.55532601E-002
      504.44780      0.53759029E-002
      504.62780      0.52032375E-002
      504.80780      0.50351756E-002
      504.98780      0.48716289E-002
      505.16780      0.47125100E-002
      505.34780      0.45577319E-002
      505.52780      0.44072080E-002
      505.70780      0.42608527E-002
      505.88780      0.41185808E-002
      506.06780      0.39803076E-002
      506.24780      0.38459496E-002
      506.42780      0.37154236E-002
      506.60780      0.35886475E-002
      506.78780      0.34655397E-002
      506.96780      0.33460196E-002
      507.14780      0.32300074E-002
      507.32780      0.31174243E-002
      507.50780      0.30081923E-002
      507.68780      0.29022342E-002
      507.86780      0.27994739E-002
      508.04780      0.26998362E-002
      508.22780      0.26032469E-002
      508.40780      0.25096329E-002
      508.58780      0.24189218E-002
      508.76780      0.23310425E-002
      508.94780      0.22459248E-002
      509.12780      0.21634997E-002
      509.30780      0.20836989E-002
      509.48780      0.20064556E-002
      509.66780      0.19317038E-002
      509.84780      0.18593787E-002
      510.02780      0.17894164E-002
      510.20780      0.17217544E-002
      510.38780      0.16563309E-002
      510.56780      0.15930856E-002
      510.74780      0.15319590E-002
      510.92780      0.14728928E-002
      511.10780      0.14158298E-002
      511.28780      0.13607138E-002
      511.46780      0.13074900E-002
      511.64780      0.12561043E-002
      511.82780      0.12065039E-002
      512.00780      0.11586371E-002
      512.18780      0.11124531E-002
      512.36780      0.10679024E-002
      512.54780      0.10249364E-002
      512.72780      0.98350766E-003
      512.90780      0.94356971E-003
      513.08780      0.90507717E-003
      513.26780      0.86798569E-003
      513.44780      0.83225192E-003
      513.62780      0.79783356E-003
      513.80780      0.76468929E-003
      513.98780      0.73277877E-003
      514.16780      0.70206267E-003
      514.34780      0.67250262E-003
      514.52780      0.64406119E-003
      514.70780      0.61670193E-003
      514.88780      0.59038928E-003
      515.06780      0.56508863E-003
      515.24780      0.54076627E-003
      515.42780      0.51738936E-003
      515.60780      0.49492598E-003
      515.78780      0.47334503E-003
      515.96780      0.45261628E-003
      516.14780      0.43271035E-003
      516.32780      0.41359866E-003
      516.50780      0.39525344E-003
      516.68780      0.37764771E-003
      516.86780      0.36075527E-003
      517.04780      0.34455070E-003
      517.22780      0.32900930E-003
      517.40780      0.31410710E-003
      517.58780      0.29982088E-003
      517.76780      0.28612810E-003
      517.94780      0.27300689E-003
      518.12780      0.26043610E-003
      518.30780      0.24839519E-003
      518.48780      0.23686429E-003
      518.66780      0.22582415E-003
      518.84780      0.21525613E-003
      519.02780      0.20514221E-003
      519.20780      0.19546494E-003
      519.38780      0.18620742E-003
      519.56780      0.17735335E-003
      519.74780      0.16888693E-003
      519.92780      0.16079293E-003
      520.10780      0.15305660E-003
      520.28780      0.14566372E-003
      520.46780      0.13860053E-003
      520.64780      0.13185377E-003
      520.82780      0.12541064E-003
      521.00780      0.11925877E-003
      521.18780      0.11338625E-003
      521.36780      0.10778158E-003
      521.54780      0.10243368E-003
      521.72780      0.97331874E-004
      521.90780      0.92465864E-004
      522.08780      0.87825740E-004
      522.26780      0.83401952E-004
      522.44780      0.79185309E-004
      522.62780      0.75166964E-004
      522.80780      0.71338401E-004
      522.98780      0.67691432E-004
      523.16780      0.64218177E-004
      523.34780      0.60911063E-004
      523.52780      0.57762810E-004
      523.70780      0.54766419E-004
      523.88780      0.51915170E-004
      524.06780      0.49202605E-004
      524.24780      0.46622525E-004
      524.42780      0.44168977E-004
      524.60780      0.41836249E-004
      524.78780      0.39618860E-004
      524.96780      0.37511553E-004
      525.14780      0.35509285E-004
      525.32780      0.33607222E-004
      525.50780      0.31800730E-004
      525.68780      0.30085370E-004
      525.86780      0.28456888E-004
      526.04780      0.26911209E-004
      526.22780      0.25444433E-004
      526.40780      0.24052825E-004
      526.58780      0.22732811E-004
      526.76780      0.21480972E-004
      526.94780      0.20294036E-004
      527.12780      0.19168876E-004
      527.30780      0.18102500E-004
      527.48780      0.17092050E-004
      527.66780      0.16134796E-004
      527.84780      0.15228125E-004
      528.02780      0.14369548E-004
      528.20780      0.13556682E-004
      528.38780      0.12787257E-004
      528.56780      0.12059103E-004
      528.74780      0.11370152E-004
      528.92780      0.10718430E-004
      529.10780      0.10102055E-004
      529.28780      0.95192310E-005
      529.46780      0.89682486E-005
      529.64780      0.84474770E-005
      529.82780      0.79553630E-005
      530.00780      0.74904272E-005
      530.18780      0.70512605E-005
      530.36780      0.66365217E-005
      530.54780      0.62449341E-005
      530.72780      0.58752827E-005
      530.90780      0.55264119E-005
      531.08780      0.51972224E-005
      531.26780      0.48866688E-005
      531.44780      0.45937574E-005
      531.62780      0.43175439E-005
      531.80780      0.40571308E-005
      531.98780      0.38116657E-005
      532.16780      0.35803387E-005
      532.34780      0.33623813E-005
      532.52780      0.31570637E-005
      532.70780      0.29636931E-005
      532.88780      0.27816126E-005
      533.06780      0.26101986E-005
      533.24780      0.24488602E-005
      533.42780      0.22970366E-005
      533.60780      0.21541966E-005
      533.78780      0.20198367E-005
      533.96780      0.18934798E-005
      534.14780      0.17746740E-005
      534.32780      0.16629912E-005
      534.50780      0.15580264E-005
      534.68780      0.14593960E-005
      534.86780      0.13667371E-005
      535.04780      0.12797062E-005
      535.22780      0.11979785E-005
      535.40780      0.11212468E-005
      535.58780      0.10492208E-005
      535.76780      0.98162592E-006
      535.94780      0.91820277E-006
      536.12780      0.85870626E-006
      536.30780      0.80290490E-006
      536.48780      0.75058007E-006
      536.66780      0.70152539E-006
      536.84780      0.65554604E-006
      537.02780      0.61245818E-006
      537.20780      0.57208836E-006
      537.38780      0.53427299E-006
      537.56780      0.49885778E-006
      537.74780      0.46569728E-006
      537.92780      0.43465441E-006
      538.10780      0.40559995E-006
      538.28780      0.37841218E-006
      538.46780      0.35297646E-006
      538.64780      0.32918482E-006
      538.82780      0.30693560E-006
      539.00780      0.28613312E-006
      539.18780      0.26668735E-006
      539.36780      0.24851356E-006
      539.54780      0.23153209E-006
      539.72780      0.21566798E-006
      539.90780      0.20085080E-006
      540.08780      0.18701432E-006
      540.26780      0.17409630E-006
      540.44780      0.16203828E-006
      540.62780      0.15078533E-006
      540.80780      0.14028587E-006
      540.98780      0.13049149E-006
      541.16780      0.12135672E-006
      541.34780      0.11283890E-006
      541.52780      0.10489801E-006
      541.70780      0.97496501E-007
      541.88780      0.90599165E-007
      542.06780      0.84172987E-007
      542.24780      0.78187020E-007
      542.42780      0.72612260E-007
      542.60780      0.67421533E-007
      542.78780      0.62589383E-007
      542.96780      0.58091967E-007
      543.14780      0.53906964E-007
      543.32780      0.50013474E-007
      543.50780      0.46391941E-007
      543.68780      0.43024065E-007
      543.86780      0.39892724E-007
      544.04780      0.36981907E-007
      544.22780      0.34276643E-007
      544.40780      0.31762935E-007
      544.58780      0.29427701E-007
      544.76780      0.27258716E-007
      544.94780      0.25244560E-007
      545.12780      0.23374568E-007
      545.30780      0.21638777E-007
      545.48780      0.20027890E-007
      545.66780      0.18533227E-007
      545.84780      0.17146688E-007
      546.02780      0.15860716E-007
      546.20780      0.14668263E-007
      546.38780      0.13562755E-007
      546.56780      0.12538065E-007
      546.74780      0.11588480E-007
      546.92780      0.10708675E-007
      547.10780      0.98936920E-008
      547.28780      0.91389093E-008
      547.46780      0.84400243E-008
      547.64780      0.77930303E-008
      547.82780      0.71941979E-008
      548.00780      0.66400559E-008
      548.18780      0.61273746E-008
      548.36780      0.56531495E-008
      548.54780      0.52145862E-008
      548.72780      0.48090862E-008
      548.90780      0.44342341E-008
      549.08780      0.40877847E-008
      549.26780      0.37676517E-008
      549.44780      0.34718968E-008
      549.62780      0.31987199E-008
      549.80780      0.29464492E-008
      549.98780      0.27135325E-008
      550.16780      0.24985292E-008
      550.34780      0.23001024E-008
      550.52780      0.21170117E-008
      550.70780      0.19481063E-008
      550.88780      0.17923193E-008
      551.06780      0.16486614E-008
      551.24780      0.15162152E-008
      551.42780      0.13941310E-008
      551.60780      0.12816211E-008
      551.78780      0.11779559E-008
      551.96780      0.10824597E-008
      552.14780      0.99450688E-009
      552.32780      0.91351811E-009
      552.50780      0.83895731E-009
      552.68780      0.77032836E-009
      552.86780      0.70717229E-009
      553.04780      0.64906458E-009
      553.22780      0.59561265E-009
      553.40780      0.54645354E-009
      553.58780      0.50125174E-009
      553.76780      0.45969721E-009
      553.94780      0.42150348E-009
      554.12780      0.38640593E-009
      554.30780      0.35416018E-009
      554.48780      0.32454057E-009
      554.66780      0.29733880E-009
      554.84780      0.27236261E-009
      555.02780      0.24943462E-009
      555.20780      0.22839115E-009
      555.38780      0.20908128E-009
      555.56780      0.19136581E-009
      555.74780      0.17511641E-009
      555.92780      0.16021482E-009
      556.10780      0.14655203E-009
      556.28780      0.13402762E-009
      556.46780      0.12254909E-009
      556.64780      0.11203126E-009
      556.82780      0.10239568E-009
      557.00780      0.93570160E-010
      557.18780      0.85488251E-010
      557.36780      0.78088811E-010
      557.54780      0.71315594E-010
      557.72780      0.65116870E-010
      557.90780      0.59445070E-010
      558.08780      0.54256464E-010
      558.26780      0.49510858E-010
      558.44780      0.45171314E-010
      558.62780      0.41203899E-010
      558.80780      0.37577443E-010
      558.98780      0.34263320E-010
      559.16780      0.31235249E-010
      559.34780      0.28469106E-010
      559.52780      0.25942749E-010
      559.70780      0.23635863E-010
      559.88780      0.21529813E-010
      560.06780      0.19607507E-010
      560.24780      0.17853271E-010
      560.42780      0.16252738E-010
      560.60780      0.14792738E-010
      560.78780      0.13461205E-010
      560.96780      0.12247081E-010
      561.14780      0.11140241E-010
      561.32780      0.10131410E-010
      561.50780      0.92120967E-011
      561.68780      0.83745293E-011
      561.86780      0.76115944E-011
      562.04780      0.69167835E-011
      562.22780      0.62841427E-011
      562.40780      0.57082266E-011
      562.58780      0.51840560E-011
      562.76780      0.47070788E-011
      562.94780      0.42731346E-011
      563.12780      0.38784213E-011
      563.30780      0.35194654E-011
      563.48780      0.31930942E-011
      563.66780      0.28964102E-011
      563.84780      0.26267681E-011
      564.02780      0.23817528E-011
      564.20780      0.21591607E-011
      564.38780      0.19569807E-011
      564.56780      0.17733785E-011
      564.74780      0.16066809E-011
      564.92780      0.14553624E-011
      565.10780      0.13180320E-011
      565.28780      0.11934221E-011
      565.46780      0.10803775E-011
      565.64780      0.97784558E-012
