      385.83560       1.7580360     
      386.01560       1.7565110     
      386.19560       1.7553759     
      386.37560       1.7546313     
      386.55560       1.7542776     
      386.73560       1.7543148     
      386.91560       1.7547425     
      387.09560       1.7555602     
      387.27560       1.7567668     
      387.45560       1.7583610     
      387.63560       1.7603411     
      387.81560       1.7627051     
      387.99560       1.7654507     
      388.17560       1.7685752     
      388.35560       1.7720756     
      388.53560       1.7759486     
      388.71560       1.7801905     
      388.89560       1.7847974     
      389.07560       1.7897649     
      389.25560       1.7950885     
      389.43560       1.8007633     
      389.61560       1.8067839     
      389.79560       1.8131450     
      389.97560       1.8198406     
      390.15560       1.8268646     
      390.33560       1.8342106     
      390.51560       1.8418719     
      390.69560       1.8498415     
      390.87560       1.8581121     
      391.05560       1.8666762     
      391.23560       1.8755260     
      391.41560       1.8846535     
      391.59560       1.8940502     
      391.77560       1.9037077     
      391.95560       1.9136171     
      392.13560       1.9237695     
      392.31560       1.9341555     
      392.49560       1.9447658     
      392.67560       1.9555905     
      392.85560       1.9666199     
      393.03560       1.9778438     
      393.21560       1.9892520     
      393.39560       2.0008341     
      393.57560       2.0125794     
      393.75560       2.0244771     
      393.93560       2.0365163     
      394.11560       2.0486860     
      394.29560       2.0609750     
      394.47560       2.0733719     
      394.65560       2.0858652     
      394.83560       2.0984435     
      395.01560       2.1110950     
      395.19560       2.1238081     
      395.37560       2.1365708     
      395.55560       2.1493715     
      395.73560       2.1621980     
      395.91560       2.1750384     
      396.09560       2.1878807     
      396.27560       2.2007128     
      396.45560       2.2135227     
      396.63560       2.2262983     
      396.81560       2.2390274     
      396.99560       2.2516981     
      397.17560       2.2642982     
      397.35560       2.2768158     
      397.53560       2.2892390     
      397.71560       2.3015557     
      397.89560       2.3137541     
      398.07560       2.3258225     
      398.25560       2.3377492     
      398.43560       2.3495225     
      398.61560       2.3611310     
      398.79560       2.3725632     
      398.97560       2.3838079     
      399.15560       2.3948540     
      399.33560       2.4056904     
      399.51560       2.4163063     
      399.69560       2.4266911     
      399.87560       2.4368342     
      400.05560       2.4467253     
      400.23560       2.4563542     
      400.41560       2.4657109     
      400.59560       2.4747858     
      400.77560       2.4835692     
      400.95560       2.4920518     
      401.13560       2.5002246     
      401.31560       2.5080786     
      401.49560       2.5156053     
      401.67560       2.5227962     
      401.85560       2.5296432     
      402.03560       2.5361386     
      402.21560       2.5422746     
      402.39560       2.5480440     
      402.57560       2.5534397     
      402.75560       2.5584550     
      402.93560       2.5630835     
      403.11560       2.5673189     
      403.29560       2.5711554     
      403.47560       2.5745875     
      403.65560       2.5776099     
      403.83560       2.5802177     
      404.01560       2.5824062     
      404.19560       2.5841712     
      404.37560       2.5855087     
      404.55560       2.5864150     
      404.73560       2.5868869     
      404.91560       2.5869214     
      405.09560       2.5865157     
      405.27560       2.5856676     
      405.45560       2.5843751     
      405.63560       2.5826366     
      405.81560       2.5804506     
      405.99560       2.5778164     
      406.17560       2.5747331     
      406.35560       2.5712005     
      406.53560       2.5672187     
      406.71560       2.5627879     
      406.89560       2.5579089     
      407.07560       2.5525827     
      407.25560       2.5468106     
      407.43560       2.5405944     
      407.61560       2.5339360     
      407.79560       2.5268377     
      407.97560       2.5193022     
      408.15560       2.5113324     
      408.33560       2.5029316     
      408.51560       2.4941033     
      408.69560       2.4848515     
      408.87560       2.4751802     
      409.05560       2.4650939     
      409.23560       2.4545974     
      409.41560       2.4436957     
      409.59560       2.4323941     
      409.77560       2.4206982     
      409.95560       2.4086138     
      410.13560       2.3961470     
      410.31560       2.3833042     
      410.49560       2.3700919     
      410.67560       2.3565170     
      410.85560       2.3425866     
      411.03560       2.3283080     
      411.21560       2.3136887     
      411.39560       2.2987364     
      411.57560       2.2834591     
      411.75560       2.2678648     
      411.93560       2.2519620     
      412.11560       2.2357591     
      412.29560       2.2192649     
      412.47560       2.2024881     
      412.65560       2.1854378     
      412.83560       2.1681232     
      413.01560       2.1505535     
      413.19560       2.1327383     
      413.37560       2.1146870     
      413.55560       2.0964095     
      413.73560       2.0779154     
      413.91560       2.0592148     
      414.09560       2.0403176     
      414.27560       2.0212339     
      414.45560       2.0019740     
      414.63560       1.9825480     
      414.81560       1.9629664     
      414.99560       1.9432395     
      415.17560       1.9233778     
      415.35560       1.9033917     
      415.53560       1.8832917     
      415.71560       1.8630885     
      415.89560       1.8427925     
      416.07560       1.8224145     
      416.25560       1.8019649     
      416.43560       1.7814544     
      416.61560       1.7608937     
      416.79560       1.7402932     
      416.97560       1.7196635     
      417.15560       1.6990153     
      417.33560       1.6783590     
      417.51560       1.6577051     
      417.69560       1.6370641     
      417.87560       1.6164464     
      418.05560       1.5958623     
      418.23560       1.5753221     
      418.41560       1.5548360     
      418.59560       1.5344143     
      418.77560       1.5140670     
      418.95560       1.4938042     
      419.13560       1.4736357     
      419.31560       1.4535715     
      419.49560       1.4336214     
      419.67560       1.4137949     
      419.85560       1.3941018     
      420.03560       1.3745515     
      420.21560       1.3551535     
      420.39560       1.3359169     
      420.57560       1.3168510     
      420.75560       1.2979649     
      420.93560       1.2792676     
      421.11560       1.2607678     
      421.29560       1.2424745     
      421.47560       1.2243961     
      421.65560       1.2065412     
      421.83560       1.1889183     
      422.01560       1.1715355     
      422.19560       1.1544010     
      422.37560       1.1375229     
      422.55560       1.1209090     
      422.73560       1.1045673     
      422.91560       1.0885052     
      423.09560       1.0727304     
      423.27560       1.0572502     
      423.45560       1.0420720     
      423.63560       1.0272030     
      423.81560       1.0126500     
      423.99560      0.99842019     
      424.17560      0.98452021     
      424.35560      0.97095675     
      424.53560      0.95773637     
      424.71560      0.94486547     
      424.89560      0.93235037     
      425.07560      0.92019724     
      425.25560      0.90841212     
      425.43560      0.89700097     
      425.61560      0.88596959     
      425.79560      0.87532369     
      425.97560      0.86506884     
      426.15560      0.85521051     
      426.33560      0.84575404     
      426.51560      0.83670468     
      426.69560      0.82806753     
      426.87560      0.81984762     
      427.05560      0.81204982     
      427.23560      0.80467892     
      427.41560      0.79773960     
      427.59560      0.79123641     
      427.77560      0.78517382     
      427.95560      0.77955615     
      428.13560      0.77438766     
      428.31560      0.76967246     
      428.49560      0.76541459     
      428.67560      0.76161794     
      428.85560      0.75828635     
      429.03560      0.75542350     
      429.21560      0.75303299     
      429.39560      0.75111833     
      429.57560      0.74968288     
      429.75560      0.74872994     
      429.93560      0.74826267     
      430.11560      0.74828414     
      430.29560      0.74879732     
      430.47560      0.74980506     
      430.65560      0.75131009     
      430.83560      0.75331506     
      431.01560      0.75582248     
      431.19560      0.75883479     
      431.37560      0.76235426     
      431.55560      0.76638310     
      431.73560      0.77092338     
      431.91560      0.77597705     
      432.09560      0.78154595     
      432.27560      0.78763181     
      432.45560      0.79423621     
      432.63560      0.80136063     
      432.81560      0.80900641     
      432.99560      0.81717478     
      433.17560      0.82586682     
      433.35560      0.83508349     
      433.53560      0.84482560     
      433.71560      0.85509384     
      433.89560      0.86588874     
      434.07560      0.87721070     
      434.25560      0.88905996     
      434.43560      0.90143663     
      434.61560      0.91434065     
      434.79560      0.92777180     
      434.97560      0.94172971     
      435.15560      0.95621385     
      435.33560      0.97122351     
      435.51560      0.98675782     
      435.69560       1.0028157     
      435.87560       1.0193960     
      436.05560       1.0364973     
      436.23560       1.0541180     
      436.41560       1.0722563     
      436.59560       1.0909102     
      436.77560       1.1100776     
      436.95560       1.1297562     
      437.13560       1.1499433     
      437.31560       1.1706362     
      437.49560       1.1918319     
      437.67560       1.2135272     
      437.85560       1.2357188     
      438.03560       1.2584029     
      438.21560       1.2815758     
      438.39560       1.3052334     
      438.57560       1.3293713     
      438.75560       1.3539851     
      438.93560       1.3790699     
      439.11560       1.4046207     
      439.29560       1.4306324     
      439.47560       1.4570993     
      439.65560       1.4840159     
      439.83560       1.5113760     
      440.01560       1.5391736     
      440.19560       1.5674020     
      440.37560       1.5960545     
      440.55560       1.6251242     
      440.73560       1.6546039     
      440.91560       1.6844859     
      441.09560       1.7147627     
      441.27560       1.7454260     
      441.45560       1.7764678     
      441.63560       1.8078795     
      441.81560       1.8396522     
      441.99560       1.8717769     
      442.17560       1.9042444     
      442.35560       1.9370450     
      442.53560       1.9701690     
      442.71560       2.0036063     
      442.89560       2.0373466     
      443.07560       2.0713794     
      443.25560       2.1056937     
      443.43560       2.1402786     
      443.61560       2.1751228     
      443.79560       2.2102147     
      443.97560       2.2455425     
      444.15560       2.2810944     
      444.33560       2.3168580     
      444.51560       2.3528208     
      444.69560       2.3889703     
      444.87560       2.4252936     
      445.05560       2.4617775     
      445.23560       2.4984087     
      445.41560       2.5351739     
      445.59560       2.5720593     
      445.77560       2.6090510     
      445.95560       2.6461351     
      446.13560       2.6832973     
      446.31560       2.7205232     
      446.49560       2.7577984     
      446.67560       2.7951082     
      446.85560       2.8324378     
      447.03560       2.8697722     
      447.21560       2.9070964     
      447.39560       2.9443952     
      447.57560       2.9816534     
      447.75560       3.0188556     
      447.93560       3.0559864     
      448.11560       3.0930301     
      448.29560       3.1299714     
      448.47560       3.1667944     
      448.65560       3.2034835     
      448.83560       3.2400231     
      449.01560       3.2763973     
      449.19560       3.3125905     
      449.37560       3.3485868     
      449.55560       3.3843705     
      449.73560       3.4199260     
      449.91560       3.4552375     
      450.09560       3.4902893     
      450.27560       3.5250659     
      450.45560       3.5595518     
      450.63560       3.5937316     
      450.81560       3.6275898     
      450.99560       3.6611112     
      451.17560       3.6942807     
      451.35560       3.7270833     
      451.53560       3.7595040     
      451.71560       3.7915282     
      451.89560       3.8231414     
      452.07560       3.8543290     
      452.25560       3.8850768     
      452.43560       3.9153710     
      452.61560       3.9451975     
      452.79560       3.9745429     
      452.97560       4.0033936     
      453.15560       4.0317367     
      453.33560       4.0595591     
      453.51560       4.0868482     
      453.69560       4.1135917     
      453.87560       4.1397774     
      454.05560       4.1653935     
      454.23560       4.1904285     
      454.41560       4.2148712     
      454.59560       4.2387106     
      454.77560       4.2619362     
      454.95560       4.2845376     
      455.13560       4.3065051     
      455.31560       4.3278289     
      455.49560       4.3484999     
      455.67560       4.3685091     
      455.85560       4.3878482     
      456.03560       4.4065089     
      456.21560       4.4244834     
      456.39560       4.4417645     
      456.57560       4.4583451     
      456.75560       4.4742186     
      456.93560       4.4893788     
      457.11560       4.5038199     
      457.29560       4.5175366     
      457.47560       4.5305238     
      457.65560       4.5427769     
      457.83560       4.5542918     
      458.01560       4.5650648     
      458.19560       4.5750924     
      458.37560       4.5843718     
      458.55560       4.5929005     
      458.73560       4.6006764     
      458.91560       4.6076978     
      459.09560       4.6139634     
      459.27560       4.6194725     
      459.45560       4.6242246     
      459.63560       4.6282197     
      459.81560       4.6314582     
      459.99560       4.6339410     
      460.17560       4.6356692     
      460.35560       4.6366445     
      460.53560       4.6368689     
      460.71560       4.6363448     
      460.89560       4.6350750     
      461.07560       4.6330627     
      461.25560       4.6303115     
      461.43560       4.6268253     
      461.61560       4.6226085     
      461.79560       4.6176658     
      461.97560       4.6120021     
      462.15560       4.6056228     
      462.33560       4.5985338     
      462.51560       4.5907410     
      462.69560       4.5822508     
      462.87560       4.5730701     
      463.05560       4.5632057     
      463.23560       4.5526651     
      463.41560       4.5414558     
      463.59560       4.5295858     
      463.77560       4.5170632     
      463.95560       4.5038966     
      464.13560       4.4900947     
      464.31560       4.4756664     
      464.49560       4.4606209     
      464.67560       4.4449677     
      464.85560       4.4287165     
      465.03560       4.4118772     
      465.21560       4.3944597     
      465.39560       4.3764745     
      465.57560       4.3579320     
      465.75560       4.3388427     
      465.93560       4.3192175     
      466.11560       4.2990673     
      466.29560       4.2784033     
      466.47560       4.2572365     
      466.65560       4.2355785     
      466.83560       4.2134405     
      467.01560       4.1908342     
      467.19560       4.1677711     
      467.37560       4.1442631     
      467.55560       4.1203219     
      467.73560       4.0959593     
      467.91560       4.0711873     
      468.09560       4.0460179     
      468.27560       4.0204629     
      468.45560       3.9945344     
      468.63560       3.9682444     
      468.81560       3.9416049     
      468.99560       3.9146280     
      469.17560       3.8873257     
      469.35560       3.8597099     
      469.53560       3.8317926     
      469.71560       3.8035858     
      469.89560       3.7751013     
      470.07560       3.7463509     
      470.25560       3.7173465     
      470.43560       3.6880996     
      470.61560       3.6586220     
      470.79560       3.6289252     
      470.97560       3.5990206     
      471.15560       3.5689196     
      471.33560       3.5386335     
      471.51560       3.5081734     
      471.69560       3.4775504     
      471.87560       3.4467754     
      472.05560       3.4158592     
      472.23560       3.3848125     
      472.41560       3.3536459     
      472.59560       3.3223698     
      472.77560       3.2909944     
      472.95560       3.2595299     
      473.13560       3.2279863     
      473.31560       3.1963733     
      473.49560       3.1647008     
      473.67560       3.1329782     
      473.85560       3.1012149     
      474.03560       3.0694201     
      474.21560       3.0376028     
      474.39560       3.0057719     
      474.57560       2.9739361     
      474.75560       2.9421040     
      474.93560       2.9102840     
      475.11560       2.8784841     
      475.29560       2.8467125     
      475.47560       2.8149770     
      475.65560       2.7832852     
      475.83560       2.7516447     
      476.01560       2.7200629     
      476.19560       2.6885468     
      476.37560       2.6571034     
      476.55560       2.6257396     
      476.73560       2.5944619     
      476.91560       2.5632769     
      477.09560       2.5321908     
      477.27560       2.5012097     
      477.45560       2.4703397     
      477.63560       2.4395864     
      477.81560       2.4089555     
      477.99560       2.3784524     
      478.17560       2.3480825     
      478.35560       2.3178507     
      478.53560       2.2877622     
      478.71560       2.2578217     
      478.89560       2.2280338     
      479.07560       2.1984031     
      479.25560       2.1689338     
      479.43560       2.1396302     
      479.61560       2.1104962     
      479.79560       2.0815359     
      479.97560       2.0527529     
      480.15560       2.0241508     
      480.33560       1.9957332     
      480.51560       1.9675033     
      480.69560       1.9394643     
      480.87560       1.9116194     
      481.05560       1.8839713     
      481.23560       1.8565231     
      481.41560       1.8292773     
      481.59560       1.8022365     
      481.77560       1.7754031     
      481.95560       1.7487795     
      482.13560       1.7223679     
      482.31560       1.6961704     
      482.49560       1.6701890     
      482.67560       1.6444255     
      482.85560       1.6188818     
      483.03560       1.5935596     
      483.21560       1.5684603     
      483.39560       1.5435855     
      483.57560       1.5189366     
      483.75560       1.4945148     
      483.93560       1.4703215     
      484.11560       1.4463576     
      484.29560       1.4226242     
      484.47560       1.3991222     
      484.65560       1.3758526     
      484.83560       1.3528160     
      485.01560       1.3300133     
      485.19560       1.3074449     
      485.37560       1.2851115     
      485.55560       1.2630135     
      485.73560       1.2411514     
      485.91560       1.2195255     
      486.09560       1.1981360     
      486.27560       1.1769831     
      486.45560       1.1560670     
      486.63560       1.1353878     
      486.81560       1.1149454     
      486.99560       1.0947399     
      487.17560       1.0747711     
      487.35560       1.0550388     
      487.53560       1.0355428     
      487.71560       1.0162829     
      487.89560      0.99725870     
      488.07560      0.97846985     
      488.25560      0.95991590     
      488.43560      0.94159638     
      488.61560      0.92351076     
      488.79560      0.90565844     
      488.97560      0.88803882     
      489.15560      0.87065121     
      489.33560      0.85349489     
      489.51560      0.83656912     
      489.69560      0.81987307     
      489.87560      0.80340591     
      490.05560      0.78716674     
      490.23560      0.77115465     
      490.41560      0.75536865     
      490.59560      0.73980774     
      490.77560      0.72447088     
      490.95560      0.70935699     
      491.13560      0.69446494     
      491.31560      0.67979358     
      491.49560      0.66534172     
      491.67560      0.65110814     
      491.85560      0.63709157     
      492.03560      0.62329073     
      492.21560      0.60970430     
      492.39560      0.59633091     
      492.57560      0.58316919     
      492.75560      0.57021771     
      492.93560      0.55747504     
      493.11560      0.54493969     
      493.29560      0.53261018     
      493.47560      0.52048496     
      493.65560      0.50856248     
      493.83560      0.49684116     
      494.01560      0.48531939     
      494.19560      0.47399555     
      494.37560      0.46286797     
      494.55560      0.45193497     
      494.73560      0.44119486     
      494.91560      0.43064591     
      495.09560      0.42028637     
      495.27560      0.41011449     
      495.45560      0.40012847     
      495.63560      0.39032652     
      495.81560      0.38070681     
      495.99560      0.37126750     
      496.17560      0.36200674     
      496.35560      0.35292265     
      496.53560      0.34401335     
      496.71560      0.33527694     
      496.89560      0.32671151     
      497.07560      0.31831511     
      497.25560      0.31008582     
      497.43560      0.30202169     
      497.61560      0.29412075     
      497.79560      0.28638103     
      497.97560      0.27880055     
      498.15560      0.27137732     
      498.33560      0.26410935     
      498.51560      0.25699463     
      498.69560      0.25003115     
      498.87560      0.24321690     
      499.05560      0.23654987     
      499.23560      0.23002803     
      499.41560      0.22364936     
      499.59560      0.21741183     
      499.77560      0.21131342     
      499.95560      0.20535210     
      500.13560      0.19952583     
      500.31560      0.19383261     
      500.49560      0.18827039     
      500.67560      0.18283717     
      500.85560      0.17753092     
      501.03560      0.17234964     
      501.21560      0.16729131     
      501.39560      0.16235392     
      501.57560      0.15753550     
      501.75560      0.15283403     
      501.93560      0.14824756     
      502.11560      0.14377409     
      502.29560      0.13941167     
      502.47560      0.13515834     
      502.65560      0.13101216     
      502.83560      0.12697120     
      503.01560      0.12303353     
      503.19560      0.11919725     
      503.37560      0.11546045     
      503.55560      0.11182127     
      503.73560      0.10827782     
      503.91560      0.10482826     
      504.09560      0.10147074     
      504.27560      0.98203438E-001
      504.45560      0.95024551E-001
      504.63560      0.91932284E-001
      504.81560      0.88924863E-001
      504.99560      0.86000531E-001
      505.17560      0.83157546E-001
      505.35560      0.80394189E-001
      505.53560      0.77708755E-001
      505.71560      0.75099561E-001
      505.89560      0.72564940E-001
      506.07560      0.70103249E-001
      506.25560      0.67712859E-001
      506.43560      0.65392167E-001
      506.61560      0.63139587E-001
      506.79560      0.60953553E-001
      506.97560      0.58832523E-001
      507.15560      0.56774972E-001
      507.33560      0.54779401E-001
      507.51560      0.52844328E-001
      507.69560      0.50968295E-001
      507.87560      0.49149866E-001
      508.05560      0.47387624E-001
      508.23560      0.45680179E-001
      508.41560      0.44026157E-001
      508.59560      0.42424212E-001
      508.77560      0.40873016E-001
      508.95560      0.39371265E-001
      509.13560      0.37917676E-001
      509.31560      0.36510991E-001
      509.49560      0.35149972E-001
      509.67560      0.33833403E-001
      509.85560      0.32560091E-001
      510.03560      0.31328865E-001
      510.21560      0.30138578E-001
      510.39560      0.28988101E-001
      510.57560      0.27876330E-001
      510.75560      0.26802183E-001
      510.93560      0.25764598E-001
      511.11560      0.24762535E-001
      511.29560      0.23794976E-001
      511.47560      0.22860926E-001
      511.65560      0.21959407E-001
      511.83560      0.21089465E-001
      512.01560      0.20250168E-001
      512.19560      0.19440601E-001
      512.37560      0.18659872E-001
      512.55560      0.17907109E-001
      512.73560      0.17181459E-001
      512.91560      0.16482090E-001
      513.09560      0.15808188E-001
      513.27560      0.15158961E-001
      513.45560      0.14533635E-001
      513.63560      0.13931452E-001
      513.81560      0.13351678E-001
      513.99560      0.12793592E-001
      514.17560      0.12256496E-001
      514.35560      0.11739706E-001
      514.53560      0.11242558E-001
      514.71560      0.10764404E-001
      514.89560      0.10304614E-001
      515.07560      0.98625740E-002
      515.25560      0.94376870E-002
      515.43560      0.90293722E-002
      515.61560      0.86370644E-002
      515.79560      0.82602146E-002
      515.97560      0.78982887E-002
      516.15560      0.75507680E-002
      516.33560      0.72171484E-002
      516.51560      0.68969405E-002
      516.69560      0.65896689E-002
      516.87560      0.62948725E-002
      517.05560      0.60121034E-002
      517.23560      0.57409275E-002
      517.41560      0.54809237E-002
      517.59560      0.52316834E-002
      517.77560      0.49928109E-002
      517.95560      0.47639226E-002
      518.13560      0.45446468E-002
      518.31560      0.43346237E-002
      518.49560      0.41335047E-002
      518.67560      0.39409525E-002
      518.85560      0.37566406E-002
      519.03560      0.35802531E-002
      519.21560      0.34114846E-002
      519.39560      0.32500395E-002
      519.57560      0.30956324E-002
      519.75560      0.29479872E-002
      519.93560      0.28068373E-002
      520.11560      0.26719250E-002
      520.29560      0.25430017E-002
      520.47560      0.24198272E-002
      520.65560      0.23021697E-002
      520.83560      0.21898055E-002
      521.01560      0.20825189E-002
      521.19560      0.19801019E-002
      521.37560      0.18823538E-002
      521.55560      0.17890813E-002
      521.73560      0.17000981E-002
      521.91560      0.16152245E-002
      522.09560      0.15342877E-002
      522.27560      0.14571213E-002
      522.45560      0.13835649E-002
      522.63560      0.13134643E-002
      522.81560      0.12466711E-002
      522.99560      0.11830425E-002
      523.17560      0.11224413E-002
      523.35560      0.10647354E-002
      523.53560      0.10097981E-002
      523.71560      0.95750733E-003
      523.89560      0.90774609E-003
      524.07560      0.86040188E-003
      524.25560      0.81536671E-003
      524.43560      0.77253689E-003
      524.61560      0.73181295E-003
      524.79560      0.69309942E-003
      524.97560      0.65630473E-003
      525.15560      0.62134109E-003
      525.33560      0.58812430E-003
      525.51560      0.55657367E-003
      525.69560      0.52661190E-003
      525.87560      0.49816489E-003
      526.05560      0.47116171E-003
      526.23560      0.44553442E-003
      526.41560      0.42121800E-003
      526.59560      0.39815021E-003
      526.77560      0.37627148E-003
      526.95560      0.35552487E-003
      527.13560      0.33585590E-003
      527.31560      0.31721247E-003
      527.49560      0.29954480E-003
      527.67560      0.28280532E-003
      527.85560      0.26694856E-003
      528.03560      0.25193112E-003
      528.21560      0.23771153E-003
      528.39560      0.22425020E-003
      528.57560      0.21150937E-003
      528.75560      0.19945297E-003
      528.93560      0.18804663E-003
      529.11560      0.17725754E-003
      529.29560      0.16705442E-003
      529.47560      0.15740746E-003
      529.65560      0.14828824E-003
      529.83560      0.13966969E-003
      530.01560      0.13152602E-003
      530.19560      0.12383266E-003
      530.37560      0.11656623E-003
      530.55560      0.10970446E-003
      530.73560      0.10322617E-003
      530.91560      0.97111200E-004
      531.09560      0.91340374E-004
      531.27560      0.85895458E-004
      531.45560      0.80759114E-004
      531.63560      0.75914864E-004
      531.81560      0.71347048E-004
      531.99560      0.67040786E-004
      532.17560      0.62981946E-004
      532.35560      0.59157107E-004
      532.53560      0.55553529E-004
      532.71560      0.52159118E-004
      532.89560      0.48962396E-004
      533.07560      0.45952477E-004
      533.25560      0.43119034E-004
      533.43560      0.40452273E-004
      533.61560      0.37942911E-004
      533.79560      0.35582147E-004
      533.97560      0.33361645E-004
      534.15560      0.31273503E-004
      534.33560      0.29310241E-004
      534.51560      0.27464772E-004
      534.69560      0.25730389E-004
      534.87560      0.24100745E-004
      535.05560      0.22569831E-004
      535.23560      0.21131964E-004
      535.41560      0.19781770E-004
      535.59560      0.18514166E-004
      535.77560      0.17324346E-004
      535.95560      0.16207770E-004
      536.13560      0.15160145E-004
      536.31560      0.14177417E-004
      536.49560      0.13255758E-004
      536.67560      0.12391551E-004
      536.85560      0.11581383E-004
      537.03560      0.10822033E-004
      537.21560      0.10110460E-004
      537.39560      0.94437968E-005
      537.57560      0.88193378E-005
      537.75560      0.82345325E-005
      537.93560      0.76869763E-005
      538.11560      0.71744027E-005
      538.29560      0.66946761E-005
      538.47560      0.62457844E-005
      538.65560      0.58258327E-005
      538.83560      0.54330365E-005
      539.01560      0.50657158E-005
      539.19560      0.47222894E-005
      539.37560      0.44012694E-005
      539.55560      0.41012561E-005
      539.73560      0.38209326E-005
      539.91560      0.35590610E-005
      540.09560      0.33144773E-005
      540.27560      0.30860873E-005
      540.45560      0.28728630E-005
      540.63560      0.26738384E-005
      540.81560      0.24881064E-005
      540.99560      0.23148149E-005
      541.17560      0.21531641E-005
      541.35560      0.20024030E-005
      541.53560      0.18618273E-005
      541.71560      0.17307757E-005
      541.89560      0.16086284E-005
      542.07560      0.14948037E-005
      542.25560      0.13887564E-005
      542.43560      0.12899757E-005
      542.61560      0.11979824E-005
      542.79560      0.11123280E-005
      542.97560      0.10325921E-005
      543.15560      0.95838099E-006
      543.33560      0.88932617E-006
      543.51560      0.82508261E-006
      543.69560      0.76532741E-006
      543.87560      0.70975846E-006
      544.05560      0.65809312E-006
      544.23560      0.61006709E-006
      544.41560      0.56543320E-006
      544.59560      0.52396040E-006
      544.77560      0.48543277E-006
      544.95560      0.44964852E-006
      545.13560      0.41641915E-006
      545.31560      0.38556861E-006
      545.49560      0.35693250E-006
      545.67560      0.33035734E-006
      545.85560      0.30569988E-006
      546.03560      0.28282644E-006
      546.21560      0.26161231E-006
      546.39560      0.24194118E-006
      546.57560      0.22370456E-006
      546.75560      0.20680132E-006
      546.93560      0.19113719E-006
      547.11560      0.17662432E-006
      547.29560      0.16318087E-006
      547.47560      0.15073059E-006
      547.65560      0.13920248E-006
      547.83560      0.12853043E-006
      548.01560      0.11865290E-006
      548.19560      0.10951262E-006
      548.37560      0.10105630E-006
      548.55560      0.93234360E-007
      548.73560      0.86000707E-007
      548.91560      0.79312465E-007
      549.09560      0.73129781E-007
      549.27560      0.67415615E-007
      549.45560      0.62135546E-007
      549.63560      0.57257600E-007
      549.81560      0.52752075E-007
      549.99560      0.48591393E-007
      550.17560      0.44749948E-007
      550.35560      0.41203975E-007
      550.53560      0.37931418E-007
      550.71560      0.34911815E-007
      550.89560      0.32126186E-007
      551.07560      0.29556927E-007
      551.25560      0.27187719E-007
      551.43560      0.25003433E-007
      551.61560      0.22990049E-007
      551.79560      0.21134575E-007
      551.97560      0.19424978E-007
      552.15560      0.17850110E-007
      552.33560      0.16399653E-007
      552.51560      0.15064051E-007
      552.69560      0.13834461E-007
      552.87560      0.12702702E-007
      553.05560      0.11661202E-007
      553.23560      0.10702960E-007
      553.41560      0.98215011E-008
      553.59560      0.90108380E-008
      553.77560      0.82654377E-008
      553.95560      0.75801866E-008
      554.13560      0.69503599E-008
      554.31560      0.63715934E-008
      554.49560      0.58398564E-008
      554.67560      0.53514274E-008
      554.85560      0.49028710E-008
      555.03560      0.44910164E-008
      555.21560      0.41129382E-008
      555.39560      0.37659371E-008
      555.57560      0.34475241E-008
      555.75560      0.31554035E-008
      555.93560      0.28874591E-008
      556.11560      0.26417403E-008
      556.29560      0.24164497E-008
      556.47560      0.22099312E-008
      556.65560      0.20206593E-008
      556.83560      0.18472291E-008
      557.01560      0.16883473E-008
      557.19560      0.15428232E-008
      557.37560      0.14095610E-008
      557.55560      0.12875524E-008
      557.73560      0.11758700E-008
      557.91560      0.10736607E-008
      558.09560      0.98014002E-009
      558.27560      0.89458691E-009
      558.45560      0.81633852E-009
      558.63560      0.74478580E-009
      558.81560      0.67936914E-009
      558.99560      0.61957457E-009
      559.17560      0.56493007E-009
      559.35560      0.51500225E-009
      559.53560      0.46939332E-009
      559.71560      0.42773818E-009
      559.89560      0.38970184E-009
      560.07560      0.35497702E-009
      560.25560      0.32328187E-009
      560.43560      0.29435796E-009
      560.61560      0.26796838E-009
      560.79560      0.24389599E-009
      560.97560      0.22194180E-009
      561.15560      0.20192350E-009
      561.33560      0.18367412E-009
      561.51560      0.16704073E-009
      561.69560      0.15188334E-009
      561.87560      0.13807378E-009
      562.05560      0.12549477E-009
      562.23560      0.11403899E-009
      562.41560      0.10360827E-009
      562.59560      0.94112825E-010
      562.77560      0.85470555E-010
      562.95560      0.77606405E-010
      563.13560      0.70451773E-010
      563.31560      0.63943973E-010
      563.49560      0.58025733E-010
      563.67560      0.52644738E-010
      563.85560      0.47753217E-010
      564.03560      0.43307550E-010
      564.21560      0.39267922E-010
      564.39560      0.35597996E-010
      564.57560      0.32264616E-010
      564.75560      0.29237536E-010
      564.93560      0.26489171E-010
      565.11560      0.23994366E-010
      565.29560      0.21730189E-010
      565.47560      0.19675740E-010
      565.65560      0.17811969E-010
      565.83560      0.16121526E-010
