      378.17740       9.8706770     
      381.93357       9.4307871     
      385.68974       8.9716136     
      389.44590       8.5435199     
      393.20207       8.2431351     
      396.95824       8.1965142     
      400.71441       8.5292934     
      404.47057       9.3262048     
      408.22674       10.587964     
      411.98291       12.201359     
      415.73908       13.939341     
      419.49524       15.498372     
      423.25141       16.566152     
      427.00758       16.902653     
      430.76375       16.413866     
      434.51992       15.197848     
      438.27608       13.545700     
      442.03225       11.889015     
      445.78842       10.701067     
      449.54459       10.375019     
      453.30075       11.110219     
      457.05692       12.836408     
      460.81309       15.200619     
      464.56926       17.633331     
      468.32542       19.491493     
      472.08159       20.243357     
      475.83776       19.629435     
      479.59393       17.732025     
      483.35010       14.924212     
      487.10626       11.727423     
      490.86243       8.6464439     
      494.61860       6.0488000     
      498.37477       4.1200673     
      502.13093       2.8865872     
      505.88710       2.2748970     
      509.64327       2.1763123     
      513.39944       2.4950809     
      517.15560       3.1691043     
      520.91177       4.1610712     
      524.66794       5.4276361     
      528.42411       6.8851179     
      532.18028       8.3957173     
      535.93644       9.7903471     
      539.69261       10.922360     
      543.44878       11.722831     
      547.20495       12.220581     
      550.96111       12.508214     
      554.71728       12.670125     
      558.47345       12.716419     
      562.22962       12.567029     
      565.98578       12.100292     
      569.74195       11.238718     
      573.49812       10.019958     
      577.25429       8.6099672     
      581.01046       7.2510019     
      584.76662       6.1738087     
      588.52279       5.5176989     
      592.27896       5.2902748     
      596.03513       5.3749881     
      599.79129       5.5762958     
      603.54746       5.6843290     
      607.30363       5.5391868     
      611.05980       5.0754022     
      614.81597       4.3320472     
      618.57213       3.4261784     
      622.32830       2.5030125     
      626.08447       1.6858173     
      629.84064       1.0454496     
      633.59680      0.59643789     
      637.35297      0.31284512     
      641.10914      0.15079893     
      644.86531      0.66776721E-001
      648.62147      0.27160931E-001
      652.37764      0.10160695E-001
      656.13381      0.35604082E-002
      659.88998      0.14180322E-002
      663.64615      0.14613714E-002
      667.40231      0.37943758E-002
      671.15848      0.11040643E-001
      674.91465      0.30011879E-001
      678.67082      0.74916476E-001
      682.42698      0.17149413     
      686.18315      0.35998855     
      689.93932      0.69300090     
      693.69549       1.2236108     
      697.45165       1.9819873     
      701.20782       2.9459633     
      704.96399       4.0197749     
      708.72016       5.0384594     
      712.47633       5.8069643     
      716.23249       6.1641146     
      719.98866       6.0434539     
      723.74483       5.4997991     
      727.50100       4.6870209     
      731.25716       3.7988778     
      735.01333       3.0028840     
      738.76950       2.3962177     
      742.52567       1.9963008     
      746.28183       1.7600982     
      750.03800       1.6163785     
      753.79417       1.4960335     
      757.55034       1.3519700     
      761.30651       1.1664128     
      765.06267      0.94743300     
      768.81884      0.71864165     
      772.57501      0.50699195     
      776.33118      0.33337442     
      780.08734      0.20889569     
      783.84351      0.13702113     
      787.59968      0.11938158     
      791.35585      0.16184937     
      795.11201      0.27745460     
      798.86818      0.48351701     
      802.62435      0.79216063     
      806.38052       1.1965352     
      810.13669       1.6589393     
      813.89285       2.1091297     
      817.64902       2.4583857     
      821.40519       2.6269393     
      825.16136       2.5733507     
      828.91752       2.3109833     
      832.67369       1.9026043     
      836.42986       1.4360869     
      840.18603      0.99410468     
      843.94219      0.63214775     
      847.69836      0.37239662     
      851.45453      0.21180473     
      855.21070      0.13713679     
      858.96687      0.13944047     
      862.72303      0.22312636     
      866.47920      0.40731651     
      870.23537      0.71837072     
      873.99154       1.1739888     
      877.74770       1.7628457     
      881.50387       2.4287480     
      885.26004       3.0709128     
      889.01621       3.5675586     
      892.77237       3.8181041     
      896.52854       3.7861525     
      900.28471       3.5207009     
      904.04088       3.1418327     
      907.79705       2.7951403     
      911.55321       2.5953225     
      915.30938       2.5844709     
      919.06555       2.7228395     
      922.82172       2.9144814     
      926.57788       3.0544803     
      930.33405       3.0750952     
      934.09022       2.9692352     
      937.84639       2.7816045     
      941.60255       2.5751892     
      945.35872       2.3937491     
      949.11489       2.2415234     
      952.87106       2.0892182     
      956.62723       1.8988481     
      960.38339       1.6500155     
      964.13956       1.3522730     
      967.89573       1.0391663     
      971.65190      0.75089366     
      975.40806      0.51717719     
      979.16423      0.34875708     
      982.92040      0.23901727     
      986.67657      0.17177395     
      990.43274      0.12975909     
      994.18890      0.10009231     
      997.94507      0.75831558E-001
     1001.70124      0.54721343E-001
     1005.45741      0.36914567E-001
     1009.21357      0.23048283E-001
     1012.96974      0.13253048E-001
     1016.72591      0.70014930E-002
     1020.48208      0.33950435E-002
     1024.23824      0.15132239E-002
     1027.99441      0.63290082E-003
     1031.75058      0.30065375E-003
     1035.50675      0.33927553E-003
     1039.26292      0.90541293E-003
     1043.01908      0.27379343E-002
     1046.77525      0.77681615E-002
     1050.53142      0.20258817E-001
     1054.28759      0.48473583E-001
     1058.04375      0.10640441     
     1061.79992      0.21430145     
     1065.55609      0.39606343     
     1069.31226      0.67181942     
     1073.06842       1.0461022     
     1076.82459       1.4956423     
     1080.58076       1.9639292     
     1084.33693       2.3691668     
     1088.09310       2.6265173     
     1091.84926       2.6769418     
     1095.60543       2.5092650     
     1099.36160       2.1641764     
     1103.11777       1.7182221     
     1106.87393       1.2563697     
     1110.63010      0.84649097     
     1114.38627      0.52578394     
     1118.14244      0.30121500     
     1121.89860      0.15922715     
     1125.65477      0.77694545E-001
     1129.41094      0.35005017E-001
     1133.16711      0.14567764E-001
     1136.92328      0.56106726E-002
     1140.67944      0.20411252E-002
     1144.43561      0.85277682E-003
     1148.19178      0.88080773E-003
     1151.94795      0.21808633E-002
     1155.70411      0.60732312E-002
     1159.46028      0.15835129E-001
     1163.21645      0.37923621E-001
     1166.97262      0.83276352E-001
     1170.72878      0.16764397     
     1174.48495      0.30938708     
     1178.24112      0.52343632     
     1181.99729      0.81184461     
     1185.75346       1.1543283     
     1189.50962       1.5046418     
     1193.26579       1.7979777     
     1197.02196       1.9696218     
     1200.77813       1.9780113     
     1204.53429       1.8210507     
     1208.29046       1.5369605     
     1212.04663       1.1891886     
     1215.80280      0.84350201     
     1219.55896      0.54849022     
     1223.31513      0.32696333     
     1227.07130      0.17868032     
     1230.82747      0.89516604E-001
     1234.58364      0.41114850E-001
     1238.33980      0.17321331E-001
     1242.09597      0.67322666E-002
     1245.85214      0.25716516E-002
     1249.60831      0.15412224E-002
     1253.36447      0.28769846E-002
     1257.12064      0.83695339E-002
     1260.87681      0.23899349E-001
     1264.63298      0.62952949E-001
     1268.38914      0.15209990     
     1272.14531      0.33690669     
     1275.90148      0.68413133     
     1279.65765       1.2735525     
     1283.41382       2.1734098     
     1287.16998       3.4002727     
     1290.92615       4.8767811     
     1294.68232       6.4120980     
     1298.43849       7.7288426     
     1302.19465       8.5403636     
     1305.95082       8.6514037     
     1309.70699       8.0343044     
     1313.46316       6.8403021     
     1317.21933       5.3398340     
     1320.97549       3.8244372     
     1324.73166       2.5195946     
     1328.48783       1.5441120     
     1332.24400      0.92099091     
     1336.00016      0.61911200     
     1339.75633      0.59699587     
     1343.51250      0.82741752     
     1347.26867       1.2954921     
     1351.02483       1.9758323     
     1354.78100       2.8038076     
     1358.53717       3.6600988     
     1362.29334       4.3835914     
     1366.04951       4.8138662     
     1369.80567       4.8464480     
     1373.56184       4.4730600     
     1377.31801       3.7847277     
     1381.07418       2.9357208     
     1384.83034       2.0876511     
     1388.58651       1.3612670     
     1392.34268      0.81479789     
     1396.09885      0.45066806     
     1399.85501      0.23935268     
     1403.61118      0.14648036     
     1407.36735      0.15457150     
     1411.12352      0.27718261     
     1414.87969      0.56540016     
     1418.63585       1.1040030     
     1422.39202       1.9911498     
     1426.14819       3.2972508     
     1429.90436       5.0097239     
     1433.66052       6.9873677     
     1437.41669       8.9588395     
     1441.17286       10.589485     
     1444.92903       11.605922     
     1448.68519       11.925365     
     1452.44136       11.716906     
     1456.19753       11.346020     
     1459.95370       11.213502     
     1463.70987       11.561716     
     1467.46603       12.346099     
     1471.22220       13.241254     
     1474.97837       13.782697     
     1478.73454       13.574367     
     1482.49070       12.458515     
     1486.24687       10.568517     
     1490.00304       8.2518647     
     1493.75921       5.9181316     
     1497.51537       3.8947035     
     1501.27154       2.3507667     
     1505.02771       1.3010331     
     1508.78388      0.66018900     
     1512.54005      0.30717653     
     1516.29621      0.13122122     
     1520.05238      0.52074203E-001
     1523.80855      0.21173246E-001
     1527.56472      0.14451451E-001
     1531.32088      0.24878905E-001
     1535.07705      0.58407161E-001
     1538.83322      0.13341381     
     1542.58939      0.28128616     
     1546.34555      0.54409227     
     1550.10172      0.96490315     
     1553.85789       1.5687511     
     1557.61406       2.3382425     
     1561.37023       3.1952971     
     1565.12639       4.0037544     
     1568.88256       4.6011665     
     1572.63873       4.8524853     
     1576.39490       4.7025679     
     1580.15106       4.2006625     
     1583.90723       3.4832810     
     1587.66340       2.7242700     
     1591.41957       2.0772958     
     1595.17573       1.6361926     
     1598.93190       1.4249449     
     1602.68807       1.4125172     
     1606.44424       1.5384073     
     1610.20041       1.7354131     
     1613.95657       1.9429384     
     1617.71274       2.1116362     
     1621.46891       2.2044433     
     1625.22508       2.1989832     
     1628.98124       2.0933381     
     1632.73741       1.9142305     
     1636.49358       1.7262307     
     1640.24975       1.6425654     
     1644.00591       1.8388740     
     1647.76208       2.5660949     
     1651.51825       4.1465486     
     1655.27442       6.9256289     
     1659.03059       11.155799     
     1662.78675       16.823058     
     1666.54292       23.482228     
     1670.29909       30.210219     
     1674.05526       35.767565     
     1677.81142       38.960523     
     1681.56759       39.066520     
     1685.32376       36.117337     
     1689.07993       30.891641     
     1692.83610       24.623937     
     1696.59226       18.584788     
     1700.34843       13.729744     
     1704.10460       10.539891     
     1707.86077       9.0564521     
     1711.61693       9.0281017     
     1715.37310       10.074351     
     1719.12927       11.799755     
     1722.88544       13.837241     
     1726.64160       15.836812     
     1730.39777       17.442312     
     1734.15394       18.304010     
     1737.91011       18.148066     
     1741.66628       16.875442     
     1745.42244       14.626941     
     1749.17861       11.760639     
     1752.93478       8.7402291     
     1756.69095       5.9882988     
     1760.44711       3.7755857     
     1764.20328       2.1878787     
     1767.95945       1.1642656     
     1771.71562      0.56862110     
     1775.47178      0.25478280     
     1779.22795      0.10470872     
     1782.98412      0.39462781E-001
     1786.74029      0.13637532E-001
     1790.49646      0.43211041E-002
     1794.25262      0.12552872E-002
     1798.00879      0.33432332E-003
     1801.76496      0.81631170E-004
     1805.52113      0.18272793E-004
     1809.27729      0.37498102E-005
     1813.03346      0.70545019E-006
     1816.78963      0.12166742E-006
     1820.54580      0.19236763E-007
     1824.30196      0.27882941E-008
     1828.05813      0.37050457E-009
     1831.81430      0.45133249E-010
     1835.57047      0.50401964E-011
     1839.32664      0.51599735E-012
     1843.08280      0.48454608E-013
     1846.83897      0.45442847E-014
     1850.59514      0.51518624E-014
     1854.35131      0.56495880E-013
     1858.10747      0.60614953E-012
     1861.86364      0.59644527E-011
     1865.61981      0.53803424E-010
     1869.37598      0.44493504E-009
     1873.13214      0.33731113E-008
     1876.88831      0.23442941E-007
     1880.64448      0.14936227E-006
     1884.40065      0.87240287E-006
     1888.15682      0.46713309E-005
     1891.91298      0.22930396E-004
     1895.66915      0.10318815E-003
     1899.42532      0.42569202E-003
     1903.18149      0.16099357E-002
     1906.93765      0.55817315E-002
     1910.69382      0.17740944E-001
     1914.44999      0.51693015E-001
     1918.20616      0.13808115     
     1921.96232      0.33813044     
     1925.71849      0.75906949     
     1929.47466       1.5621623     
     1933.23083       2.9472581     
     1936.98700       5.0975036     
     1940.74316       8.0824735     
     1944.49933       11.748391     
     1948.25550       15.655246     
     1952.01167       19.124441     
     1955.76783       21.417313     
     1959.52400       21.988145     
     1963.28017       20.694720     
     1967.03634       17.855742     
     1970.79250       14.123542     
     1974.54867       10.241338     
     1978.30484       6.8079626     
     1982.06101       4.1488238     
     1985.81718       2.3178226     
     1989.57334       1.1870876     
     1993.32951      0.55735603     
     1997.08568      0.23989987     
     2000.84185      0.94661789E-001
     2004.59801      0.34242602E-001
     2008.35418      0.11355498E-001
     2012.11035      0.34521765E-002
     2015.86652      0.96211539E-003
     2019.62268      0.24581518E-003
     2023.37885      0.57575486E-004
     2027.13502      0.12362716E-004
     2030.89119      0.24335348E-005
     2034.64736      0.43914565E-006
     2038.40352      0.72648555E-007
     2042.15969      0.11017746E-007
     2045.91586      0.15318135E-008
     2049.67203      0.19523892E-009
     2053.42819      0.22812574E-010
     2057.18436      0.24435967E-011
     2060.94053      0.23995630E-012
     2064.69670      0.21601413E-013
     2068.45287      0.17827052E-014
     2072.20903      0.13487277E-015
     2075.96520      0.93544094E-017
     2079.72137      0.59477931E-018
     2083.47754      0.34669111E-019
     2087.23370      0.18525798E-020
     2090.98987      0.90752485E-022
     2094.74604      0.40755619E-023
     2098.50221      0.16778913E-024
     2102.25837      0.63326800E-026
     2106.01454      0.21910819E-027
     2109.77071      0.69498762E-029
     2113.52688      0.20208910E-030
     2117.28305      0.53871130E-032
     2121.03921      0.13164872E-033
     2124.79538      0.29493383E-035
     2128.55155      0.60573113E-037
     2132.30772      0.11404666E-038
     2136.06388      0.19684873E-040
     2139.82005      0.31147991E-042
     2143.57622      0.45182977E-044
     2147.33239      0.60085130E-046
     2151.08855      0.73249816E-048
     2154.84472      0.81864091E-050
     2158.60089      0.83874071E-052
     2162.35706      0.78778802E-054
     2166.11323      0.67832588E-056
     2169.86939      0.53544489E-058
     2173.62556      0.38747041E-060
     2177.38173      0.25704531E-062
     2181.13790      0.15632491E-064
     2184.89406      0.87155351E-067
     2188.65023      0.44545856E-069
     2192.40640      0.20872185E-071
     2196.16257      0.89655289E-074
     2199.91873      0.35304598E-076
     2203.67490      0.12744829E-078
     2207.43107      0.42177818E-081
     2211.18724      0.12796217E-083
     2214.94341      0.35589872E-086
     2218.69957      0.90744152E-089
     2222.45574      0.21210858E-091
     2226.21191      0.45451184E-094
     2229.96808      0.89285211E-097
     2233.72424      0.16079081E-099
     2237.48041      0.26545463E-102
     2241.23658      0.40176005E-105
     2244.99275      0.55743029E-108
     2248.74891      0.70902533E-111
     2252.50508      0.82676162E-114
     2256.26125      0.88378421E-117
     2260.01742       0.0000000     
     2263.77359       0.0000000     
     2267.52975       0.0000000     
     2271.28592       0.0000000     
     2275.04209       0.0000000     
     2278.79826       0.0000000     
     2282.55442       0.0000000     
     2286.31059       0.0000000     
     2290.06676       0.0000000     
     2293.82293       0.0000000     
     2297.57909       0.0000000     
     2301.33526       0.0000000     
     2305.09143       0.0000000     
     2308.84760       0.0000000     
     2312.60377       0.0000000     
     2316.35993       0.0000000     
     2320.11610       0.0000000     
     2323.87227       0.0000000     
     2327.62844       0.0000000     
     2331.38460       0.0000000     
     2335.14077       0.0000000     
     2338.89694       0.0000000     
     2342.65311       0.0000000     
     2346.40927       0.0000000     
     2350.16544       0.0000000     
     2353.92161       0.0000000     
     2357.67778       0.0000000     
     2361.43395       0.0000000     
     2365.19011       0.0000000     
     2368.94628       0.0000000     
     2372.70245       0.0000000     
     2376.45862       0.0000000     
     2380.21478       0.0000000     
     2383.97095       0.0000000     
     2387.72712       0.0000000     
     2391.48329       0.0000000     
     2395.23945       0.0000000     
     2398.99562       0.0000000     
     2402.75179       0.0000000     
     2406.50796       0.0000000     
     2410.26413       0.0000000     
     2414.02029       0.0000000     
     2417.77646       0.0000000     
     2421.53263       0.0000000     
     2425.28880       0.0000000     
     2429.04496       0.0000000     
     2432.80113       0.0000000     
     2436.55730       0.0000000     
     2440.31347       0.0000000     
     2444.06964       0.0000000     
     2447.82580       0.0000000     
     2451.58197       0.0000000     
     2455.33814       0.0000000     
     2459.09431       0.0000000     
     2462.85047       0.0000000     
     2466.60664       0.0000000     
     2470.36281       0.0000000     
     2474.11898       0.0000000     
     2477.87514       0.0000000     
     2481.63131       0.0000000     
     2485.38748       0.0000000     
     2489.14365       0.0000000     
     2492.89982       0.0000000     
     2496.65598       0.0000000     
     2500.41215       0.0000000     
     2504.16832       0.0000000     
     2507.92449       0.0000000     
     2511.68065       0.0000000     
     2515.43682       0.0000000     
     2519.19299       0.0000000     
     2522.94916       0.0000000     
     2526.70532       0.0000000     
     2530.46149       0.0000000     
     2534.21766       0.0000000     
     2537.97383       0.0000000     
     2541.73000       0.0000000     
     2545.48616       0.0000000     
     2549.24233       0.0000000     
     2552.99850       0.0000000     
     2556.75467       0.0000000     
     2560.51083       0.0000000     
     2564.26700       0.0000000     
     2568.02317       0.0000000     
     2571.77934       0.0000000     
     2575.53550       0.0000000     
     2579.29167       0.0000000     
     2583.04784       0.0000000     
     2586.80401       0.0000000     
     2590.56018       0.0000000     
     2594.31634       0.0000000     
     2598.07251       0.0000000     
     2601.82868       0.0000000     
     2605.58485       0.0000000     
     2609.34101       0.0000000     
     2613.09718       0.0000000     
     2616.85335       0.0000000     
     2620.60952       0.0000000     
     2624.36568       0.0000000     
     2628.12185       0.0000000     
     2631.87802      0.91817417E-118
     2635.63419      0.87683069E-115
     2639.39036      0.76763326E-112
     2643.14652      0.61608297E-109
     2646.90269      0.45328567E-106
     2650.65886      0.30573992E-103
     2654.41503      0.18905130E-100
     2658.17119      0.10716540E-097
     2661.92736      0.55689952E-095
     2665.68353      0.26530564E-092
     2669.43970      0.11586800E-089
     2673.19586      0.46390375E-087
     2676.95203      0.17027059E-084
     2680.70820      0.57292632E-082
     2684.46437      0.17672796E-079
     2688.22054      0.49975729E-077
     2691.97670      0.12955685E-074
     2695.73287      0.30789951E-072
     2699.48904      0.67081842E-070
     2703.24521      0.13398258E-067
     2707.00137      0.24532345E-065
     2710.75754      0.41179129E-063
     2714.51371      0.63366924E-061
     2718.26988      0.89391343E-059
     2722.02604      0.11560475E-056
     2725.78221      0.13705764E-054
     2729.53838      0.14896293E-052
     2733.29455      0.14842277E-050
     2737.05072      0.13557207E-048
     2740.80688      0.11352390E-046
     2744.56305      0.87146859E-045
     2748.31922      0.61328670E-043
     2752.07539      0.39566053E-041
     2755.83155      0.23400723E-039
     2759.58772      0.12687709E-037
     2763.34389      0.63064433E-036
     2767.10006      0.28736453E-034
     2770.85622      0.12004089E-032
     2774.61239      0.45969800E-031
     2778.36856      0.16138508E-029
     2782.12473      0.51939952E-028
     2785.88090      0.15324526E-026
     2789.63706      0.41449563E-025
     2793.39323      0.10277801E-023
     2797.14940      0.23362960E-022
     2800.90557      0.48685862E-021
     2804.66173      0.93009057E-020
     2808.41790      0.16289021E-018
     2812.17407      0.26152434E-017
     2815.93024      0.38492543E-016
     2819.68641      0.51938388E-015
     2823.44257      0.64246238E-014
     2827.19874      0.72854152E-013
     2830.95491      0.75737033E-012
     2834.71108      0.72178796E-011
     2838.46724      0.63060637E-010
     2842.22341      0.50507334E-009
     2845.97958      0.37084968E-008
     2849.73575      0.24962538E-007
     2853.49191      0.15403767E-006
     2857.24808      0.87138990E-006
     2861.00425      0.45190325E-005
     2864.76042      0.21484526E-004
     2868.51659      0.93638290E-004
     2872.27275      0.37413517E-003
     2876.02892      0.13704114E-002
     2879.78509      0.46017261E-002
     2883.54126      0.14165697E-001
     2887.29742      0.39976290E-001
     2891.05359      0.10342235     
     2894.80976      0.24528653     
     2898.56593      0.53331077     
     2902.32209       1.0630027     
     2906.07826       1.9423871     
     2909.83443       3.2537528     
     2913.59060       4.9966705     
     2917.34677       7.0343544     
     2921.10293       9.0785233     
     2924.85910       10.741225     
     2928.61527       11.650399     
     2932.37144       11.584557     
     2936.12760       10.560462     
     2939.88377       8.8268482     
     2943.63994       6.7681636     
     2947.39611       4.7708128     
     2951.15227       3.1179649     
     2954.90844       1.9527798     
     2958.66461       1.3066822     
     2962.42078       1.1578120     
     2966.17695       1.4787326     
     2969.93311       2.2474722     
     2973.68928       3.4200003     
     2977.44545       4.8848820     
     2981.20162       6.4340658     
     2984.95778       7.7801896     
     2988.71395       8.6276951     
     2992.47012       8.7717028     
     2996.22629       8.1757846     
     2999.98245       6.9859351     
     3003.73862       5.4722705     
     3007.49479       3.9296880     
     3011.25096       2.5869974     
     3015.00713       1.5612817     
     3018.76329      0.86380148     
     3022.51946      0.43812091     
     3026.27563      0.20371424     
     3030.03180      0.86835274E-001
     3033.78796      0.33932693E-001
     3037.54413      0.12155921E-001
     3041.30030      0.39921307E-002
     3045.05647      0.12019019E-002
     3048.81263      0.33172687E-003
     3052.56880      0.83934337E-004
     3056.32497      0.19469108E-004
     3060.08114      0.41399948E-005
     3063.83731      0.80705089E-006
     3067.59347      0.14422794E-006
     3071.34964      0.23628996E-007
     3075.10581      0.35488571E-008
     3078.86198      0.48862887E-009
     3082.61814      0.61676128E-010
     3086.37431      0.71367823E-011
     3090.13048      0.75706849E-012
     3093.88665      0.73623298E-013
     3097.64281      0.65636095E-014
     3101.39898      0.53643687E-015
     3105.15515      0.40214595E-016
     3108.91132      0.31205517E-017
     3112.66749      0.54327950E-017
     3116.42365      0.70454781E-016
     3120.17982      0.86505681E-015
     3123.93599      0.97383972E-014
     3127.69216      0.10050276E-012
     3131.44832      0.95085839E-012
     3135.20449      0.82470965E-011
     3138.96066      0.65574303E-010
     3142.71683      0.47798433E-009
     3146.47299      0.31940449E-008
     3150.22916      0.19566616E-007
     3153.98533      0.10988485E-006
     3157.74150      0.56572750E-006
     3161.49767      0.26700791E-005
     3165.25383      0.11552829E-004
     3169.01000      0.45824729E-004
     3172.76617      0.16663217E-003
     3176.52234      0.55547584E-003
     3180.27850      0.16975355E-002
     3184.03467      0.47557599E-002
     3187.79084      0.12214294E-001
     3191.54701      0.28758363E-001
     3195.30318      0.62073658E-001
     3199.05934      0.12282814     
     3202.81551      0.22281058     
     3206.57168      0.37052805     
     3210.32785      0.56487682     
     3214.08401      0.78946664     
     3217.84018       1.0114891     
     3221.59635       1.1880534     
     3225.35252       1.2792579     
     3229.10868       1.2627798     
     3232.86485       1.1427323     
     3236.62102      0.94800094     
     3240.37719      0.72097532     
     3244.13336      0.50266587     
     3247.88952      0.32128154     
     3251.64569      0.18825197     
     3255.40186      0.10112083     
     3259.15803      0.49795388E-001
     3262.91419      0.22479414E-001
     3266.67036      0.93031111E-002
     3270.42653      0.35295457E-002
     3274.18270      0.12275997E-002
     3277.93886      0.39141920E-003
     3281.69503      0.11441286E-003
     3285.45120      0.30658784E-004
     3289.20737      0.75315156E-005
     3292.96354      0.16961225E-005
     3296.71970      0.35017038E-006
     3300.47587      0.66274884E-007
     3304.23204      0.11499155E-007
     3307.98821      0.18290696E-008
     3311.74437      0.26671160E-009
     3315.50054      0.35653401E-010
     3319.25671      0.43692550E-011
     3323.01288      0.49086401E-012
     3326.76904      0.50554796E-013
     3330.52521      0.47732139E-014
     3334.28138      0.41314910E-015
     3338.03755      0.32783106E-016
     3341.79372      0.23847384E-017
     3345.54988      0.15902990E-018
     3349.30605      0.97221915E-020
     3353.06222      0.54487507E-021
     3356.81839      0.27994781E-022
     3360.57455      0.13185742E-023
     3364.33072      0.56935019E-025
     3368.08689      0.22537291E-026
     3371.84306      0.81784564E-028
     3375.59922      0.27207481E-029
     3379.35539      0.82976040E-031
     3383.11156      0.23198897E-032
     3386.86773      0.60158238E-034
     3390.62390      0.30233546E-034
     3394.38006      0.10914997E-032
     3398.13623      0.37872944E-031
     3401.89240      0.12047414E-029
     3405.64857      0.35132253E-028
     3409.40473      0.93921611E-027
     3413.16090      0.23018257E-025
     3416.91707      0.51716211E-024
     3420.67324      0.10651931E-022
     3424.42940      0.20113023E-021
     3428.18557      0.34815588E-020
     3431.94174      0.55248118E-019
     3435.69791      0.80372711E-018
     3439.45408      0.10718823E-016
     3443.21024      0.13104878E-015
     3446.96641      0.14688120E-014
     3450.72258      0.15092001E-013
     3454.47875      0.14215915E-012
     3458.23491      0.12275810E-011
     3461.99108      0.97179105E-011
     3465.74725      0.70524983E-010
     3469.50342      0.46920265E-009
     3473.25958      0.28617079E-008
     3477.01575      0.16000646E-007
     3480.77192      0.82015718E-007
     3484.52809      0.38539319E-006
     3488.28426      0.16601922E-005
     3492.04042      0.65563187E-005
     3495.79659      0.23736087E-004
     3499.55276      0.78778111E-004
     3503.30893      0.23968970E-003
     3507.06509      0.66856025E-003
     3510.82126      0.17095393E-002
     3514.57743      0.40074215E-002
     3518.33360      0.86118869E-002
     3522.08976      0.16965981E-001
     3525.84593      0.30641288E-001
     3529.60210      0.50732051E-001
     3533.35827      0.77002567E-001
     3537.11444      0.10714585     
     3540.87060      0.13667619     
     3544.62677      0.15982980     
     3548.38294      0.17134444     
     3552.13911      0.16839518     
     3555.89527      0.15171785     
     3559.65144      0.12531153     
     3563.40761      0.94883958E-001
     3567.16378      0.65863061E-001
     3570.91995      0.41912002E-001
     3574.67611      0.24450192E-001
     3578.43228      0.13075957E-001
     3582.18845      0.64107982E-002
     3585.94462      0.28813637E-002
     3589.70078      0.11872206E-002
     3593.45695      0.44844806E-003
     3597.21312      0.15528884E-003
     3600.96929      0.49296456E-004
     3604.72545      0.14346254E-004
     3608.48162      0.38274430E-005
     3612.23779      0.93610875E-006
     3615.99396      0.20988976E-006
     3619.75013      0.43142327E-007
     3623.50629      0.81294891E-008
     3627.26246      0.14043337E-008
     3631.01863      0.22239486E-009
     3634.77480      0.32286915E-010
     3638.53096      0.42971026E-011
     3642.28713      0.52429083E-012
     3646.04330      0.58643000E-013
     3649.79947      0.60132252E-014
     3653.55563      0.56525723E-015
     3657.31180      0.48711573E-016
     3661.06797      0.38482702E-017
     3664.82414      0.27870601E-018
     3668.58031      0.18504414E-019
     3672.33647      0.11272214E-020
     3676.09264      0.84257261E-022
     3679.84881      0.45416650E-021
     3683.60498      0.87068055E-020
     3687.36114      0.15410614E-018
     3691.11731      0.25005519E-017
     3694.87348      0.37196255E-016
     3698.62965      0.50723583E-015
     3702.38581      0.63411496E-014
     3706.14198      0.72673060E-013
     3709.89815      0.76353029E-012
     3713.65432      0.73540480E-011
     3717.41049      0.64934279E-010
     3721.16665      0.52561646E-009
     3724.92282      0.39004190E-008
     3728.67899      0.26533891E-007
     3732.43516      0.16547713E-006
     3736.19132      0.94606811E-006
     3739.94749      0.49585442E-005
     3743.70366      0.23825024E-004
     3747.45983      0.10494455E-003
     3751.21599      0.42377349E-003
     3754.97216      0.15687548E-002
     3758.72833      0.53238243E-002
     3762.48450      0.16563028E-001
     3766.24067      0.47239266E-001
     3769.99683      0.12351336     
     3773.75300      0.29605486     
     3777.50917      0.65054598     
     3781.26534       1.3104838     
     3785.02150       2.4201035     
     3788.77767       4.0971969     
     3792.53384       6.3590987     
     3796.29001       9.0484389     
     3800.04617       11.804736     
     3803.80234       14.123253     
     3807.55851       15.504081     
     3811.31468       15.638793     
     3815.07085       14.547207     
     3818.82701       12.593067     
     3822.58318       10.368327     
     3826.33935       8.5001167     
     3830.09552       7.4609403     
     3833.85168       7.4439305     
     3837.60785       8.3274998     
     3841.36402       9.7264356     
     3845.12019       11.114071     
     3848.87635       11.988138     
     3852.63252       12.034112     
     3856.38869       11.228473     
     3860.14486       9.8407865     
     3863.90103       8.3375678     
     3867.65719       7.2361510     
     3871.41336       6.9721591     
     3875.16953       7.8223744     
     3878.92570       9.8863998     
     3882.68186       13.103954     
     3886.43803       17.282608     
     3890.19420       22.124318     
     3893.95037       27.251077     
     3897.70653       32.232129     
     3901.46270       36.612950     
     3905.21887       39.948908     
     3908.97504       41.853172     
     3912.73121       42.066944     
     3916.48737       40.541769     
     3920.24354       37.498067     
     3923.99971       33.414827     
     3927.75588       28.928496     
     3931.51204       24.664906     
     3935.26821       21.067619     
     3939.02438       18.293432     
     3942.78055       16.216617     
     3946.53672       14.534633     
     3950.29288       12.924492     
     3954.04905       11.180650     
     3957.80522       9.2795412     
     3961.56139       7.3548089     
     3965.31755       5.6100161     
     3969.07372       4.2195721     
     3972.82989       3.2631726     
     3976.58606       2.7125537     
     3980.34222       2.4610583     
     3984.09839       2.3717869     
     3987.85456       2.3215247     
     3991.61073       2.2278000     
     3995.36690       2.0567545     
     3999.12306       1.8158840     
     4002.87923       1.5382763     
     4006.63540       1.2650638     
     4010.39157       1.0312720     
     4014.14773      0.85769128     
     4017.90390      0.74878928     
     4021.66007      0.69503884     
     4025.41624      0.67769336     
     4029.17240      0.67446204     
     4032.92857      0.66497074     
     4036.68474      0.63505232     
     4040.44091      0.57904245     
     4044.19708      0.49967017     
     4047.95324      0.40580967     
     4051.70941      0.30899859     
     4055.46558      0.21992509     
     4059.22175      0.14593052     
     4062.97791      0.90063452E-001
     4066.73408      0.51588282E-001
     4070.49025      0.27372576E-001
     4074.24642      0.13430842E-001
     4078.00258      0.60852079E-002
     4081.75875      0.25426780E-002
     4085.51492      0.97881451E-003
     4089.27109      0.34684221E-003
     4093.02726      0.11305361E-003
     4096.78342      0.33877739E-004
     4100.53959      0.93288127E-005
     4104.29576      0.23597389E-005
     4108.05193      0.54815365E-006
     4111.80809      0.11690736E-006
     4115.56426      0.22887746E-007
     4119.32043      0.41126538E-008
     4123.07660      0.67818493E-009
     4126.83276      0.10262182E-009
     4130.58893      0.14248309E-010
     4134.34510      0.18150628E-011
