      373.14080       1.4718788     
      373.32080       1.4721609     
      373.50080       1.4724095     
      373.68080       1.4726198     
      373.86080       1.4727872     
      374.04080       1.4729073     
      374.22080       1.4729759     
      374.40080       1.4729889     
      374.58080       1.4729423     
      374.76080       1.4728326     
      374.94080       1.4726559     
      375.12080       1.4724090     
      375.30080       1.4720885     
      375.48080       1.4716913     
      375.66080       1.4712145     
      375.84080       1.4706552     
      376.02080       1.4700108     
      376.20080       1.4692786     
      376.38080       1.4684565     
      376.56080       1.4675420     
      376.74080       1.4665332     
      376.92080       1.4654281     
      377.10080       1.4642247     
      377.28080       1.4629216     
      377.46080       1.4615170     
      377.64080       1.4600095     
      377.82080       1.4583979     
      378.00080       1.4566809     
      378.18080       1.4548574     
      378.36080       1.4529266     
      378.54080       1.4508875     
      378.72080       1.4487395     
      378.90080       1.4464818     
      379.08080       1.4441140     
      379.26080       1.4416356     
      379.44080       1.4390463     
      379.62080       1.4363460     
      379.80080       1.4335343     
      379.98080       1.4306113     
      380.16080       1.4275770     
      380.34080       1.4244316     
      380.52080       1.4211752     
      380.70080       1.4178080     
      380.88080       1.4143305     
      381.06080       1.4107431     
      381.24080       1.4070462     
      381.42080       1.4032403     
      381.60080       1.3993262     
      381.78080       1.3953045     
      381.96080       1.3911758     
      382.14080       1.3869410     
      382.32080       1.3826010     
      382.50080       1.3781566     
      382.68080       1.3736086     
      382.86080       1.3689583     
      383.04080       1.3642064     
      383.22080       1.3593541     
      383.40080       1.3544026     
      383.58080       1.3493528     
      383.76080       1.3442061     
      383.94080       1.3389635     
      384.12080       1.3336263     
      384.30080       1.3281958     
      384.48080       1.3226732     
      384.66080       1.3170598     
      384.84080       1.3113570     
      385.02080       1.3055661     
      385.20080       1.2996885     
      385.38080       1.2937255     
      385.56080       1.2876786     
      385.74080       1.2815490     
      385.92080       1.2753384     
      386.10080       1.2690480     
      386.28080       1.2626794     
      386.46080       1.2562340     
      386.64080       1.2497133     
      386.82080       1.2431187     
      387.00080       1.2364517     
      387.18080       1.2297137     
      387.36080       1.2229064     
      387.54080       1.2160311     
      387.72080       1.2090894     
      387.90080       1.2020828     
      388.08080       1.1950127     
      388.26080       1.1878807     
      388.44080       1.1806883     
      388.62080       1.1734370     
      388.80080       1.1661283     
      388.98080       1.1587637     
      389.16080       1.1513447     
      389.34080       1.1438729     
      389.52080       1.1363497     
      389.70080       1.1287767     
      389.88080       1.1211554     
      390.06080       1.1134872     
      390.24080       1.1057738     
      390.42080       1.0980167     
      390.60080       1.0902173     
      390.78080       1.0823771     
      390.96080       1.0744978     
      391.14080       1.0665808     
      391.32080       1.0586276     
      391.50080       1.0506398     
      391.68080       1.0426189     
      391.86080       1.0345663     
      392.04080       1.0264838     
      392.22080       1.0183727     
      392.40080       1.0102347     
      392.58080       1.0020712     
      392.76080      0.99388385     
      392.94080      0.98567413     
      393.12080      0.97744361     
      393.30080      0.96919385     
      393.48080      0.96092640     
      393.66080      0.95264282     
      393.84080      0.94434469     
      394.02080      0.93603358     
      394.20080      0.92771106     
      394.38080      0.91937871     
      394.56080      0.91103812     
      394.74080      0.90269089     
      394.92080      0.89433861     
      395.10080      0.88598288     
      395.28080      0.87762531     
      395.46080      0.86926752     
      395.64080      0.86091113     
      395.82080      0.85255776     
      396.00080      0.84420904     
      396.18080      0.83586661     
      396.36080      0.82753210     
      396.54080      0.81920718     
      396.72080      0.81089347     
      396.90080      0.80259265     
      397.08080      0.79430636     
      397.26080      0.78603628     
      397.44080      0.77778407     
      397.62080      0.76955140     
      397.80080      0.76133994     
      397.98080      0.75315137     
      398.16080      0.74498737     
      398.34080      0.73684962     
      398.52080      0.72873979     
      398.70080      0.72065958     
      398.88080      0.71261065     
      399.06080      0.70459470     
      399.24080      0.69661341     
      399.42080      0.68866844     
      399.60080      0.68076148     
      399.78080      0.67289419     
      399.96080      0.66506825     
      400.14080      0.65728532     
      400.32080      0.64954706     
      400.50080      0.64185511     
      400.68080      0.63421113     
      400.86080      0.62661674     
      401.04080      0.61907358     
      401.22080      0.61158327     
      401.40080      0.60414741     
      401.58080      0.59676759     
      401.76080      0.58944540     
      401.94080      0.58218241     
      402.12080      0.57498018     
      402.30080      0.56784023     
      402.48080      0.56076411     
      402.66080      0.55375331     
      402.84080      0.54680932     
      403.02080      0.53993361     
      403.20080      0.53312763     
      403.38080      0.52639280     
      403.56080      0.51973054     
      403.74080      0.51314221     
      403.92080      0.50662918     
      404.10080      0.50019279     
      404.28080      0.49383433     
      404.46080      0.48755509     
      404.64080      0.48135632     
      404.82080      0.47523923     
      405.00080      0.46920503     
      405.18080      0.46325486     
      405.36080      0.45738987     
      405.54080      0.45161115     
      405.72080      0.44591976     
      405.90080      0.44031673     
      406.08080      0.43480306     
      406.26080      0.42937969     
      406.44080      0.42404757     
      406.62080      0.41880756     
      406.80080      0.41366051     
      406.98080      0.40860723     
      407.16080      0.40364849     
      407.34080      0.39878501     
      407.52080      0.39401749     
      407.70080      0.38934655     
      407.88080      0.38477282     
      408.06080      0.38029685     
      408.24080      0.37591915     
      408.42080      0.37164020     
      408.60080      0.36746044     
      408.78080      0.36338024     
      408.96080      0.35939995     
      409.14080      0.35551987     
      409.32080      0.35174025     
      409.50080      0.34806130     
      409.68080      0.34448318     
      409.86080      0.34100600     
      410.04080      0.33762984     
      410.22080      0.33435473     
      410.40080      0.33118064     
      410.58080      0.32810750     
      410.76080      0.32513521     
      410.94080      0.32226361     
      411.12080      0.31949250     
      411.30080      0.31682164     
      411.48080      0.31425072     
      411.66080      0.31177942     
      411.84080      0.30940736     
      412.02080      0.30713411     
      412.20080      0.30495921     
      412.38080      0.30288215     
      412.56080      0.30090238     
      412.74080      0.29901931     
      412.92080      0.29723230     
      413.10080      0.29554068     
      413.28080      0.29394374     
      413.46080      0.29244072     
      413.64080      0.29103085     
      413.82080      0.28971328     
      414.00080      0.28848717     
      414.18080      0.28735160     
      414.36080      0.28630565     
      414.54080      0.28534836     
      414.72080      0.28447872     
      414.90080      0.28369570     
      415.08080      0.28299826     
      415.26080      0.28238529     
      415.44080      0.28185569     
      415.62080      0.28140832     
      415.80080      0.28104201     
      415.98080      0.28075556     
      416.16080      0.28054777     
      416.34080      0.28041741     
      416.52080      0.28036322     
      416.70080      0.28038393     
      416.88080      0.28047826     
      417.06080      0.28064490     
      417.24080      0.28088255     
      417.42080      0.28118987     
      417.60080      0.28156553     
      417.78080      0.28200819     
      417.96080      0.28251649     
      418.14080      0.28308908     
      418.32080      0.28372460     
      418.50080      0.28442169     
      418.68080      0.28517899     
      418.86080      0.28599515     
      419.04080      0.28686880     
      419.22080      0.28779861     
      419.40080      0.28878323     
      419.58080      0.28982133     
      419.76080      0.29091159     
      419.94080      0.29205272     
      420.12080      0.29324342     
      420.30080      0.29448241     
      420.48080      0.29576845     
      420.66080      0.29710030     
      420.84080      0.29847676     
      421.02080      0.29989664     
      421.20080      0.30135878     
      421.38080      0.30286207     
      421.56080      0.30440539     
      421.74080      0.30598769     
      421.92080      0.30760794     
      422.10080      0.30926515     
      422.28080      0.31095836     
      422.46080      0.31268666     
      422.64080      0.31444917     
      422.82080      0.31624509     
      423.00080      0.31807361     
      423.18080      0.31993401     
      423.36080      0.32182561     
      423.54080      0.32374777     
      423.72080      0.32569992     
      423.90080      0.32768153     
      424.08080      0.32969214     
      424.26080      0.33173133     
      424.44080      0.33379875     
      424.62080      0.33589413     
      424.80080      0.33801723     
      424.98080      0.34016788     
      425.16080      0.34234601     
      425.34080      0.34455157     
      425.52080      0.34678461     
      425.70080      0.34904523     
      425.88080      0.35133362     
      426.06080      0.35365003     
      426.24080      0.35599478     
      426.42080      0.35836828     
      426.60080      0.36077099     
      426.78080      0.36320347     
      426.96080      0.36566634     
      427.14080      0.36816031     
      427.32080      0.37068615     
      427.50080      0.37324474     
      427.68080      0.37583701     
      427.86080      0.37846397     
      428.04080      0.38112674     
      428.22080      0.38382648     
      428.40080      0.38656447     
      428.58080      0.38934203     
      428.76080      0.39216059     
      428.94080      0.39502166     
      429.12080      0.39792681     
      429.30080      0.40087771     
      429.48080      0.40387609     
      429.66080      0.40692378     
      429.84080      0.41002268     
      430.02080      0.41317476     
      430.20080      0.41638207     
      430.38080      0.41964675     
      430.56080      0.42297100     
      430.74080      0.42635710     
      430.92080      0.42980740     
      431.10080      0.43332432     
      431.28080      0.43691035     
      431.46080      0.44056806     
      431.64080      0.44430007     
      431.82080      0.44810908     
      432.00080      0.45199784     
      432.18080      0.45596917     
      432.36080      0.46002595     
      432.54080      0.46417111     
      432.72080      0.46840763     
      432.90080      0.47273856     
      433.08080      0.47716698     
      433.26080      0.48169604     
      433.44080      0.48632891     
      433.62080      0.49106881     
      433.80080      0.49591901     
      433.98080      0.50088280     
      434.16080      0.50596351     
      434.34080      0.51116449     
      434.52080      0.51648912     
      434.70080      0.52194081     
      434.88080      0.52752299     
      435.06080      0.53323908     
      435.24080      0.53909253     
      435.42080      0.54508680     
      435.60080      0.55122535     
      435.78080      0.55751164     
      435.96080      0.56394910     
      436.14080      0.57054119     
      436.32080      0.57729134     
      436.50080      0.58420295     
      436.68080      0.59127941     
      436.86080      0.59852409     
      437.04080      0.60594032     
      437.22080      0.61353138     
      437.40080      0.62130053     
      437.58080      0.62925099     
      437.76080      0.63738590     
      437.94080      0.64570838     
      438.12080      0.65422146     
      438.30080      0.66292813     
      438.48080      0.67183129     
      438.66080      0.68093378     
      438.84080      0.69023835     
      439.02080      0.69974768     
      439.20080      0.70946435     
      439.38080      0.71939084     
      439.56080      0.72952955     
      439.74080      0.73988276     
      439.92080      0.75045266     
      440.10080      0.76124129     
      440.28080      0.77225060     
      440.46080      0.78348242     
      440.64080      0.79493844     
      440.82080      0.80662022     
      441.00080      0.81852918     
      441.18080      0.83066659     
      441.36080      0.84303360     
      441.54080      0.85563118     
      441.72080      0.86846016     
      441.90080      0.88152120     
      442.08080      0.89481482     
      442.26080      0.90834133     
      442.44080      0.92210091     
      442.62080      0.93609354     
      442.80080      0.95031902     
      442.98080      0.96477698     
      443.16080      0.97946685     
      443.34080      0.99438787     
      443.52080       1.0095391     
      443.70080       1.0249194     
      443.88080       1.0405274     
      444.06080       1.0563616     
      444.24080       1.0724202     
      444.42080       1.0887012     
      444.60080       1.1052025     
      444.78080       1.1219218     
      444.96080       1.1388563     
      445.14080       1.1560033     
      445.32080       1.1733598     
      445.50080       1.1909225     
      445.68080       1.2086880     
      445.86080       1.2266525     
      446.04080       1.2448122     
      446.22080       1.2631630     
      446.40080       1.2817004     
      446.58080       1.3004199     
      446.76080       1.3193168     
      446.94080       1.3383860     
      447.12080       1.3576223     
      447.30080       1.3770203     
      447.48080       1.3965742     
      447.66080       1.4162782     
      447.84080       1.4361263     
      448.02080       1.4561120     
      448.20080       1.4762289     
      448.38080       1.4964703     
      448.56080       1.5168292     
      448.74080       1.5372985     
      448.92080       1.5578709     
      449.10080       1.5785389     
      449.28080       1.5992946     
      449.46080       1.6201303     
      449.64080       1.6410379     
      449.82080       1.6620091     
      450.00080       1.6830354     
      450.18080       1.7041082     
      450.36080       1.7252189     
      450.54080       1.7463584     
      450.72080       1.7675177     
      450.90080       1.7886875     
      451.08080       1.8098585     
      451.26080       1.8310213     
      451.44080       1.8521660     
      451.62080       1.8732831     
      451.80080       1.8943627     
      451.98080       1.9153947     
      452.16080       1.9363692     
      452.34080       1.9572759     
      452.52080       1.9781046     
      452.70080       1.9988450     
      452.88080       2.0194867     
      453.06080       2.0400193     
      453.24080       2.0604322     
      453.42080       2.0807149     
      453.60080       2.1008569     
      453.78080       2.1208474     
      453.96080       2.1406760     
      454.14080       2.1603318     
      454.32080       2.1798045     
      454.50080       2.1990832     
      454.68080       2.2181573     
      454.86080       2.2370164     
      455.04080       2.2556499     
      455.22080       2.2740472     
      455.40080       2.2921979     
      455.58080       2.3100916     
      455.76080       2.3277181     
      455.94080       2.3450670     
      456.12080       2.3621283     
      456.30080       2.3788920     
      456.48080       2.3953480     
      456.66080       2.4114867     
      456.84080       2.4272982     
      457.02080       2.4427732     
      457.20080       2.4579021     
      457.38080       2.4726758     
      457.56080       2.4870851     
      457.74080       2.5011212     
      457.92080       2.5147753     
      458.10080       2.5280389     
      458.28080       2.5409037     
      458.46080       2.5533614     
      458.64080       2.5654043     
      458.82080       2.5770246     
      459.00080       2.5882147     
      459.18080       2.5989675     
      459.36080       2.6092760     
      459.54080       2.6191334     
      459.72080       2.6285331     
      459.90080       2.6374691     
      460.08080       2.6459352     
      460.26080       2.6539257     
      460.44080       2.6614354     
      460.62080       2.6684589     
      460.80080       2.6749915     
      460.98080       2.6810286     
      461.16080       2.6865659     
      461.34080       2.6915995     
      461.52080       2.6961258     
      461.70080       2.7001413     
      461.88080       2.7036430     
      462.06080       2.7066282     
      462.24080       2.7090946     
      462.42080       2.7110400     
      462.60080       2.7124626     
      462.78080       2.7133611     
      462.96080       2.7137342     
      463.14080       2.7135813     
      463.32080       2.7129018     
      463.50080       2.7116957     
      463.68080       2.7099631     
      463.86080       2.7077044     
      464.04080       2.7049207     
      464.22080       2.7016129     
      464.40080       2.6977827     
      464.58080       2.6934318     
      464.76080       2.6885623     
      464.94080       2.6831767     
      465.12080       2.6772778     
      465.30080       2.6708685     
      465.48080       2.6639524     
      465.66080       2.6565330     
      465.84080       2.6486144     
      466.02080       2.6402008     
      466.20080       2.6312967     
      466.38080       2.6219072     
      466.56080       2.6120372     
      466.74080       2.6016923     
      466.92080       2.5908780     
      467.10080       2.5796004     
      467.28080       2.5678656     
      467.46080       2.5556802     
      467.64080       2.5430508     
      467.82080       2.5299845     
      468.00080       2.5164883     
      468.18080       2.5025697     
      468.36080       2.4882363     
      468.54080       2.4734961     
      468.72080       2.4583569     
      468.90080       2.4428272     
      469.08080       2.4269152     
      469.26080       2.4106297     
      469.44080       2.3939794     
      469.62080       2.3769733     
      469.80080       2.3596205     
      469.98080       2.3419301     
      470.16080       2.3239118     
      470.34080       2.3055748     
      470.52080       2.2869290     
      470.70080       2.2679840     
      470.88080       2.2487498     
      471.06080       2.2292362     
      471.24080       2.2094533     
      471.42080       2.1894112     
      471.60080       2.1691202     
      471.78080       2.1485905     
      471.96080       2.1278323     
      472.14080       2.1068560     
      472.32080       2.0856721     
      472.50080       2.0642908     
      472.68080       2.0427225     
      472.86080       2.0209779     
      473.04080       1.9990671     
      473.22080       1.9770007     
      473.40080       1.9547890     
      473.58080       1.9324424     
      473.76080       1.9099713     
      473.94080       1.8873859     
      474.12080       1.8646965     
      474.30080       1.8419132     
      474.48080       1.8190462     
      474.66080       1.7961055     
      474.84080       1.7731011     
      475.02080       1.7500429     
      475.20080       1.7269406     
      475.38080       1.7038040     
      475.56080       1.6806426     
      475.74080       1.6574659     
      475.92080       1.6342833     
      476.10080       1.6111040     
      476.28080       1.5879370     
      476.46080       1.5647914     
      476.64080       1.5416759     
      476.82080       1.5185993     
      477.00080       1.4955700     
      477.18080       1.4725965     
      477.36080       1.4496870     
      477.54080       1.4268494     
      477.72080       1.4040917     
      477.90080       1.3814216     
      478.08080       1.3588466     
      478.26080       1.3363741     
      478.44080       1.3140113     
      478.62080       1.2917651     
      478.80080       1.2696423     
      478.98080       1.2476497     
      479.16080       1.2257936     
      479.34080       1.2040802     
      479.52080       1.1825156     
      479.70080       1.1611056     
      479.88080       1.1398559     
      480.06080       1.1187720     
      480.24080       1.0978591     
      480.42080       1.0771223     
      480.60080       1.0565663     
      480.78080       1.0361960     
      480.96080       1.0160157     
      481.14080      0.99602978     
      481.32080      0.97624221     
      481.50080      0.95665689     
      481.68080      0.93727749     
      481.86080      0.91810749     
      482.04080      0.89915018     
      482.22080      0.88040864     
      482.40080      0.86188577     
      482.58080      0.84358428     
      482.76080      0.82550669     
      482.94080      0.80765534     
      483.12080      0.79003237     
      483.30080      0.77263975     
      483.48080      0.75547928     
      483.66080      0.73855256     
      483.84080      0.72186104     
      484.02080      0.70540598     
      484.20080      0.68918848     
      484.38080      0.67320948     
      484.56080      0.65746974     
      484.74080      0.64196988     
      484.92080      0.62671036     
      485.10080      0.61169147     
      485.28080      0.59691337     
      485.46080      0.58237607     
      485.64080      0.56807943     
      485.82080      0.55402318     
      486.00080      0.54020692     
      486.18080      0.52663009     
      486.36080      0.51329204     
      486.54080      0.50019196     
      486.72080      0.48732895     
      486.90080      0.47470198     
      487.08080      0.46230991     
      487.26080      0.45015147     
      487.44080      0.43822533     
      487.62080      0.42653001     
      487.80080      0.41506397     
      487.98080      0.40382555     
      488.16080      0.39281302     
      488.34080      0.38202455     
      488.52080      0.37145824     
      488.70080      0.36111209     
      488.88080      0.35098405     
      489.06080      0.34107199     
      489.24080      0.33137370     
      489.42080      0.32188693     
      489.60080      0.31260935     
      489.78080      0.30353857     
      489.96080      0.29467218     
      490.14080      0.28600768     
      490.32080      0.27754255     
      490.50080      0.26927421     
      490.68080      0.26120005     
      490.86080      0.25331743     
      491.04080      0.24562366     
      491.22080      0.23811603     
      491.40080      0.23079181     
      491.58080      0.22364822     
      491.76080      0.21668249     
      491.94080      0.20989182     
      492.12080      0.20327338     
      492.30080      0.19682434     
      492.48080      0.19054187     
      492.66080      0.18442311     
      492.84080      0.17846521     
      493.02080      0.17266532     
      493.20080      0.16702057     
      493.38080      0.16152812     
      493.56080      0.15618510     
      493.74080      0.15098868     
      493.92080      0.14593601     
      494.10080      0.14102427     
      494.28080      0.13625065     
      494.46080      0.13161233     
      494.64080      0.12710654     
      494.82080      0.12273051     
      495.00080      0.11848148     
      495.18080      0.11435672     
      495.36080      0.11035353     
      495.54080      0.10646923     
      495.72080      0.10270114     
      495.90080      0.99046637E-001
      496.08080      0.95503109E-001
      496.26080      0.92067975E-001
      496.44080      0.88738683E-001
      496.62080      0.85512711E-001
      496.80080      0.82387567E-001
      496.98080      0.79360790E-001
      497.16080      0.76429954E-001
      497.34080      0.73592662E-001
      497.52080      0.70846555E-001
      497.70080      0.68189306E-001
      497.88080      0.65618622E-001
      498.06080      0.63132247E-001
      498.24080      0.60727960E-001
      498.42080      0.58403577E-001
      498.60080      0.56156949E-001
      498.78080      0.53985965E-001
      498.96080      0.51888550E-001
      499.14080      0.49862668E-001
      499.32080      0.47906317E-001
      499.50080      0.46017537E-001
      499.68080      0.44194402E-001
      499.86080      0.42435024E-001
      500.04080      0.40737554E-001
      500.22080      0.39100180E-001
      500.40080      0.37521126E-001
      500.58080      0.35998655E-001
      500.76080      0.34531066E-001
      500.94080      0.33116697E-001
      501.12080      0.31753919E-001
      501.30080      0.30441144E-001
      501.48080      0.29176816E-001
      501.66080      0.27959419E-001
      501.84080      0.26787469E-001
      502.02080      0.25659520E-001
      502.20080      0.24574160E-001
      502.38080      0.23530011E-001
      502.56080      0.22525731E-001
      502.74080      0.21560010E-001
      502.92080      0.20631573E-001
      503.10080      0.19739175E-001
      503.28080      0.18881608E-001
      503.46080      0.18057693E-001
      503.64080      0.17266283E-001
      503.82080      0.16506262E-001
      504.00080      0.15776546E-001
      504.18080      0.15076080E-001
      504.36080      0.14403838E-001
      504.54080      0.13758825E-001
      504.72080      0.13140072E-001
      504.90080      0.12546641E-001
      505.08080      0.11977619E-001
      505.26080      0.11432121E-001
      505.44080      0.10909288E-001
      505.62080      0.10408289E-001
      505.80080      0.99283159E-002
      505.98080      0.94685859E-002
      506.16080      0.90283412E-002
      506.34080      0.86068475E-002
      506.52080      0.82033937E-002
      506.70080      0.78172915E-002
      506.88080      0.74478747E-002
      507.06080      0.70944988E-002
      507.24080      0.67565405E-002
      507.42080      0.64333970E-002
      507.60080      0.61244856E-002
      507.78080      0.58292434E-002
      507.96080      0.55471265E-002
      508.14080      0.52776095E-002
      508.32080      0.50201852E-002
      508.50080      0.47743640E-002
      508.68080      0.45396735E-002
      508.86080      0.43156579E-002
      509.04080      0.41018777E-002
      509.22080      0.38979091E-002
      509.40080      0.37033437E-002
      509.58080      0.35177877E-002
      509.76080      0.33408620E-002
      509.94080      0.31722014E-002
      510.12080      0.30114543E-002
      510.30080      0.28582822E-002
      510.48080      0.27123594E-002
      510.66080      0.25733725E-002
      510.84080      0.24410203E-002
      511.02080      0.23150130E-002
      511.20080      0.21950720E-002
      511.38080      0.20809298E-002
      511.56080      0.19723290E-002
      511.74080      0.18690229E-002
      511.92080      0.17707742E-002
      512.10080      0.16773552E-002
      512.28080      0.15885475E-002
      512.46080      0.15041414E-002
      512.64080      0.14239359E-002
      512.82080      0.13477381E-002
      513.00080      0.12753632E-002
      513.18080      0.12066340E-002
      513.36080      0.11413808E-002
      513.54080      0.10794408E-002
      513.72080      0.10206584E-002
      513.90080      0.96488448E-003
      514.08080      0.91197622E-003
      514.26080      0.86179708E-003
      514.44080      0.81421635E-003
      514.62080      0.76910906E-003
      514.80080      0.72635568E-003
      514.98080      0.68584196E-003
      515.16080      0.64745870E-003
      515.34080      0.61110156E-003
      515.52080      0.57667088E-003
      515.70080      0.54407146E-003
      515.88080      0.51321244E-003
      516.06080      0.48400708E-003
      516.24080      0.45637259E-003
      516.42080      0.43023000E-003
      516.60080      0.40550400E-003
      516.78080      0.38212274E-003
      516.96080      0.36001777E-003
      517.14080      0.33912382E-003
      517.32080      0.31937870E-003
      517.50080      0.30072319E-003
      517.68080      0.28310085E-003
      517.86080      0.26645799E-003
      518.04080      0.25074346E-003
      518.22080      0.23590861E-003
      518.40080      0.22190714E-003
      518.58080      0.20869501E-003
      518.76080      0.19623034E-003
      518.94080      0.18447331E-003
      519.12080      0.17338608E-003
      519.30080      0.16293269E-003
      519.48080      0.15307897E-003
      519.66080      0.14379246E-003
      519.84080      0.13504236E-003
      520.02080      0.12679941E-003
      520.20080      0.11903584E-003
      520.38080      0.11172531E-003
      520.56080      0.10484282E-003
      520.74080      0.98364665E-004
      520.92080      0.92268369E-004
      521.10080      0.86532624E-004
      521.28080      0.81137236E-004
      521.46080      0.76063069E-004
      521.64080      0.71291998E-004
      521.82080      0.66806855E-004
      522.00080      0.62591387E-004
      522.18080      0.58630207E-004
      522.36080      0.54908753E-004
      522.54080      0.51413247E-004
      522.72080      0.48130658E-004
      522.90080      0.45048658E-004
      523.08080      0.42155595E-004
      523.26080      0.39440453E-004
      523.44080      0.36892822E-004
      523.62080      0.34502864E-004
      523.80080      0.32261290E-004
      523.98080      0.30159325E-004
      524.16080      0.28188684E-004
      524.34080      0.26341548E-004
      524.52080      0.24610537E-004
      524.70080      0.22988688E-004
      524.88080      0.21469433E-004
      525.06080      0.20046580E-004
      525.24080      0.18714287E-004
      525.42080      0.17467052E-004
      525.60080      0.16299685E-004
      525.78080      0.15207301E-004
      525.96080      0.14185295E-004
      526.14080      0.13229331E-004
      526.32080      0.12335328E-004
      526.50080      0.11499444E-004
      526.68080      0.10718062E-004
      526.86080      0.99877812E-005
      527.04080      0.93054003E-005
      527.22080      0.86679102E-005
      527.40080      0.80724814E-005
      527.58080      0.75164540E-005
      527.76080      0.69973284E-005
      527.94080      0.65127561E-005
      528.12080      0.60605310E-005
      528.30080      0.56385813E-005
      528.48080      0.52449616E-005
      528.66080      0.48778460E-005
      528.84080      0.45355208E-005
      529.02080      0.42163780E-005
      529.20080      0.39189094E-005
      529.38080      0.36417003E-005
      529.56080      0.33834245E-005
      529.74080      0.31428386E-005
      529.92080      0.29187774E-005
      530.10080      0.27101491E-005
      530.28080      0.25159307E-005
      530.46080      0.23351645E-005
      530.64080      0.21669535E-005
      530.82080      0.20104580E-005
      531.00080      0.18648922E-005
      531.18080      0.17295206E-005
      531.36080      0.16036554E-005
      531.54080      0.14866533E-005
      531.72080      0.13779124E-005
      531.90080      0.12768705E-005
      532.08080      0.11830017E-005
      532.26080      0.10958150E-005
      532.44080      0.10148512E-005
      532.62080      0.93968179E-006
      532.80080      0.86990647E-006
      532.98080      0.80515151E-006
      533.16080      0.74506810E-006
      533.34080      0.68933071E-006
      533.52080      0.63763565E-006
      533.70080      0.58969963E-006
      533.88080      0.54525848E-006
      534.06080      0.50406588E-006
      534.24080      0.46589224E-006
      534.42080      0.43052359E-006
      534.60080      0.39776058E-006
      534.78080      0.36741749E-006
      534.96080      0.33932137E-006
      535.14080      0.31331119E-006
      535.32080      0.28923704E-006
      535.50080      0.26695939E-006
      535.68080      0.24634843E-006
      535.86080      0.22728340E-006
      536.04080      0.20965196E-006
      536.22080      0.19334967E-006
      536.40080      0.17827943E-006
      536.58080      0.16435101E-006
      536.76080      0.15148052E-006
      536.94080      0.13959007E-006
      537.12080      0.12860728E-006
      537.30080      0.11846495E-006
      537.48080      0.10910069E-006
      537.66080      0.10045660E-006
      537.84080      0.92478910E-007
      538.02080      0.85117772E-007
      538.20080      0.78326929E-007
      538.38080      0.72063483E-007
      538.56080      0.66287663E-007
      538.74080      0.60962598E-007
      538.92080      0.56054119E-007
      539.10080      0.51530564E-007
      539.28080      0.47362603E-007
      539.46080      0.43523072E-007
      539.64080      0.39986815E-007
      539.82080      0.36730547E-007
      540.00080      0.33732714E-007
      540.18080      0.30973371E-007
      540.36080      0.28434065E-007
      540.54080      0.26097731E-007
      540.72080      0.23948584E-007
      540.90080      0.21972033E-007
      541.08080      0.20154589E-007
      541.26080      0.18483787E-007
      541.44080      0.16948110E-007
      541.62080      0.15536918E-007
      541.80080      0.14240387E-007
      541.98080      0.13049444E-007
      542.16080      0.11955715E-007
      542.34080      0.10951469E-007
      542.52080      0.10029574E-007
      542.70080      0.91834515E-008
      542.88080      0.84070315E-008
      543.06080      0.76947181E-008
      543.24080      0.70413521E-008
      543.42080      0.64421778E-008
      543.60080      0.58928130E-008
      543.78080      0.53892200E-008
      543.96080      0.49276797E-008
      544.14080      0.45047670E-008
      544.32080      0.41173283E-008
      544.50080      0.37624606E-008
      544.68080      0.34374923E-008
      544.86080      0.31399650E-008
      545.04080      0.28676173E-008
      545.22080      0.26183691E-008
      545.40080      0.23903079E-008
      545.58080      0.21816754E-008
      545.76080      0.19908555E-008
      545.94080      0.18163629E-008
      546.12080      0.16568333E-008
      546.30080      0.15110134E-008
      546.48080      0.13777522E-008
      546.66080      0.12559930E-008
      546.84080      0.11447658E-008
      547.02080      0.10431803E-008
      547.20080      0.95041959E-009
      547.38080      0.86573445E-009
      547.56080      0.78843760E-009
      547.74080      0.71789884E-009
      547.92080      0.65354047E-009
      548.10080      0.59483295E-009
      548.28080      0.54129107E-009
      548.46080      0.49247025E-009
      548.64080      0.44796331E-009
      548.82080      0.40739734E-009
      549.00080      0.37043093E-009
      549.18080      0.33675155E-009
      549.36080      0.30607317E-009
      549.54080      0.27813409E-009
      549.72080      0.25269490E-009
      549.90080      0.22953666E-009
      550.08080      0.20845913E-009
      550.26080      0.18927929E-009
      550.44080      0.17182984E-009
      550.62080      0.15595789E-009
      550.80080      0.14152379E-009
      550.98080      0.12839994E-009
      551.16080      0.11646985E-009
      551.34080      0.10562714E-009
      551.52080      0.95774705E-010
      551.70080      0.86823927E-010
      551.88080      0.78693947E-010
      552.06080      0.71311002E-010
      552.24080      0.64607814E-010
      552.42080      0.58523038E-010
      552.60080      0.53000746E-010
      552.78080      0.47989962E-010
      552.96080      0.43444233E-010
      553.14080      0.39321236E-010
