      394.67660      0.99113496     
      394.85660      0.97826248     
      395.03660      0.96550920     
      395.21660      0.95287978     
      395.39660      0.94037884     
      395.57660      0.92801095     
      395.75660      0.91578065     
      395.93660      0.90369243     
      396.11660      0.89175076     
      396.29660      0.87996003     
      396.47660      0.86832461     
      396.65660      0.85684882     
      396.83660      0.84553691     
      397.01660      0.83439310     
      397.19660      0.82342154     
      397.37660      0.81262634     
      397.55660      0.80201154     
      397.73660      0.79158113     
      397.91660      0.78133904     
      398.09660      0.77128912     
      398.27660      0.76143520     
      398.45660      0.75178100     
      398.63660      0.74233019     
      398.81660      0.73308640     
      398.99660      0.72405315     
      399.17660      0.71523392     
      399.35660      0.70663211     
      399.53660      0.69825105     
      399.71660      0.69009399     
      399.89660      0.68216411     
      400.07660      0.67446453     
      400.25660      0.66699827     
      400.43660      0.65976829     
      400.61660      0.65277747     
      400.79660      0.64602859     
      400.97660      0.63952439     
      401.15660      0.63326750     
      401.33660      0.62726046     
      401.51660      0.62150576     
      401.69660      0.61600577     
      401.87660      0.61076281     
      402.05660      0.60577908     
      402.23660      0.60105672     
      402.41660      0.59659778     
      402.59660      0.59240420     
      402.77660      0.58847784     
      402.95660      0.58482050     
      403.13660      0.58143384     
      403.31660      0.57831946     
      403.49660      0.57547886     
      403.67660      0.57291345     
      403.85660      0.57062453     
      404.03660      0.56861333     
      404.21660      0.56688096     
      404.39660      0.56542844     
      404.57660      0.56425670     
      404.75660      0.56336657     
      404.93660      0.56275877     
      405.11660      0.56243393     
      405.29660      0.56239257     
      405.47660      0.56263511     
      405.65660      0.56316188     
      405.83660      0.56397309     
      406.01660      0.56506886     
      406.19660      0.56644918     
      406.37660      0.56811395     
      406.55660      0.57006298     
      406.73660      0.57229594     
      406.91660      0.57481240     
      407.09660      0.57761184     
      407.27660      0.58069360     
      407.45660      0.58405693     
      407.63660      0.58770096     
      407.81660      0.59162471     
      407.99660      0.59582709     
      408.17660      0.60030687     
      408.35660      0.60506275     
      408.53660      0.61009327     
      408.71660      0.61539687     
      408.89660      0.62097189     
      409.07660      0.62681653     
      409.25660      0.63292888     
      409.43660      0.63930690     
      409.61660      0.64594845     
      409.79660      0.65285126     
      409.97660      0.66001293     
      410.15660      0.66743096     
      410.33660      0.67510270     
      410.51660      0.68302541     
      410.69660      0.69119620     
      410.87660      0.69961209     
      411.05660      0.70826993     
      411.23660      0.71716650     
      411.41660      0.72629842     
      411.59660      0.73566221     
      411.77660      0.74525424     
      411.95660      0.75507080     
      412.13660      0.76510802     
      412.31660      0.77536192     
      412.49660      0.78582841     
      412.67660      0.79650326     
      412.85660      0.80738213     
      413.03660      0.81846057     
      413.21660      0.82973400     
      413.39660      0.84119771     
      413.57660      0.85284690     
      413.75660      0.86467664     
      413.93660      0.87668187     
      414.11660      0.88885745     
      414.29660      0.90119810     
      414.47660      0.91369843     
      414.65660      0.92635296     
      414.83660      0.93915609     
      415.01660      0.95210211     
      415.19660      0.96518522     
      415.37660      0.97839950     
      415.55660      0.99173894     
      415.73660       1.0051974     
      415.91660       1.0187688     
      416.09660       1.0324467     
      416.27660       1.0462247     
      416.45660       1.0600965     
      416.63660       1.0740554     
      416.81660       1.0880948     
      416.99660       1.1022079     
      417.17660       1.1163880     
      417.35660       1.1306283     
      417.53660       1.1449217     
      417.71660       1.1592613     
      417.89660       1.1736400     
      418.07660       1.1880507     
      418.25660       1.2024862     
      418.43660       1.2169393     
      418.61660       1.2314027     
      418.79660       1.2458692     
      418.97660       1.2603313     
      419.15660       1.2747817     
      419.33660       1.2892130     
      419.51660       1.3036177     
      419.69660       1.3179885     
      419.87660       1.3323177     
      420.05660       1.3465980     
      420.23660       1.3608220     
      420.41660       1.3749820     
      420.59660       1.3890706     
      420.77660       1.4030804     
      420.95660       1.4170040     
      421.13660       1.4308339     
      421.31660       1.4445627     
      421.49660       1.4581830     
      421.67660       1.4716877     
      421.85660       1.4850692     
      422.03660       1.4983206     
      422.21660       1.5114345     
      422.39660       1.5244038     
      422.57660       1.5372216     
      422.75660       1.5498808     
      422.93660       1.5623746     
      423.11660       1.5746962     
      423.29660       1.5868387     
      423.47660       1.5987957     
      423.65660       1.6105606     
      423.83660       1.6221269     
      424.01660       1.6334885     
      424.19660       1.6446390     
      424.37660       1.6555725     
      424.55660       1.6662829     
      424.73660       1.6767646     
      424.91660       1.6870119     
      425.09660       1.6970192     
      425.27660       1.7067813     
      425.45660       1.7162929     
      425.63660       1.7255489     
      425.81660       1.7345446     
      425.99660       1.7432752     
      426.17660       1.7517363     
      426.35660       1.7599234     
      426.53660       1.7678325     
      426.71660       1.7754596     
      426.89660       1.7828010     
      427.07660       1.7898531     
      427.25660       1.7966125     
      427.43660       1.8030762     
      427.61660       1.8092413     
      427.79660       1.8151050     
      427.97660       1.8206648     
      428.15660       1.8259186     
      428.33660       1.8308643     
      428.51660       1.8355001     
      428.69660       1.8398245     
      428.87660       1.8438363     
      429.05660       1.8475342     
      429.23660       1.8509177     
      429.41660       1.8539860     
      429.59660       1.8567389     
      429.77660       1.8591763     
      429.95660       1.8612985     
      430.13660       1.8631060     
      430.31660       1.8645993     
      430.49660       1.8657797     
      430.67660       1.8666483     
      430.85660       1.8672066     
      431.03660       1.8674565     
      431.21660       1.8674000     
      431.39660       1.8670394     
      431.57660       1.8663775     
      431.75660       1.8654170     
      431.93660       1.8641611     
      432.11660       1.8626133     
      432.29660       1.8607773     
      432.47660       1.8586569     
      432.65660       1.8562566     
      432.83660       1.8535808     
      433.01660       1.8506343     
      433.19660       1.8474222     
      433.37660       1.8439498     
      433.55660       1.8402228     
      433.73660       1.8362469     
      433.91660       1.8320285     
      434.09660       1.8275738     
      434.27660       1.8228896     
      434.45660       1.8179828     
      434.63660       1.8128606     
      434.81660       1.8075305     
      434.99660       1.8020002     
      435.17660       1.7962777     
      435.35660       1.7903712     
      435.53660       1.7842892     
      435.71660       1.7780404     
      435.89660       1.7716338     
      436.07660       1.7650786     
      436.25660       1.7583843     
      436.43660       1.7515605     
      436.61660       1.7446172     
      436.79660       1.7375645     
      436.97660       1.7304128     
      437.15660       1.7231728     
      437.33660       1.7158551     
      437.51660       1.7084708     
      437.69660       1.7010312     
      437.87660       1.6935477     
      438.05660       1.6860320     
      438.23660       1.6784958     
      438.41660       1.6709513     
      438.59660       1.6634106     
      438.77660       1.6558862     
      438.95660       1.6483906     
      439.13660       1.6409366     
      439.31660       1.6335371     
      439.49660       1.6262053     
      439.67660       1.6189542     
      439.85660       1.6117975     
      440.03660       1.6047485     
      440.21660       1.5978211     
      440.39660       1.5910290     
      440.57660       1.5843862     
      440.75660       1.5779068     
      440.93660       1.5716050     
      441.11660       1.5654951     
      441.29660       1.5595916     
      441.47660       1.5539089     
      441.65660       1.5484618     
      441.83660       1.5432650     
      442.01660       1.5383332     
      442.19660       1.5336814     
      442.37660       1.5293245     
      442.55660       1.5252775     
      442.73660       1.5215555     
      442.91660       1.5181736     
      443.09660       1.5151470     
      443.27660       1.5124910     
      443.45660       1.5102206     
      443.63660       1.5083513     
      443.81660       1.5068983     
      443.99660       1.5058769     
      444.17660       1.5053023     
      444.35660       1.5051899     
      444.53660       1.5055548     
      444.71660       1.5064124     
      444.89660       1.5077778     
      445.07660       1.5096662     
      445.25660       1.5120927     
      445.43660       1.5150723     
      445.61660       1.5186201     
      445.79660       1.5227510     
      445.97660       1.5274798     
      446.15660       1.5328212     
      446.33660       1.5387900     
      446.51660       1.5454005     
      446.69660       1.5526673     
      446.87660       1.5606045     
      447.05660       1.5692265     
      447.23660       1.5785470     
      447.41660       1.5885800     
      447.59660       1.5993391     
      447.77660       1.6108379     
      447.95660       1.6230895     
      448.13660       1.6361072     
      448.31660       1.6499037     
      448.49660       1.6644917     
      448.67660       1.6798837     
      448.85660       1.6960918     
      449.03660       1.7131280     
      449.21660       1.7310039     
      449.39660       1.7497309     
      449.57660       1.7693201     
      449.75660       1.7897823     
      449.93660       1.8111280     
      450.11660       1.8333674     
      450.29660       1.8565102     
      450.47660       1.8805660     
      450.65660       1.9055438     
      450.83660       1.9314525     
      451.01660       1.9583004     
      451.19660       1.9860955     
      451.37660       2.0148453     
      451.55660       2.0445570     
      451.73660       2.0752374     
      451.91660       2.1068926     
      452.09660       2.1395286     
      452.27660       2.1731507     
      452.45660       2.2077637     
      452.63660       2.2433722     
      452.81660       2.2799799     
      452.99660       2.3175902     
      453.17660       2.3562061     
      453.35660       2.3958298     
      453.53660       2.4364632     
      453.71660       2.4781074     
      453.89660       2.5207630     
      454.07660       2.5644303     
      454.25660       2.6091086     
      454.43660       2.6547968     
      454.61660       2.7014933     
      454.79660       2.7491956     
      454.97660       2.7979009     
      455.15660       2.8476054     
      455.33660       2.8983050     
      455.51660       2.9499946     
      455.69660       3.0026689     
      455.87660       3.0563214     
      456.05660       3.1109452     
      456.23660       3.1665329     
      456.41660       3.2230759     
      456.59660       3.2805655     
      456.77660       3.3389917     
      456.95660       3.3983442     
      457.13660       3.4586119     
      457.31660       3.5197829     
      457.49660       3.5818446     
      457.67660       3.6447837     
      457.85660       3.7085862     
      458.03660       3.7732372     
      458.21660       3.8387214     
      458.39660       3.9050224     
      458.57660       3.9721233     
      458.75660       4.0400064     
      458.93660       4.1086532     
      459.11660       4.1780446     
      459.29660       4.2481607     
      459.47660       4.3189807     
      459.65660       4.3904834     
      459.83660       4.4626468     
      460.01660       4.5354479     
      460.19660       4.6088634     
      460.37660       4.6828690     
      460.55660       4.7574399     
      460.73660       4.8325504     
      460.91660       4.9081744     
      461.09660       4.9842848     
      461.27660       5.0608542     
      461.45660       5.1378543     
      461.63660       5.2152562     
      461.81660       5.2930306     
      461.99660       5.3711472     
      462.17660       5.4495754     
      462.35660       5.5282840     
      462.53660       5.6072411     
      462.71660       5.6864144     
      462.89660       5.7657710     
      463.07660       5.8452774     
      463.25660       5.9248998     
      463.43660       6.0046038     
      463.61660       6.0843545     
      463.79660       6.1641168     
      463.97660       6.2438549     
      464.15660       6.3235327     
      464.33660       6.4031140     
      464.51660       6.4825618     
      464.69660       6.5618390     
      464.87660       6.6409085     
      465.05660       6.7197323     
      465.23660       6.7982728     
      465.41660       6.8764918     
      465.59660       6.9543509     
      465.77660       7.0318118     
      465.95660       7.1088358     
      466.13660       7.1853843     
      466.31660       7.2614184     
      466.49660       7.3368995     
      466.67660       7.4117885     
      466.85660       7.4860468     
      467.03660       7.5596355     
      467.21660       7.6325160     
      467.39660       7.7046496     
      467.57660       7.7759979     
      467.75660       7.8465225     
      467.93660       7.9161855     
      468.11660       7.9849488     
      468.29660       8.0527749     
      468.47660       8.1196264     
      468.65660       8.1854664     
      468.83660       8.2502582     
      469.01660       8.3139655     
      469.19660       8.3765525     
      469.37660       8.4379837     
      469.55660       8.4982244     
      469.73660       8.5572399     
      469.91660       8.6149965     
      470.09660       8.6714608     
      470.27660       8.7266002     
      470.45660       8.7803824     
      470.63660       8.8327762     
      470.81660       8.8837506     
      470.99660       8.9332758     
      471.17660       8.9813223     
      471.35660       9.0278617     
      471.53660       9.0728662     
      471.71660       9.1163089     
      471.89660       9.1581636     
      472.07660       9.1984051     
      472.25660       9.2370091     
      472.43660       9.2739522     
      472.61660       9.3092119     
      472.79660       9.3427666     
      472.97660       9.3745958     
      473.15660       9.4046798     
      473.33660       9.4330002     
      473.51660       9.4595393     
      473.69660       9.4842806     
      473.87660       9.5072089     
      474.05660       9.5283095     
      474.23660       9.5475694     
      474.41660       9.5649763     
      474.59660       9.5805192     
      474.77660       9.5941881     
      474.95660       9.6059742     
      475.13660       9.6158698     
      475.31660       9.6238684     
      475.49660       9.6299646     
      475.67660       9.6341543     
      475.85660       9.6364342     
      476.03660       9.6368026     
      476.21660       9.6352587     
      476.39660       9.6318029     
      476.57660       9.6264367     
      476.75660       9.6191631     
      476.93660       9.6099857     
      477.11660       9.5989098     
      477.29660       9.5859414     
      477.47660       9.5710880     
      477.65660       9.5543579     
      477.83660       9.5357608     
      478.01660       9.5153074     
      478.19660       9.4930095     
      478.37660       9.4688800     
      478.55660       9.4429328     
      478.73660       9.4151829     
      478.91660       9.3856466     
      479.09660       9.3543407     
      479.27660       9.3212836     
      479.45660       9.2864942     
      479.63660       9.2499927     
      479.81660       9.2118001     
      479.99660       9.1719384     
      480.17660       9.1304305     
      480.35660       9.0873002     
      480.53660       9.0425721     
      480.71660       8.9962716     
      480.89660       8.9484252     
      481.07660       8.8990599     
      481.25660       8.8482036     
      481.43660       8.7958849     
      481.61660       8.7421331     
      481.79660       8.6869782     
      481.97660       8.6304509     
      482.15660       8.5725825     
      482.33660       8.5134049     
      482.51660       8.4529505     
      482.69660       8.3912524     
      482.87660       8.3283440     
      483.05660       8.2642593     
      483.23660       8.1990328     
      483.41660       8.1326994     
      483.59660       8.0652942     
      483.77660       7.9968528     
      483.95660       7.9274113     
      484.13660       7.8570057     
      484.31660       7.7856725     
      484.49660       7.7134485     
      484.67660       7.6403706     
      484.85660       7.5664757     
      485.03660       7.4918011     
      485.21660       7.4163841     
      485.39660       7.3402621     
      485.57660       7.2634724     
      485.75660       7.1860526     
      485.93660       7.1080399     
      486.11660       7.0294718     
      486.29660       6.9503855     
      486.47660       6.8708183     
      486.65660       6.7908071     
      486.83660       6.7103889     
      487.01660       6.6296004     
      487.19660       6.5484779     
      487.37660       6.4670578     
      487.55660       6.3853761     
      487.73660       6.3034683     
      487.91660       6.2213699     
      488.09660       6.1391159     
      488.27660       6.0567409     
      488.45660       5.9742791     
      488.63660       5.8917645     
      488.81660       5.8092304     
      488.99660       5.7267098     
      489.17660       5.6442352     
      489.35660       5.5618386     
      489.53660       5.4795515     
      489.71660       5.3974048     
      489.89660       5.3154290     
      490.07660       5.2336539     
      490.25660       5.1521088     
      490.43660       5.0708224     
      490.61660       4.9898229     
      490.79660       4.9091376     
      490.97660       4.8287934     
      491.15660       4.7488166     
      491.33660       4.6692326     
      491.51660       4.5900665     
      491.69660       4.5113424     
      491.87660       4.4330839     
      492.05660       4.3553138     
      492.23660       4.2780545     
      492.41660       4.2013272     
      492.59660       4.1251530     
      492.77660       4.0495518     
      492.95660       3.9745430     
      493.13660       3.9001453     
      493.31660       3.8263767     
      493.49660       3.7532545     
      493.67660       3.6807951     
      493.85660       3.6090145     
      494.03660       3.5379277     
      494.21660       3.4675491     
      494.39660       3.3978926     
      494.57660       3.3289710     
      494.75660       3.2607968     
      494.93660       3.1933815     
      495.11660       3.1267360     
      495.29660       3.0608707     
      495.47660       2.9957950     
      495.65660       2.9315179     
      495.83660       2.8680477     
      496.01660       2.8053918     
      496.19660       2.7435573     
      496.37660       2.6825505     
      496.55660       2.6223769     
      496.73660       2.5630417     
      496.91660       2.5045493     
      497.09660       2.4469036     
      497.27660       2.3901077     
      497.45660       2.3341644     
      497.63660       2.2790758     
      497.81660       2.2248434     
      497.99660       2.1714682     
      498.17660       2.1189507     
      498.35660       2.0672909     
      498.53660       2.0164881     
      498.71660       1.9665415     
      498.89660       1.9174494     
      499.07660       1.8692099     
      499.25660       1.8218205     
      499.43660       1.7752783     
      499.61660       1.7295801     
      499.79660       1.6847220     
      499.97660       1.6407000     
      500.15660       1.5975096     
      500.33660       1.5551459     
      500.51660       1.5136036     
      500.69660       1.4728771     
      500.87660       1.4329606     
      501.05660       1.3938478     
      501.23660       1.3555321     
      501.41660       1.3180067     
      501.59660       1.2812645     
      501.77660       1.2452981     
      501.95660       1.2100999     
      502.13660       1.1756620     
      502.31660       1.1419764     
      502.49660       1.1090347     
      502.67660       1.0768283     
      502.85660       1.0453487     
      503.03660       1.0145870     
      503.21660      0.98453407     
      503.39660      0.95518078     
      503.57660      0.92651780     
      503.75660      0.89853568     
      503.93660      0.87122485     
      504.11660      0.84457565     
      504.29660      0.81857830     
      504.47660      0.79322294     
      504.65660      0.76849966     
      504.83660      0.74439846     
      505.01660      0.72090929     
      505.19660      0.69802207     
      505.37660      0.67572667     
      505.55660      0.65401294     
      505.73660      0.63287071     
      505.91660      0.61228980     
      506.09660      0.59226004     
      506.27660      0.57277126     
      506.45660      0.55381330     
      506.63660      0.53537604     
      506.81660      0.51744936     
      506.99660      0.50002320     
      507.17660      0.48308754     
      507.35660      0.46663242     
      507.53660      0.45064790     
      507.71660      0.43512415     
      507.89660      0.42005137     
      508.07660      0.40541984     
      508.25660      0.39121995     
      508.43660      0.37744212     
      508.61660      0.36407690     
      508.79660      0.35111491     
      508.97660      0.33854687     
      509.15660      0.32636361     
      509.33660      0.31455605     
      509.51660      0.30311523     
      509.69660      0.29203228     
      509.87660      0.28129846     
      510.05660      0.27090513     
      510.23660      0.26084380     
      510.41660      0.25110606     
      510.59660      0.24168365     
      510.77660      0.23256842     
      510.95660      0.22375235     
      511.13660      0.21522756     
      511.31660      0.20698627     
      511.49660      0.19902087     
      511.67660      0.19132384     
      511.85660      0.18388782     
      512.03660      0.17670557     
      512.21660      0.16976999     
      512.39660      0.16307411     
      512.57660      0.15661108     
      512.75660      0.15037422     
      512.93660      0.14435695     
      513.11660      0.13855284     
      513.29660      0.13295558     
      513.47660      0.12755900     
      513.65660      0.12235707     
      513.83660      0.11734388     
      514.01660      0.11251365     
      514.19660      0.10786074     
      514.37660      0.10337964     
      514.55660      0.99064960E-001
      514.73660      0.94911431E-001
      514.91660      0.90913923E-001
      515.09660      0.87067423E-001
      515.27660      0.83367046E-001
      515.45660      0.79808023E-001
      515.63660      0.76385710E-001
      515.81660      0.73095580E-001
      515.99660      0.69933222E-001
      516.17660      0.66894342E-001
      516.35660      0.63974760E-001
      516.53660      0.61170407E-001
      516.71660      0.58477327E-001
      516.89660      0.55891670E-001
      517.07660      0.53409695E-001
      517.25660      0.51027765E-001
      517.43660      0.48742346E-001
      517.61660      0.46550007E-001
      517.79660      0.44447415E-001
      517.97660      0.42431336E-001
      518.15660      0.40498632E-001
      518.33660      0.38646257E-001
      518.51660      0.36871259E-001
      518.69660      0.35170776E-001
      518.87660      0.33542032E-001
      519.05660      0.31982341E-001
      519.23660      0.30489098E-001
      519.41660      0.29059782E-001
      519.59660      0.27691953E-001
      519.77660      0.26383248E-001
      519.95660      0.25131384E-001
      520.13660      0.23934150E-001
      520.31660      0.22789409E-001
      520.49660      0.21695096E-001
      520.67660      0.20649216E-001
      520.85660      0.19649839E-001
      521.03660      0.18695105E-001
      521.21660      0.17783216E-001
      521.39660      0.16912435E-001
      521.57660      0.16081089E-001
      521.75660      0.15287562E-001
      521.93660      0.14530297E-001
      522.11660      0.13807792E-001
      522.29660      0.13118598E-001
      522.47660      0.12461322E-001
      522.65660      0.11834619E-001
      522.83660      0.11237196E-001
      523.01660      0.10667805E-001
      523.19660      0.10125249E-001
      523.37660      0.96083717E-002
      523.55660      0.91160644E-002
      523.73660      0.86472590E-002
      523.91660      0.82009288E-002
      524.09660      0.77760869E-002
      524.27660      0.73717852E-002
      524.45660      0.69871124E-002
      524.63660      0.66211936E-002
      524.81660      0.62731887E-002
      524.99660      0.59422909E-002
      525.17660      0.56277264E-002
      525.35660      0.53287525E-002
      525.53660      0.50446569E-002
      525.71660      0.47747565E-002
      525.89660      0.45183965E-002
      526.07660      0.42749492E-002
      526.25660      0.40438133E-002
      526.43660      0.38244127E-002
      526.61660      0.36161957E-002
      526.79660      0.34186342E-002
      526.97660      0.32312224E-002
      527.15660      0.30534767E-002
      527.33660      0.28849340E-002
      527.51660      0.27251518E-002
      527.69660      0.25737067E-002
      527.87660      0.24301939E-002
      528.05660      0.22942268E-002
      528.23660      0.21654358E-002
      528.41660      0.20434679E-002
      528.59660      0.19279859E-002
      528.77660      0.18186681E-002
      528.95660      0.17152072E-002
      529.13660      0.16173101E-002
      529.31660      0.15246970E-002
      529.49660      0.14371012E-002
      529.67660      0.13542683E-002
      529.85660      0.12759558E-002
      530.03660      0.12019326E-002
      530.21660      0.11319785E-002
      530.39660      0.10658837E-002
      530.57660      0.10034483E-002
      530.75660      0.94448219E-003
      530.93660      0.88880425E-003
      531.11660      0.83624214E-003
      531.29660      0.78663190E-003
      531.47660      0.73981758E-003
      531.65660      0.69565086E-003
      531.83660      0.65399073E-003
      532.01660      0.61470317E-003
      532.19660      0.57766082E-003
      532.37660      0.54274267E-003
      532.55660      0.50983380E-003
      532.73660      0.47882507E-003
      532.91660      0.44961288E-003
      533.09660      0.42209890E-003
      533.27660      0.39618982E-003
      533.45660      0.37179711E-003
      533.63660      0.34883683E-003
      533.81660      0.32722937E-003
      533.99660      0.30689926E-003
      534.17660      0.28777498E-003
      534.35660      0.26978876E-003
      534.53660      0.25287641E-003
      534.71660      0.23697711E-003
      534.89660      0.22203331E-003
      535.07660      0.20799051E-003
      535.25660      0.19479712E-003
      535.43660      0.18240436E-003
      535.61660      0.17076605E-003
      535.79660      0.15983854E-003
      535.97660      0.14958056E-003
      536.15660      0.13995308E-003
      536.33660      0.13091923E-003
      536.51660      0.12244416E-003
      536.69660      0.11449496E-003
      536.87660      0.10704056E-003
      537.05660      0.10005160E-003
      537.23660      0.93500382E-004
      537.41660      0.87360765E-004
      537.59660      0.81608079E-004
      537.77660      0.76219059E-004
      537.95660      0.71171760E-004
      538.13660      0.66445494E-004
      538.31660      0.62020757E-004
      538.49660      0.57879171E-004
      538.67660      0.54003419E-004
      538.85660      0.50377189E-004
      539.03660      0.46985118E-004
      539.21660      0.43812743E-004
      539.39660      0.40846448E-004
      539.57660      0.38073419E-004
      539.75660      0.35481600E-004
      539.93660      0.33059650E-004
      540.11660      0.30796904E-004
      540.29660      0.28683333E-004
      540.47660      0.26709510E-004
      540.65660      0.24866576E-004
      540.83660      0.23146207E-004
      541.01660      0.21540581E-004
      541.19660      0.20042357E-004
      541.37660      0.18644637E-004
      541.55660      0.17340949E-004
      541.73660      0.16125217E-004
      541.91660      0.14991741E-004
      542.09660      0.13935173E-004
      542.27660      0.12950498E-004
      542.45660      0.12033012E-004
      542.63660      0.11178307E-004
      542.81660      0.10382252E-004
      542.99660      0.96409736E-005
      543.17660      0.89508452E-005
      543.35660      0.83084695E-005
      543.53660      0.77106651E-005
      543.71660      0.71544539E-005
      543.89660      0.66370484E-005
      544.07660      0.61558400E-005
      544.25660      0.57083884E-005
      544.43660      0.52924110E-005
      544.61660      0.49057733E-005
      544.79660      0.45464797E-005
      544.97660      0.42126648E-005
      545.15660      0.39025856E-005
      545.33660      0.36146133E-005
      545.51660      0.33472269E-005
      545.69660      0.30990055E-005
      545.87660      0.28686228E-005
      546.05660      0.26548406E-005
      546.23660      0.24565034E-005
      546.41660      0.22725330E-005
      546.59660      0.21019237E-005
      546.77660      0.19437376E-005
      546.95660      0.17971001E-005
      547.13660      0.16611958E-005
      547.31660      0.15352649E-005
      547.49660      0.14185994E-005
      547.67660      0.13105398E-005
      547.85660      0.12104715E-005
      548.03660      0.11178227E-005
      548.21660      0.10320608E-005
      548.39660      0.95268995E-006
      548.57660      0.87924900E-006
      548.75660      0.81130880E-006
      548.93660      0.74847015E-006
      549.11660      0.69036187E-006
      549.29660      0.63663883E-006
      549.47660      0.58698023E-006
      549.65660      0.54108794E-006
      549.83660      0.49868496E-006
      550.01660      0.45951398E-006
      550.19660      0.42333603E-006
      550.37660      0.38992923E-006
      550.55660      0.35908761E-006
      550.73660      0.33062000E-006
      550.91660      0.30434901E-006
      551.09660      0.28011009E-006
      551.27660      0.25775061E-006
      551.45660      0.23712905E-006
      551.63660      0.21811419E-006
      551.81660      0.20058441E-006
      551.99660      0.18442703E-006
      552.17660      0.16953763E-006
      552.35660      0.15581948E-006
      552.53660      0.14318303E-006
      552.71660      0.13154536E-006
      552.89660      0.12082968E-006
      553.07660      0.11096498E-006
      553.25660      0.10188550E-006
      553.43660      0.93530452E-007
      553.61660      0.85843590E-007
      553.79660      0.78772913E-007
      553.97660      0.72270350E-007
      554.15660      0.66291466E-007
      554.33660      0.60795203E-007
      554.51660      0.55743629E-007
      554.69660      0.51101707E-007
      554.87660      0.46837081E-007
      555.05660      0.42919880E-007
      555.23660      0.39322530E-007
      555.41660      0.36019583E-007
      555.59660      0.32987560E-007
      555.77660      0.30204802E-007
      555.95660      0.27651335E-007
      556.13660      0.25308741E-007
      556.31660      0.23160039E-007
      556.49660      0.21189581E-007
      556.67660      0.19382946E-007
      556.85660      0.17726850E-007
      557.03660      0.16209056E-007
      557.21660      0.14818294E-007
      557.39660      0.13544192E-007
      557.57660      0.12377199E-007
      557.75660      0.11308528E-007
      557.93660      0.10330091E-007
      558.11660      0.94344517E-008
      558.29660      0.86147684E-008
      558.47660      0.78647512E-008
      558.65660      0.71786177E-008
      558.83660      0.65510531E-008
      559.01660      0.59771738E-008
      559.19660      0.54524932E-008
      559.37660      0.49728903E-008
      559.55660      0.45345806E-008
      559.73660      0.41340896E-008
      559.91660      0.37682280E-008
      560.09660      0.34340689E-008
      560.27660      0.31289266E-008
      560.45660      0.28503376E-008
      560.63660      0.25960426E-008
      560.81660      0.23639697E-008
      560.99660      0.21522196E-008
      561.17660      0.19590516E-008
      561.35660      0.17828704E-008
      561.53660      0.16222146E-008
      561.71660      0.14757455E-008
      561.89660      0.13422373E-008
      562.07660      0.12205675E-008
      562.25660      0.11097087E-008
      562.43660      0.10087205E-008
      562.61660      0.91674256E-009
      562.79660      0.83298786E-009
      562.97660      0.75673649E-009
      563.15660      0.68733020E-009
      563.33660      0.62416717E-009
      563.51660      0.56669736E-009
      563.69660      0.51441809E-009
      563.87660      0.46687011E-009
      564.05660      0.42363390E-009
      564.23660      0.38432636E-009
      564.41660      0.34859766E-009
      564.59660      0.31612846E-009
      564.77660      0.28662733E-009
      564.95660      0.25982831E-009
      565.13660      0.23548879E-009
      565.31660      0.21338746E-009
      565.49660      0.19332253E-009
      565.67660      0.17511001E-009
      565.85660      0.15858220E-009
      566.03660      0.14358625E-009
      566.21660      0.12998290E-009
      566.39660      0.11764530E-009
      566.57660      0.10645792E-009
      566.75660      0.96315540E-010
      566.93660      0.87122392E-010
      567.11660      0.78791300E-010
      567.29660      0.71242935E-010
      567.47660      0.64405124E-010
      567.65660      0.58212216E-010
      567.83660      0.52604507E-010
      568.01660      0.47527712E-010
      568.19660      0.42932482E-010
      568.37660      0.38773968E-010
      568.55660      0.35011415E-010
      568.73660      0.31607801E-010
      568.91660      0.28529496E-010
      569.09660      0.25745963E-010
      569.27660      0.23229477E-010
      569.45660      0.20954870E-010
      569.63660      0.18899303E-010
      569.81660      0.17042052E-010
      569.99660      0.15364319E-010
      570.17660      0.13849052E-010
      570.35660      0.12480792E-010
      570.53660      0.11245521E-010
      570.71660      0.10130536E-010
      570.89660      0.91243224E-011
      571.07660      0.82164507E-011
      571.25660      0.73974718E-011
      571.43660      0.66588286E-011
      571.61660      0.59927729E-011
      571.79660      0.53922907E-011
      571.97660      0.48510335E-011
      572.15660      0.43632568E-011
      572.33660      0.39237635E-011
      572.51660      0.35278526E-011
      572.69660      0.31712730E-011
      572.87660      0.28501809E-011
      573.05660      0.25611018E-011
      573.23660      0.23008955E-011
      573.41660      0.20667246E-011
      573.59660      0.18560258E-011
      573.77660      0.16664838E-011
      573.95660      0.14960080E-011
      574.13660      0.13427108E-011
      574.31660      0.12048883E-011
      574.49660      0.10810030E-011
      574.67660      0.96966743E-012
