      389.10630      0.46581657E-004
      389.28630      0.46738798E-004
      389.46630      0.46891659E-004
      389.64630      0.47040224E-004
      389.82630      0.47184476E-004
      390.00630      0.47324402E-004
      390.18630      0.47459989E-004
      390.36630      0.47591224E-004
      390.54630      0.47718099E-004
      390.72630      0.47840604E-004
      390.90630      0.47958731E-004
      391.08630      0.48072474E-004
      391.26630      0.48181828E-004
      391.44630      0.48286789E-004
      391.62630      0.48387355E-004
      391.80630      0.48483523E-004
      391.98630      0.48575294E-004
      392.16630      0.48662668E-004
      392.34630      0.48745648E-004
      392.52630      0.48824237E-004
      392.70630      0.48898439E-004
      392.88630      0.48968259E-004
      393.06630      0.49033704E-004
      393.24630      0.49094782E-004
      393.42630      0.49151501E-004
      393.60630      0.49203871E-004
      393.78630      0.49251903E-004
      393.96630      0.49295609E-004
      394.14630      0.49335001E-004
      394.32630      0.49370093E-004
      394.50630      0.49400899E-004
      394.68630      0.49427437E-004
      394.86630      0.49449721E-004
      395.04630      0.49467770E-004
      395.22630      0.49481603E-004
      395.40630      0.49491238E-004
      395.58630      0.49496697E-004
      395.76630      0.49497999E-004
      395.94630      0.49495168E-004
      396.12630      0.49488226E-004
      396.30630      0.49477197E-004
      396.48630      0.49462106E-004
      396.66630      0.49442977E-004
      396.84630      0.49419839E-004
      397.02630      0.49392716E-004
      397.20630      0.49361638E-004
      397.38630      0.49326632E-004
      397.56630      0.49287729E-004
      397.74630      0.49244959E-004
      397.92630      0.49198352E-004
      398.10630      0.49147940E-004
      398.28630      0.49093756E-004
      398.46630      0.49035832E-004
      398.64630      0.48974203E-004
      398.82630      0.48908903E-004
      399.00630      0.48839967E-004
      399.18630      0.48767432E-004
      399.36630      0.48691333E-004
      399.54630      0.48611709E-004
      399.72630      0.48528597E-004
      399.90630      0.48442036E-004
      400.08630      0.48352064E-004
      400.26630      0.48258723E-004
      400.44630      0.48162052E-004
      400.62630      0.48062092E-004
      400.80630      0.47958886E-004
      400.98630      0.47852474E-004
      401.16630      0.47742901E-004
      401.34630      0.47630210E-004
      401.52630      0.47514444E-004
      401.70630      0.47395648E-004
      401.88630      0.47273867E-004
      402.06630      0.47149146E-004
      402.24630      0.47021532E-004
      402.42630      0.46891070E-004
      402.60630      0.46757809E-004
      402.78630      0.46621794E-004
      402.96630      0.46483074E-004
      403.14630      0.46341697E-004
      403.32630      0.46197712E-004
      403.50630      0.46051168E-004
      403.68630      0.45902113E-004
      403.86630      0.45750598E-004
      404.04630      0.45596672E-004
      404.22630      0.45440386E-004
      404.40630      0.45281791E-004
      404.58630      0.45120936E-004
      404.76630      0.44957873E-004
      404.94630      0.44792654E-004
      405.12630      0.44625329E-004
      405.30630      0.44455950E-004
      405.48630      0.44284570E-004
      405.66630      0.44111238E-004
      405.84630      0.43936009E-004
      406.02630      0.43758933E-004
      406.20630      0.43580062E-004
      406.38630      0.43399448E-004
      406.56630      0.43217144E-004
      406.74630      0.43033200E-004
      406.92630      0.42847670E-004
      407.10630      0.42660604E-004
      407.28630      0.42472055E-004
      407.46630      0.42282073E-004
      407.64630      0.42090709E-004
      407.82630      0.41898016E-004
      408.00630      0.41704042E-004
      408.18630      0.41508839E-004
      408.36630      0.41312457E-004
      408.54630      0.41114945E-004
      408.72630      0.40916353E-004
      408.90630      0.40716730E-004
      409.08630      0.40516124E-004
      409.26630      0.40314584E-004
      409.44630      0.40112156E-004
      409.62630      0.39908888E-004
      409.80630      0.39704826E-004
      409.98630      0.39500016E-004
      410.16630      0.39294503E-004
      410.34630      0.39088332E-004
      410.52630      0.38881547E-004
      410.70630      0.38674191E-004
      410.88630      0.38466307E-004
      411.06630      0.38257936E-004
      411.24630      0.38049119E-004
      411.42630      0.37839896E-004
      411.60630      0.37630307E-004
      411.78630      0.37420391E-004
      411.96630      0.37210184E-004
      412.14630      0.36999724E-004
      412.32630      0.36789047E-004
      412.50630      0.36578187E-004
      412.68630      0.36367178E-004
      412.86630      0.36156054E-004
      413.04630      0.35944847E-004
      413.22630      0.35733587E-004
      413.40630      0.35522305E-004
      413.58630      0.35311029E-004
      413.76630      0.35099788E-004
      413.94630      0.34888609E-004
      414.12630      0.34677518E-004
      414.30630      0.34466539E-004
      414.48630      0.34255696E-004
      414.66630      0.34045013E-004
      414.84630      0.33834510E-004
      415.02630      0.33624209E-004
      415.20630      0.33414130E-004
      415.38630      0.33204290E-004
      415.56630      0.32994707E-004
      415.74630      0.32785398E-004
      415.92630      0.32576378E-004
      416.10630      0.32367661E-004
      416.28630      0.32159261E-004
      416.46630      0.31951190E-004
      416.64630      0.31743460E-004
      416.82630      0.31536080E-004
      417.00630      0.31329060E-004
      417.18630      0.31122408E-004
      417.36630      0.30916132E-004
      417.54630      0.30710238E-004
      417.72630      0.30504732E-004
      417.90630      0.30299618E-004
      418.08630      0.30094901E-004
      418.26630      0.29890582E-004
      418.44630      0.29686665E-004
      418.62630      0.29483151E-004
      418.80630      0.29280040E-004
      418.98630      0.29077332E-004
      419.16630      0.28875027E-004
      419.34630      0.28673122E-004
      419.52630      0.28471616E-004
      419.70630      0.28270505E-004
      419.88630      0.28069787E-004
      420.06630      0.27869457E-004
      420.24630      0.27669511E-004
      420.42630      0.27469944E-004
      420.60630      0.27270750E-004
      420.78630      0.27071924E-004
      420.96630      0.26873459E-004
      421.14630      0.26675349E-004
      421.32630      0.26477586E-004
      421.50630      0.26280165E-004
      421.68630      0.26083076E-004
      421.86630      0.25886314E-004
      422.04630      0.25689869E-004
      422.22630      0.25493734E-004
      422.40630      0.25297901E-004
      422.58630      0.25102361E-004
      422.76630      0.24907108E-004
      422.94630      0.24712132E-004
      423.12630      0.24517426E-004
      423.30630      0.24322981E-004
      423.48630      0.24128790E-004
      423.66630      0.23934846E-004
      423.84630      0.23741140E-004
      424.02630      0.23547665E-004
      424.20630      0.23354415E-004
      424.38630      0.23161383E-004
      424.56630      0.22968562E-004
      424.74630      0.22775946E-004
      424.92630      0.22583529E-004
      425.10630      0.22391307E-004
      425.28630      0.22199274E-004
      425.46630      0.22007426E-004
      425.64630      0.21815760E-004
      425.82630      0.21624271E-004
      426.00630      0.21432957E-004
      426.18630      0.21241815E-004
      426.36630      0.21050845E-004
      426.54630      0.20860044E-004
      426.72630      0.20669412E-004
      426.90630      0.20478950E-004
      427.08630      0.20288658E-004
      427.26630      0.20098537E-004
      427.44630      0.19908590E-004
      427.62630      0.19718820E-004
      427.80630      0.19529230E-004
      427.98630      0.19339824E-004
      428.16630      0.19150607E-004
      428.34630      0.18961586E-004
      428.52630      0.18772765E-004
      428.70630      0.18584154E-004
      428.88630      0.18395759E-004
      429.06630      0.18207589E-004
      429.24630      0.18019654E-004
      429.42630      0.17831963E-004
      429.60630      0.17644529E-004
      429.78630      0.17457361E-004
      429.96630      0.17270474E-004
      430.14630      0.17083880E-004
      430.32630      0.16897592E-004
      430.50630      0.16711626E-004
      430.68630      0.16525997E-004
      430.86630      0.16340720E-004
      431.04630      0.16155814E-004
      431.22630      0.15971294E-004
      431.40630      0.15787179E-004
      431.58630      0.15603488E-004
      431.76630      0.15420240E-004
      431.94630      0.15237456E-004
      432.12630      0.15055155E-004
      432.30630      0.14873359E-004
      432.48630      0.14692090E-004
      432.66630      0.14511371E-004
      432.84630      0.14331223E-004
      433.02630      0.14151671E-004
      433.20630      0.13972739E-004
      433.38630      0.13794450E-004
      433.56630      0.13616830E-004
      433.74630      0.13439904E-004
      433.92630      0.13263697E-004
      434.10630      0.13088237E-004
      434.28630      0.12913549E-004
      434.46630      0.12739659E-004
      434.64630      0.12566596E-004
      434.82630      0.12394387E-004
      435.00630      0.12223059E-004
      435.18630      0.12052640E-004
      435.36630      0.11883159E-004
      435.54630      0.11714643E-004
      435.72630      0.11547123E-004
      435.90630      0.11380625E-004
      436.08630      0.11215180E-004
      436.26630      0.11050815E-004
      436.44630      0.10887561E-004
      436.62630      0.10725446E-004
      436.80630      0.10564500E-004
      436.98630      0.10404752E-004
      437.16630      0.10246231E-004
      437.34630      0.10088966E-004
      437.52630      0.99329858E-005
      437.70630      0.97783206E-005
      437.88630      0.96249989E-005
      438.06630      0.94730497E-005
      438.24630      0.93225017E-005
      438.42630      0.91733837E-005
      438.60630      0.90257241E-005
      438.78630      0.88795515E-005
      438.96630      0.87348938E-005
      439.14630      0.85917791E-005
      439.32630      0.84502351E-005
      439.50630      0.83102894E-005
      439.68630      0.81719693E-005
      439.86630      0.80353017E-005
      440.04630      0.79003135E-005
      440.22630      0.77670311E-005
      440.40630      0.76354807E-005
      440.58630      0.75056882E-005
      440.76630      0.73776791E-005
      440.94630      0.72514788E-005
      441.12630      0.71271121E-005
      441.30630      0.70046037E-005
      441.48630      0.68839777E-005
      441.66630      0.67652582E-005
      441.84630      0.66484686E-005
      442.02630      0.65336321E-005
      442.20630      0.64207716E-005
      442.38630      0.63099096E-005
      442.56630      0.62010682E-005
      442.74630      0.60942690E-005
      442.92630      0.59895335E-005
      443.10630      0.58868825E-005
      443.28630      0.57863369E-005
      443.46630      0.56879167E-005
      443.64630      0.55916419E-005
      443.82630      0.54975319E-005
      444.00630      0.54056058E-005
      444.18630      0.53158825E-005
      444.36630      0.52283803E-005
      444.54630      0.51431171E-005
      444.72630      0.50601107E-005
      444.90630      0.49793784E-005
      445.08630      0.49009370E-005
      445.26630      0.48248031E-005
      445.44630      0.47509930E-005
      445.62630      0.46795225E-005
      445.80630      0.46104072E-005
      445.98630      0.45436622E-005
      446.16630      0.44793024E-005
      446.34630      0.44173423E-005
      446.52630      0.43577960E-005
      446.70630      0.43006775E-005
      446.88630      0.42460002E-005
      447.06630      0.41937773E-005
      447.24630      0.41440217E-005
      447.42630      0.40967460E-005
      447.60630      0.40519624E-005
      447.78630      0.40096829E-005
      447.96630      0.39699191E-005
      448.14630      0.39326823E-005
      448.32630      0.38979835E-005
      448.50630      0.38658334E-005
      448.68630      0.38362424E-005
      448.86630      0.38092207E-005
      449.04630      0.37847780E-005
      449.22630      0.37629237E-005
      449.40630      0.37436671E-005
      449.58630      0.37270169E-005
      449.76630      0.37129818E-005
      449.94630      0.37015700E-005
      450.12630      0.36927893E-005
      450.30630      0.36866474E-005
      450.48630      0.36831514E-005
      450.66630      0.36823084E-005
      450.84630      0.36841248E-005
      451.02630      0.36886068E-005
      451.20630      0.36957604E-005
      451.38630      0.37055910E-005
      451.56630      0.37181038E-005
      451.74630      0.37333034E-005
      451.92630      0.37511942E-005
      452.10630      0.37717802E-005
      452.28630      0.37950648E-005
      452.46630      0.38210511E-005
      452.64630      0.38497417E-005
      452.82630      0.38811389E-005
      453.00630      0.39152443E-005
      453.18630      0.39520591E-005
      453.36630      0.39915841E-005
      453.54630      0.40338194E-005
      453.72630      0.40787647E-005
      453.90630      0.41264191E-005
      454.08630      0.41767811E-005
      454.26630      0.42298487E-005
      454.44630      0.42856191E-005
      454.62630      0.43440891E-005
      454.80630      0.44052547E-005
      454.98630      0.44691113E-005
      455.16630      0.45356535E-005
      455.34630      0.46048753E-005
      455.52630      0.46767700E-005
      455.70630      0.47513299E-005
      455.88630      0.48285469E-005
      456.06630      0.49084118E-005
      456.24630      0.49909146E-005
      456.42630      0.50760445E-005
      456.60630      0.51637900E-005
      456.78630      0.52541384E-005
      456.96630      0.53470763E-005
      457.14630      0.54425892E-005
      457.32630      0.55406619E-005
      457.50630      0.56412778E-005
      457.68630      0.57444198E-005
      457.86630      0.58500693E-005
      458.04630      0.59582070E-005
      458.22630      0.60688122E-005
      458.40630      0.61818635E-005
      458.58630      0.62973379E-005
      458.76630      0.64152117E-005
      458.94630      0.65354599E-005
      459.12630      0.66580561E-005
      459.30630      0.67829730E-005
      459.48630      0.69101820E-005
      459.66630      0.70396533E-005
      459.84630      0.71713556E-005
      460.02630      0.73052567E-005
      460.20630      0.74413229E-005
      460.38630      0.75795192E-005
      460.56630      0.77198094E-005
      460.74630      0.78621560E-005
      460.92630      0.80065200E-005
      461.10630      0.81528613E-005
      461.28630      0.83011382E-005
      461.46630      0.84513077E-005
      461.64630      0.86033257E-005
      461.82630      0.87571465E-005
      462.00630      0.89127230E-005
      462.18630      0.90700068E-005
      462.36630      0.92289481E-005
      462.54630      0.93894959E-005
      462.72630      0.95515976E-005
      462.90630      0.97151993E-005
      463.08630      0.98802459E-005
      463.26630      0.10046681E-004
      463.44630      0.10214446E-004
      463.62630      0.10383482E-004
      463.80630      0.10553729E-004
      463.98630      0.10725124E-004
      464.16630      0.10897605E-004
      464.34630      0.11071106E-004
      464.52630      0.11245563E-004
      464.70630      0.11420909E-004
      464.88630      0.11597074E-004
      465.06630      0.11773991E-004
      465.24630      0.11951588E-004
      465.42630      0.12129793E-004
      465.60630      0.12308535E-004
      465.78630      0.12487739E-004
      465.96630      0.12667330E-004
      466.14630      0.12847233E-004
      466.32630      0.13027370E-004
      466.50630      0.13207665E-004
      466.68630      0.13388037E-004
      466.86630      0.13568409E-004
      467.04630      0.13748699E-004
      467.22630      0.13928827E-004
      467.40630      0.14108710E-004
      467.58630      0.14288266E-004
      467.76630      0.14467413E-004
      467.94630      0.14646066E-004
      468.12630      0.14824141E-004
      468.30630      0.15001554E-004
      468.48630      0.15178219E-004
      468.66630      0.15354052E-004
      468.84630      0.15528967E-004
      469.02630      0.15702877E-004
      469.20630      0.15875697E-004
      469.38630      0.16047340E-004
      469.56630      0.16217720E-004
      469.74630      0.16386750E-004
      469.92630      0.16554346E-004
      470.10630      0.16720419E-004
      470.28630      0.16884886E-004
      470.46630      0.17047659E-004
      470.64630      0.17208654E-004
      470.82630      0.17367786E-004
      471.00630      0.17524971E-004
      471.18630      0.17680123E-004
      471.36630      0.17833161E-004
      471.54630      0.17984002E-004
      471.72630      0.18132563E-004
      471.90630      0.18278763E-004
      472.08630      0.18422523E-004
      472.26630      0.18563762E-004
      472.44630      0.18702403E-004
      472.62630      0.18838369E-004
      472.80630      0.18971582E-004
      472.98630      0.19101969E-004
      473.16630      0.19229455E-004
      473.34630      0.19353969E-004
      473.52630      0.19475438E-004
      473.70630      0.19593795E-004
      473.88630      0.19708970E-004
      474.06630      0.19820897E-004
      474.24630      0.19929512E-004
      474.42630      0.20034751E-004
      474.60630      0.20136553E-004
      474.78630      0.20234859E-004
      474.96630      0.20329611E-004
      475.14630      0.20420752E-004
      475.32630      0.20508230E-004
      475.50630      0.20591993E-004
      475.68630      0.20671990E-004
      475.86630      0.20748174E-004
      476.04630      0.20820500E-004
      476.22630      0.20888924E-004
      476.40630      0.20953406E-004
      476.58630      0.21013906E-004
      476.76630      0.21070388E-004
      476.94630      0.21122818E-004
      477.12630      0.21171164E-004
      477.30630      0.21215397E-004
      477.48630      0.21255490E-004
      477.66630      0.21291418E-004
      477.84630      0.21323160E-004
      478.02630      0.21350696E-004
      478.20630      0.21374010E-004
      478.38630      0.21393085E-004
      478.56630      0.21407912E-004
      478.74630      0.21418480E-004
      478.92630      0.21424783E-004
      479.10630      0.21426816E-004
      479.28630      0.21424579E-004
      479.46630      0.21418071E-004
      479.64630      0.21407297E-004
      479.82630      0.21392263E-004
      480.00630      0.21372977E-004
      480.18630      0.21349450E-004
      480.36630      0.21321697E-004
      480.54630      0.21289734E-004
      480.72630      0.21253579E-004
      480.90630      0.21213253E-004
      481.08630      0.21168782E-004
      481.26630      0.21120190E-004
      481.44630      0.21067506E-004
      481.62630      0.21010762E-004
      481.80630      0.20949991E-004
      481.98630      0.20885229E-004
      482.16630      0.20816512E-004
      482.34630      0.20743883E-004
      482.52630      0.20667383E-004
      482.70630      0.20587057E-004
      482.88630      0.20502951E-004
      483.06630      0.20415115E-004
      483.24630      0.20323599E-004
      483.42630      0.20228457E-004
      483.60630      0.20129742E-004
      483.78630      0.20027512E-004
      483.96630      0.19921825E-004
      484.14630      0.19812741E-004
      484.32630      0.19700323E-004
      484.50630      0.19584633E-004
      484.68630      0.19465737E-004
      484.86630      0.19343702E-004
      485.04630      0.19218596E-004
      485.22630      0.19090489E-004
      485.40630      0.18959451E-004
      485.58630      0.18825555E-004
      485.76630      0.18688874E-004
      485.94630      0.18549482E-004
      486.12630      0.18407456E-004
      486.30630      0.18262871E-004
      486.48630      0.18115806E-004
      486.66630      0.17966338E-004
      486.84630      0.17814548E-004
      487.02630      0.17660515E-004
      487.20630      0.17504319E-004
      487.38630      0.17346041E-004
      487.56630      0.17185765E-004
      487.74630      0.17023570E-004
      487.92630      0.16859541E-004
      488.10630      0.16693760E-004
      488.28630      0.16526310E-004
      488.46630      0.16357273E-004
      488.64630      0.16186735E-004
      488.82630      0.16014777E-004
      489.00630      0.15841484E-004
      489.18630      0.15666938E-004
      489.36630      0.15491222E-004
      489.54630      0.15314420E-004
      489.72630      0.15136614E-004
      489.90630      0.14957887E-004
      490.08630      0.14778319E-004
      490.26630      0.14597993E-004
      490.44630      0.14416989E-004
      490.62630      0.14235387E-004
      490.80630      0.14053267E-004
      490.98630      0.13870708E-004
      491.16630      0.13687788E-004
      491.34630      0.13504584E-004
      491.52630      0.13321173E-004
      491.70630      0.13137629E-004
      491.88630      0.12954029E-004
      492.06630      0.12770445E-004
      492.24630      0.12586950E-004
      492.42630      0.12403615E-004
      492.60630      0.12220510E-004
      492.78630      0.12037706E-004
      492.96630      0.11855269E-004
      493.14630      0.11673266E-004
      493.32630      0.11491764E-004
      493.50630      0.11310825E-004
      493.68630      0.11130513E-004
      493.86630      0.10950890E-004
      494.04630      0.10772014E-004
      494.22630      0.10593946E-004
      494.40630      0.10416741E-004
      494.58630      0.10240456E-004
      494.76630      0.10065144E-004
      494.94630      0.98908598E-005
      495.12630      0.97176529E-005
      495.30630      0.95455735E-005
      495.48630      0.93746696E-005
      495.66630      0.92049878E-005
      495.84630      0.90365732E-005
      496.02630      0.88694692E-005
      496.20630      0.87037175E-005
      496.38630      0.85393586E-005
      496.56630      0.83764311E-005
      496.74630      0.82149721E-005
      496.92630      0.80550171E-005
      497.10630      0.78966002E-005
      497.28630      0.77397535E-005
      497.46630      0.75845081E-005
      497.64630      0.74308930E-005
      497.82630      0.72789360E-005
      498.00630      0.71286632E-005
      498.18630      0.69800993E-005
      498.36630      0.68332672E-005
      498.54630      0.66881886E-005
      498.72630      0.65448836E-005
      498.90630      0.64033706E-005
      499.08630      0.62636670E-005
      499.26630      0.61257882E-005
      499.44630      0.59897488E-005
      499.62630      0.58555613E-005
      499.80630      0.57232375E-005
      499.98630      0.55927873E-005
      500.16630      0.54642196E-005
      500.34630      0.53375418E-005
      500.52630      0.52127600E-005
      500.70630      0.50898793E-005
      500.88630      0.49689032E-005
      501.06630      0.48498342E-005
      501.24630      0.47326736E-005
      501.42630      0.46174215E-005
      501.60630      0.45040768E-005
      501.78630      0.43926374E-005
      501.96630      0.42831002E-005
      502.14630      0.41754608E-005
      502.32630      0.40697140E-005
      502.50630      0.39658536E-005
      502.68630      0.38638723E-005
      502.86630      0.37637620E-005
      503.04630      0.36655137E-005
      503.22630      0.35691175E-005
      503.40630      0.34745627E-005
      503.58630      0.33818376E-005
      503.76630      0.32909301E-005
      503.94630      0.32018271E-005
      504.12630      0.31145147E-005
      504.30630      0.30289786E-005
      504.48630      0.29452036E-005
      504.66630      0.28631741E-005
      504.84630      0.27828736E-005
      505.02630      0.27042853E-005
      505.20630      0.26273918E-005
      505.38630      0.25521752E-005
      505.56630      0.24786170E-005
      505.74630      0.24066984E-005
      505.92630      0.23364001E-005
      506.10630      0.22677025E-005
      506.28630      0.22005854E-005
      506.46630      0.21350286E-005
      506.64630      0.20710112E-005
      506.82630      0.20085124E-005
      507.00630      0.19475109E-005
      507.18630      0.18879851E-005
      507.36630      0.18299134E-005
      507.54630      0.17732739E-005
      507.72630      0.17180445E-005
      507.90630      0.16642029E-005
      508.08630      0.16117270E-005
      508.26630      0.15605941E-005
      508.44630      0.15107819E-005
      508.62630      0.14622676E-005
      508.80630      0.14150288E-005
      508.98630      0.13690426E-005
      509.16630      0.13242866E-005
      509.34630      0.12807380E-005
      509.52630      0.12383742E-005
      509.70630      0.11971728E-005
      509.88630      0.11571111E-005
      510.06630      0.11181668E-005
      510.24630      0.10803175E-005
      510.42630      0.10435411E-005
      510.60630      0.10078154E-005
      510.78630      0.97311847E-006
      510.96630      0.93942856E-006
      511.14630      0.90672399E-006
      511.32630      0.87498329E-006
      511.50630      0.84418515E-006
      511.68630      0.81430850E-006
      511.86630      0.78533242E-006
      512.04630      0.75723624E-006
      512.22630      0.72999949E-006
      512.40630      0.70360194E-006
      512.58630      0.67802358E-006
      512.76630      0.65324467E-006
      512.94630      0.62924570E-006
      513.12630      0.60600742E-006
      513.30630      0.58351084E-006
      513.48630      0.56173724E-006
      513.66630      0.54066818E-006
      513.84630      0.52028548E-006
      514.02630      0.50057126E-006
      514.20630      0.48150790E-006
      514.38630      0.46307808E-006
      514.56630      0.44526477E-006
      514.74630      0.42805123E-006
      514.92630      0.41142101E-006
      515.10630      0.39535796E-006
      515.28630      0.37984622E-006
      515.46630      0.36487023E-006
      515.64630      0.35041474E-006
      515.82630      0.33646477E-006
      516.00630      0.32300566E-006
      516.18630      0.31002304E-006
      516.36630      0.29750284E-006
      516.54630      0.28543128E-006
      516.72630      0.27379488E-006
      516.90630      0.26258044E-006
      517.08630      0.25177507E-006
      517.26630      0.24136617E-006
      517.44630      0.23134140E-006
      517.62630      0.22168873E-006
      517.80630      0.21239642E-006
      517.98630      0.20345299E-006
      518.16630      0.19484723E-006
      518.34630      0.18656825E-006
      518.52630      0.17860537E-006
      518.70630      0.17094823E-006
      518.88630      0.16358670E-006
      519.06630      0.15651093E-006
      519.24630      0.14971134E-006
      519.42630      0.14317856E-006
      519.60630      0.13690351E-006
      519.78630      0.13087735E-006
      519.96630      0.12509147E-006
      520.14630      0.11953751E-006
      520.32630      0.11420735E-006
      520.50630      0.10909307E-006
      520.68630      0.10418701E-006
      520.86630      0.99481727E-007
      521.04630      0.94969980E-007
      521.22630      0.90644755E-007
      521.40630      0.86499246E-007
      521.58630      0.82526849E-007
      521.76630      0.78721164E-007
      521.94630      0.75075988E-007
      522.12630      0.71585309E-007
      522.30630      0.68243307E-007
      522.48630      0.65044341E-007
      522.66630      0.61982956E-007
      522.84630      0.59053868E-007
      523.02630      0.56251967E-007
      523.20630      0.53572312E-007
      523.38630      0.51010122E-007
      523.56630      0.48560779E-007
      523.74630      0.46219817E-007
      523.92630      0.43982925E-007
      524.10630      0.41845937E-007
      524.28630      0.39804831E-007
      524.46630      0.37855726E-007
      524.64630      0.35994876E-007
      524.82630      0.34218667E-007
      525.00630      0.32523613E-007
      525.18630      0.30906356E-007
      525.36630      0.29363655E-007
      525.54630      0.27892390E-007
      525.72630      0.26489554E-007
      525.90630      0.25152252E-007
      526.08630      0.23877695E-007
      526.26630      0.22663200E-007
      526.44630      0.21506184E-007
      526.62630      0.20404163E-007
      526.80630      0.19354748E-007
      526.98630      0.18355642E-007
      527.16630      0.17404635E-007
      527.34630      0.16499606E-007
      527.52630      0.15638515E-007
      527.70630      0.14819405E-007
      527.88630      0.14040395E-007
      528.06630      0.13299680E-007
      528.24630      0.12595528E-007
      528.42630      0.11926275E-007
      528.60630      0.11290329E-007
      528.78630      0.10686160E-007
      528.96630      0.10112303E-007
      529.14630      0.95673518E-008
      529.32630      0.90499614E-008
      529.50630      0.85588422E-008
      529.68630      0.80927591E-008
      529.86630      0.76505297E-008
      530.04630      0.72310224E-008
      530.22630      0.68331540E-008
      530.40630      0.64558884E-008
      530.58630      0.60982346E-008
      530.76630      0.57592448E-008
      530.94630      0.54380132E-008
      531.12630      0.51336739E-008
      531.30630      0.48453996E-008
      531.48630      0.45724001E-008
      531.66630      0.43139207E-008
      531.84630      0.40692408E-008
      532.02630      0.38376726E-008
      532.20630      0.36185599E-008
      532.38630      0.34112764E-008
      532.56630      0.32152249E-008
      532.74630      0.30298359E-008
      532.92630      0.28545664E-008
      533.10630      0.26888991E-008
      533.28630      0.25323409E-008
      533.46630      0.23844221E-008
      533.64630      0.22446953E-008
      533.82630      0.21127347E-008
      534.00630      0.19881349E-008
      534.18630      0.18705100E-008
      534.36630      0.17594928E-008
      534.54630      0.16547344E-008
      534.72630      0.15559025E-008
      534.90630      0.14626815E-008
      535.08630      0.13747713E-008
      535.26630      0.12918868E-008
      535.44630      0.12137570E-008
      535.62630      0.11401247E-008
      535.80630      0.10707455E-008
      535.98630      0.10053875E-008
      536.16630      0.94383047E-009
      536.34630      0.88586554E-009
      536.52630      0.83129454E-009
      536.70630      0.77992951E-009
      536.88630      0.73159222E-009
      537.06630      0.68611373E-009
      537.24630      0.64333391E-009
      537.42630      0.60310105E-009
      537.60630      0.56527141E-009
      537.78630      0.52970890E-009
      537.96630      0.49628462E-009
      538.14630      0.46487658E-009
      538.32630      0.43536932E-009
      538.50630      0.40765360E-009
      538.68630      0.38162607E-009
      538.86630      0.35718902E-009
      539.04630      0.33425004E-009
      539.22630      0.31272179E-009
      539.40630      0.29252172E-009
      539.58630      0.27357184E-009
      539.76630      0.25579849E-009
      539.94630      0.23913209E-009
      540.12630      0.22350696E-009
      540.30630      0.20886109E-009
      540.48630      0.19513597E-009
      540.66630      0.18227639E-009
      540.84630      0.17023029E-009
      541.02630      0.15894854E-009
      541.20630      0.14838484E-009
      541.38630      0.13849556E-009
      541.56630      0.12923956E-009
      541.74630      0.12057809E-009
      541.92630      0.11247464E-009
      542.10630      0.10489484E-009
      542.28630      0.97806330E-010
      542.46630      0.91178637E-010
      542.64630      0.84983092E-010
      542.82630      0.79192721E-010
      543.00630      0.73782150E-010
      543.18630      0.68727517E-010
      543.36630      0.64006385E-010
      543.54630      0.59597666E-010
      543.72630      0.55481540E-010
      543.90630      0.51639386E-010
      544.08630      0.48053711E-010
      544.26630      0.44708088E-010
      544.44630      0.41587093E-010
      544.62630      0.38676248E-010
      544.80630      0.35961965E-010
      544.98630      0.33431494E-010
      545.16630      0.31072877E-010
      545.34630      0.28874898E-010
      545.52630      0.26827039E-010
      545.70630      0.24919443E-010
      545.88630      0.23142871E-010
      546.06630      0.21488665E-010
      546.24630      0.19948715E-010
      546.42630      0.18515427E-010
      546.60630      0.17181689E-010
      546.78630      0.15940842E-010
      546.96630      0.14786656E-010
      547.14630      0.13713300E-010
      547.32630      0.12715321E-010
      547.50630      0.11787615E-010
      547.68630      0.10925413E-010
      547.86630      0.10124256E-010
      548.04630      0.93799740E-011
      548.22630      0.86886735E-011
      548.40630      0.80467150E-011
      548.58630      0.74506998E-011
      548.76630      0.68974540E-011
      548.94630      0.63840145E-011
      549.12630      0.59076155E-011
      549.30630      0.54656760E-011
      549.48630      0.50557879E-011
      549.66630      0.46757051E-011
      549.84630      0.43233329E-011
      550.02630      0.39967184E-011
      550.20630      0.36940411E-011
      550.38630      0.34136045E-011
      550.56630      0.31538279E-011
      550.74630      0.29132387E-011
      550.92630      0.26904657E-011
      551.10630      0.24842320E-011
      551.28630      0.22933490E-011
      551.46630      0.21167104E-011
      551.64630      0.19532870E-011
      551.82630      0.18021211E-011
      552.00630      0.16623221E-011
      552.18630      0.15330619E-011
      552.36630      0.14135706E-011
      552.54630      0.13031326E-011
      552.72630      0.12010831E-011
      552.90630      0.11068041E-011
      553.08630      0.10197220E-011
      553.26630      0.93930392E-012
      553.44630      0.86505510E-012
      553.62630      0.79651638E-012
      553.80630      0.73326162E-012
      553.98630      0.67489545E-012
      554.16630      0.62105112E-012
      554.34630      0.57138851E-012
      554.52630      0.52559226E-012
      554.70630      0.48337003E-012
      554.88630      0.44445089E-012
      555.06630      0.40858381E-012
      555.24630      0.37553621E-012
      555.42630      0.34509272E-012
      555.60630      0.31705388E-012
      555.78630      0.29123506E-012
      555.96630      0.26746535E-012
      556.14630      0.24558663E-012
      556.32630      0.22545258E-012
      556.50630      0.20692788E-012
      556.68630      0.18988738E-012
      556.86630      0.17421538E-012
      557.04630      0.15980494E-012
      557.22630      0.14655722E-012
      557.40630      0.13438089E-012
      557.58630      0.12319161E-012
      557.76630      0.11291147E-012
      557.94630      0.10346853E-012
      558.12630      0.94796390E-013
      558.30630      0.86833764E-013
      558.48630      0.79524099E-013
      558.66630      0.72815224E-013
      558.84630      0.66659021E-013
      559.02630      0.61011116E-013
      559.20630      0.55830602E-013
      559.38630      0.51079773E-013
      559.56630      0.46723881E-013
      559.74630      0.42730912E-013
      559.92630      0.39071378E-013
      560.10630      0.35718119E-013
      560.28630      0.32646133E-013
      560.46630      0.29832402E-013
      560.64630      0.27255741E-013
      560.82630      0.24896658E-013
      561.00630      0.22737224E-013
      561.18630      0.20760945E-013
      561.36630      0.18952657E-013
      561.54630      0.17298418E-013
      561.72630      0.15785414E-013
      561.90630      0.14401870E-013
      562.08630      0.13136966E-013
      562.26630      0.11980766E-013
      562.44630      0.10924143E-013
      562.62630      0.99587192E-014
      562.80630      0.90768028E-014
      562.98630      0.82713351E-014
      563.16630      0.75358394E-014
      563.34630      0.68643743E-014
      563.52630      0.62514906E-014
      563.70630      0.56921916E-014
      563.88630      0.51818966E-014
      564.06630      0.47164070E-014
      564.24630      0.42918755E-014
      564.42630      0.39047772E-014
      564.60630      0.35518834E-014
      564.78630      0.32302374E-014
      564.96630      0.29371322E-014
      565.14630      0.26700897E-014
      565.32630      0.24268421E-014
      565.50630      0.22053142E-014
      565.68630      0.20036079E-014
      565.86630      0.18199871E-014
      566.04630      0.16528642E-014
      566.22630      0.15007880E-014
      566.40630      0.13624320E-014
      566.58630      0.12365840E-014
      566.76630      0.11221365E-014
      566.94630      0.10180781E-014
      567.12630      0.92348486E-015
      567.30630      0.83751342E-015
      567.48630      0.75939385E-015
      567.66630      0.68842348E-015
      567.84630      0.62396120E-015
      568.02630      0.56542211E-015
      568.20630      0.51227281E-015
      568.38630      0.46402686E-015
      568.56630      0.42024082E-015
      568.74630      0.38051051E-015
      568.92630      0.34446760E-015
      569.10630      0.31177653E-015
