      396.42210       16.078507     
      396.60210       16.196675     
      396.78210       16.313355     
      396.96210       16.428489     
      397.14210       16.542017     
      397.32210       16.653881     
      397.50210       16.764023     
      397.68210       16.872385     
      397.86210       16.978910     
      398.04210       17.083542     
      398.22210       17.186226     
      398.40210       17.286906     
      398.58210       17.385528     
      398.76210       17.482039     
      398.94210       17.576387     
      399.12210       17.668521     
      399.30210       17.758390     
      399.48210       17.845944     
      399.66210       17.931136     
      399.84210       18.013919     
      400.02210       18.094245     
      400.20210       18.172071     
      400.38210       18.247352     
      400.56210       18.320047     
      400.74210       18.390114     
      400.92210       18.457513     
      401.10210       18.522207     
      401.28210       18.584159     
      401.46210       18.643332     
      401.64210       18.699694     
      401.82210       18.753211     
      402.00210       18.803853     
      402.18210       18.851590     
      402.36210       18.896395     
      402.54210       18.938242     
      402.72210       18.977106     
      402.90210       19.012965     
      403.08210       19.045797     
      403.26210       19.075583     
      403.44210       19.102306     
      403.62210       19.125950     
      403.80210       19.146500     
      403.98210       19.163945     
      404.16210       19.178273     
      404.34210       19.189477     
      404.52210       19.197549     
      404.70210       19.202484     
      404.88210       19.204279     
      405.06210       19.202932     
      405.24210       19.198445     
      405.42210       19.190819     
      405.60210       19.180058     
      405.78210       19.166169     
      405.96210       19.149158     
      406.14210       19.129036     
      406.32210       19.105814     
      406.50210       19.079505     
      406.68210       19.050123     
      406.86210       19.017686     
      407.04210       18.982213     
      407.22210       18.943722     
      407.40210       18.902237     
      407.58210       18.857780     
      407.76210       18.810378     
      407.94210       18.760056     
      408.12210       18.706844     
      408.30210       18.650772     
      408.48210       18.591871     
      408.66210       18.530176     
      408.84210       18.465720     
      409.02210       18.398540     
      409.20210       18.328674     
      409.38210       18.256161     
      409.56210       18.181042     
      409.74210       18.103359     
      409.92210       18.023155     
      410.10210       17.940475     
      410.28210       17.855364     
      410.46210       17.767869     
      410.64210       17.678039     
      410.82210       17.585923     
      411.00210       17.491572     
      411.18210       17.395036     
      411.36210       17.296369     
      411.54210       17.195623     
      411.72210       17.092853     
      411.90210       16.988114     
      412.08210       16.881462     
      412.26210       16.772953     
      412.44210       16.662645     
      412.62210       16.550596     
      412.80210       16.436865     
      412.98210       16.321511     
      413.16210       16.204594     
      413.34210       16.086173     
      413.52210       15.966311     
      413.70210       15.845066     
      413.88210       15.722502     
      414.06210       15.598680     
      414.24210       15.473661     
      414.42210       15.347508     
      414.60210       15.220283     
      414.78210       15.092049     
      414.96210       14.962866     
      415.14210       14.832799     
      415.32210       14.701909     
      415.50210       14.570258     
      415.68210       14.437909     
      415.86210       14.304924     
      416.04210       14.171363     
      416.22210       14.037289     
      416.40210       13.902762     
      416.58210       13.767843     
      416.76210       13.632593     
      416.94210       13.497071     
      417.12210       13.361337     
      417.30210       13.225450     
      417.48210       13.089467     
      417.66210       12.953447     
      417.84210       12.817447     
      418.02210       12.681523     
      418.20210       12.545731     
      418.38210       12.410126     
      418.56210       12.274761     
      418.74210       12.139692     
      418.92210       12.004969     
      419.10210       11.870646     
      419.28210       11.736772     
      419.46210       11.603398     
      419.64210       11.470573     
      419.82210       11.338345     
      420.00210       11.206761     
      420.18210       11.075866     
      420.36210       10.945707     
      420.54210       10.816328     
      420.72210       10.687770     
      420.90210       10.560076     
      421.08210       10.433288     
      421.26210       10.307443     
      421.44210       10.182582     
      421.62210       10.058741     
      421.80210       9.9359572     
      421.98210       9.8142649     
      422.16210       9.6936983     
      422.34210       9.5742901     
      422.52210       9.4560720     
      422.70210       9.3390742     
      422.88210       9.2233259     
      423.06210       9.1088550     
      423.24210       8.9956884     
      423.42210       8.8838515     
      423.60210       8.7733687     
      423.78210       8.6642631     
      423.96210       8.5565565     
      424.14210       8.4502698     
      424.32210       8.3454223     
      424.50210       8.2420324     
      424.68210       8.1401172     
      424.86210       8.0396925     
      425.04210       7.9407731     
      425.22210       7.8433726     
      425.40210       7.7475032     
      425.58210       7.6531762     
      425.76210       7.5604017     
      425.94210       7.4691886     
      426.12210       7.3795446     
      426.30210       7.2914765     
      426.48210       7.2049897     
      426.66210       7.1200888     
      426.84210       7.0367771     
      427.02210       6.9550570     
      427.20210       6.8749297     
      427.38210       6.7963954     
      427.56210       6.7194534     
      427.74210       6.6441018     
      427.92210       6.5703380     
      428.10210       6.4981581     
      428.28210       6.4275574     
      428.46210       6.3585304     
      428.64210       6.2910704     
      428.82210       6.2251701     
      429.00210       6.1608210     
      429.18210       6.0980141     
      429.36210       6.0367393     
      429.54210       5.9769858     
      429.72210       5.9187419     
      429.90210       5.8619953     
      430.08210       5.8067327     
      430.26210       5.7529404     
      430.44210       5.7006036     
      430.62210       5.6497071     
      430.80210       5.6002349     
      430.98210       5.5521705     
      431.16210       5.5054964     
      431.34210       5.4601950     
      431.52210       5.4162478     
      431.70210       5.3736358     
      431.88210       5.3323394     
      432.06210       5.2923387     
      432.24210       5.2536130     
      432.42210       5.2161413     
      432.60210       5.1799023     
      432.78210       5.1448740     
      432.96210       5.1110340     
      433.14210       5.0783598     
      433.32210       5.0468282     
      433.50210       5.0164160     
      433.68210       4.9870993     
      433.86210       4.9588541     
      434.04210       4.9316562     
      434.22210       4.9054811     
      434.40210       4.8803040     
      434.58210       4.8560998     
      434.76210       4.8328434     
      434.94210       4.8105094     
      435.12210       4.7890724     
      435.30210       4.7685067     
      435.48210       4.7487866     
      435.66210       4.7298862     
      435.84210       4.7117795     
      436.02210       4.6944408     
      436.20210       4.6778438     
      436.38210       4.6619627     
      436.56210       4.6467714     
      436.74210       4.6322439     
      436.92210       4.6183542     
      437.10210       4.6050766     
      437.28210       4.5923851     
      437.46210       4.5802541     
      437.64210       4.5686579     
      437.82210       4.5575711     
      438.00210       4.5469682     
      438.18210       4.5368242     
      438.36210       4.5271140     
      438.54210       4.5178127     
      438.72210       4.5088959     
      438.90210       4.5003390     
      439.08210       4.4921180     
      439.26210       4.4842089     
      439.44210       4.4765881     
      439.62210       4.4692321     
      439.80210       4.4621180     
      439.98210       4.4552230     
      440.16210       4.4485245     
      440.34210       4.4420006     
      440.52210       4.4356292     
      440.70210       4.4293891     
      440.88210       4.4232592     
      441.06210       4.4172187     
      441.24210       4.4112473     
      441.42210       4.4053251     
      441.60210       4.3994326     
      441.78210       4.3935506     
      441.96210       4.3876605     
      442.14210       4.3817440     
      442.32210       4.3757832     
      442.50210       4.3697608     
      442.68210       4.3636599     
      442.86210       4.3574640     
      443.04210       4.3511570     
      443.22210       4.3447236     
      443.40210       4.3381485     
      443.58210       4.3314174     
      443.76210       4.3245160     
      443.94210       4.3174309     
      444.12210       4.3101489     
      444.30210       4.3026575     
      444.48210       4.2949446     
      444.66210       4.2869987     
      444.84210       4.2788087     
      445.02210       4.2703640     
      445.20210       4.2616548     
      445.38210       4.2526715     
      445.56210       4.2434051     
      445.74210       4.2338472     
      445.92210       4.2239898     
      446.10210       4.2138257     
      446.28210       4.2033478     
      446.46210       4.1925499     
      446.64210       4.1814261     
      446.82210       4.1699711     
      447.00210       4.1581801     
      447.18210       4.1460489     
      447.36210       4.1335737     
      447.54210       4.1207512     
      447.72210       4.1075787     
      447.90210       4.0940541     
      448.08210       4.0801754     
      448.26210       4.0659417     
      448.44210       4.0513520     
      448.62210       4.0364062     
      448.80210       4.0211045     
      448.98210       4.0054476     
      449.16210       3.9894368     
      449.34210       3.9730736     
      449.52210       3.9563604     
      449.70210       3.9392995     
      449.88210       3.9218941     
      450.06210       3.9041476     
      450.24210       3.8860640     
      450.42210       3.8676476     
      450.60210       3.8489032     
      450.78210       3.8298359     
      450.96210       3.8104514     
      451.14210       3.7907556     
      451.32210       3.7707549     
      451.50210       3.7504560     
      451.68210       3.7298661     
      451.86210       3.7089926     
      452.04210       3.6878433     
      452.22210       3.6664265     
      452.40210       3.6447506     
      452.58210       3.6228244     
      452.76210       3.6006571     
      452.94210       3.5782582     
      453.12210       3.5556372     
      453.30210       3.5328043     
      453.48210       3.5097697     
      453.66210       3.4865440     
      453.84210       3.4631378     
      454.02210       3.4395623     
      454.20210       3.4158286     
      454.38210       3.3919483     
      454.56210       3.3679328     
      454.74210       3.3437942     
      454.92210       3.3195444     
      455.10210       3.2951956     
      455.28210       3.2707600     
      455.46210       3.2462503     
      455.64210       3.2216791     
      455.82210       3.1970589     
      456.00210       3.1724028     
      456.18210       3.1477236     
      456.36210       3.1230343     
      456.54210       3.0983481     
      456.72210       3.0736780     
      456.90210       3.0490373     
      457.08210       3.0244393     
      457.26210       2.9998971     
      457.44210       2.9754240     
      457.62210       2.9510334     
      457.80210       2.9267384     
      457.98210       2.9025524     
      458.16210       2.8784884     
      458.34210       2.8545598     
      458.52210       2.8307795     
      458.70210       2.8071606     
      458.88210       2.7837161     
      459.06210       2.7604588     
      459.24210       2.7374016     
      459.42210       2.7145570     
      459.60210       2.6919375     
      459.78210       2.6695557     
      459.96210       2.6474237     
      460.14210       2.6255536     
      460.32210       2.6039573     
      460.50210       2.5826467     
      460.68210       2.5616333     
      460.86210       2.5409285     
      461.04210       2.5205434     
      461.22210       2.5004891     
      461.40210       2.4807763     
      461.58210       2.4614154     
      461.76210       2.4424168     
      461.94210       2.4237905     
      462.12210       2.4055462     
      462.30210       2.3876936     
      462.48210       2.3702417     
      462.66210       2.3531996     
      462.84210       2.3365759     
      463.02210       2.3203791     
      463.20210       2.3046171     
      463.38210       2.2892977     
      463.56210       2.2744285     
      463.74210       2.2600164     
      463.92210       2.2460684     
      464.10210       2.2325909     
      464.28210       2.2195900     
      464.46210       2.2070715     
      464.64210       2.1950408     
      464.82210       2.1835030     
      465.00210       2.1724629     
      465.18210       2.1619249     
      465.36210       2.1518928     
      465.54210       2.1423703     
      465.72210       2.1333608     
      465.90210       2.1248670     
      466.08210       2.1168915     
      466.26210       2.1094364     
      466.44210       2.1025035     
      466.62210       2.0960940     
      466.80210       2.0902089     
      466.98210       2.0848489     
      467.16210       2.0800140     
      467.34210       2.0757041     
      467.52210       2.0719187     
      467.70210       2.0686566     
      467.88210       2.0659166     
      468.06210       2.0636968     
      468.24210       2.0619952     
      468.42210       2.0608090     
      468.60210       2.0601356     
      468.78210       2.0599714     
      468.96210       2.0603128     
      469.14210       2.0611557     
      469.32210       2.0624957     
      469.50210       2.0643279     
      469.68210       2.0666471     
      469.86210       2.0694478     
      470.04210       2.0727239     
      470.22210       2.0764692     
      470.40210       2.0806770     
      470.58210       2.0853403     
      470.76210       2.0904518     
      470.94210       2.0960036     
      471.12210       2.1019878     
      471.30210       2.1083961     
      471.48210       2.1152196     
      471.66210       2.1224495     
      471.84210       2.1300763     
      472.02210       2.1380904     
      472.20210       2.1464819     
      472.38210       2.1552406     
      472.56210       2.1643559     
      472.74210       2.1738171     
      472.92210       2.1836131     
      473.10210       2.1937326     
      473.28210       2.2041641     
      473.46210       2.2148957     
      473.64210       2.2259154     
      473.82210       2.2372110     
      474.00210       2.2487700     
      474.18210       2.2605796     
      474.36210       2.2726271     
      474.54210       2.2848994     
      474.72210       2.2973831     
      474.90210       2.3100651     
      475.08210       2.3229316     
      475.26210       2.3359690     
      475.44210       2.3491635     
      475.62210       2.3625011     
      475.80210       2.3759677     
      475.98210       2.3895493     
      476.16210       2.4032315     
      476.34210       2.4170000     
      476.52210       2.4308405     
      476.70210       2.4447385     
      476.88210       2.4586795     
      477.06210       2.4726489     
      477.24210       2.4866324     
      477.42210       2.5006152     
      477.60210       2.5145829     
      477.78210       2.5285210     
      477.96210       2.5424149     
      478.14210       2.5562502     
      478.32210       2.5700125     
      478.50210       2.5836874     
      478.68210       2.5972607     
      478.86210       2.6107181     
      479.04210       2.6240457     
      479.22210       2.6372293     
      479.40210       2.6502552     
      479.58210       2.6631096     
      479.76210       2.6757789     
      479.94210       2.6882498     
      480.12210       2.7005088     
      480.30210       2.7125429     
      480.48210       2.7243393     
      480.66210       2.7358851     
      480.84210       2.7471679     
      481.02210       2.7581754     
      481.20210       2.7688954     
      481.38210       2.7793163     
      481.56210       2.7894263     
      481.74210       2.7992141     
      481.92210       2.8086687     
      482.10210       2.8177791     
      482.28210       2.8265351     
      482.46210       2.8349261     
      482.64210       2.8429424     
      482.82210       2.8505742     
      483.00210       2.8578123     
      483.18210       2.8646476     
      483.36210       2.8710714     
      483.54210       2.8770753     
      483.72210       2.8826514     
      483.90210       2.8877919     
      484.08210       2.8924894     
      484.26210       2.8967371     
      484.44210       2.9005282     
      484.62210       2.9038565     
      484.80210       2.9067161     
      484.98210       2.9091013     
      485.16210       2.9110072     
      485.34210       2.9124288     
      485.52210       2.9133617     
      485.70210       2.9138020     
      485.88210       2.9137458     
      486.06210       2.9131901     
      486.24210       2.9121318     
      486.42210       2.9105685     
      486.60210       2.9084980     
      486.78210       2.9059186     
      486.96210       2.9028289     
      487.14210       2.8992280     
      487.32210       2.8951152     
      487.50210       2.8904904     
      487.68210       2.8853537     
      487.86210       2.8797057     
      488.04210       2.8735472     
      488.22210       2.8668796     
      488.40210       2.8597045     
      488.58210       2.8520239     
      488.76210       2.8438403     
      488.94210       2.8351562     
      489.12210       2.8259749     
      489.30210       2.8162997     
      489.48210       2.8061345     
      489.66210       2.7954832     
      489.84210       2.7843505     
      490.02210       2.7727409     
      490.20210       2.7606596     
      490.38210       2.7481119     
      490.56210       2.7351036     
      490.74210       2.7216406     
      490.92210       2.7077293     
      491.10210       2.6933760     
      491.28210       2.6785878     
      491.46210       2.6633716     
      491.64210       2.6477348     
      491.82210       2.6316851     
      492.00210       2.6152301     
      492.18210       2.5983781     
      492.36210       2.5811373     
      492.54210       2.5635162     
      492.72210       2.5455234     
      492.90210       2.5271680     
      493.08210       2.5084589     
      493.26210       2.4894055     
      493.44210       2.4700171     
      493.62210       2.4503034     
      493.80210       2.4302741     
      493.98210       2.4099390     
      494.16210       2.3893081     
      494.34210       2.3683916     
      494.52210       2.3471996     
      494.70210       2.3257425     
      494.88210       2.3040307     
      495.06210       2.2820746     
      495.24210       2.2598848     
      495.42210       2.2374719     
      495.60210       2.2148466     
      495.78210       2.1920195     
      495.96210       2.1690014     
      496.14210       2.1458030     
      496.32210       2.1224351     
      496.50210       2.0989084     
      496.68210       2.0752337     
      496.86210       2.0514216     
      497.04210       2.0274830     
      497.22210       2.0034284     
      497.40210       1.9792685     
      497.58210       1.9550139     
      497.76210       1.9306751     
      497.94210       1.9062625     
      498.12210       1.8817865     
      498.30210       1.8572574     
      498.48210       1.8326854     
      498.66210       1.8080806     
      498.84210       1.7834530     
      499.02210       1.7588125     
      499.20210       1.7341688     
      499.38210       1.7095315     
      499.56210       1.6849103     
      499.74210       1.6603144     
      499.92210       1.6357531     
      500.10210       1.6112354     
      500.28210       1.5867703     
      500.46210       1.5623665     
      500.64210       1.5380327     
      500.82210       1.5137772     
      501.00210       1.4896084     
      501.18210       1.4655343     
      501.36210       1.4415628     
      501.54210       1.4177016     
      501.72210       1.3939583     
      501.90210       1.3703402     
      502.08210       1.3468544     
      502.26210       1.3235079     
      502.44210       1.3003075     
      502.62210       1.2772597     
      502.80210       1.2543708     
      502.98210       1.2316469     
      503.16210       1.2090941     
      503.34210       1.1867181     
      503.52210       1.1645243     
      503.70210       1.1425182     
      503.88210       1.1207047     
      504.06210       1.0990889     
      504.24210       1.0776753     
      504.42210       1.0564685     
      504.60210       1.0354728     
      504.78210       1.0146922     
      504.96210      0.99413058     
      505.14210      0.97379160     
      505.32210      0.95367870     
      505.50210      0.93379514     
      505.68210      0.91414396     
      505.86210      0.89472801     
      506.04210      0.87554993     
      506.22210      0.85661217     
      506.40210      0.83791700     
      506.58210      0.81946648     
      506.76210      0.80126248     
      506.94210      0.78330671     
      507.12210      0.76560066     
      507.30210      0.74814567     
      507.48210      0.73094288     
      507.66210      0.71399327     
      507.84210      0.69729763     
      508.02210      0.68085662     
      508.20210      0.66467069     
      508.38210      0.64874015     
      508.56210      0.63306517     
      508.74210      0.61764572     
      508.92210      0.60248167     
      509.10210      0.58757270     
      509.28210      0.57291839     
      509.46210      0.55851814     
      509.64210      0.54437123     
      509.82210      0.53047683     
      510.00210      0.51683395     
      510.18210      0.50344150     
      510.36210      0.49029825     
      510.54210      0.47740288     
      510.72210      0.46475394     
      510.90210      0.45234988     
      511.08210      0.44018904     
      511.26210      0.42826968     
      511.44210      0.41658993     
      511.62210      0.40514787     
      511.80210      0.39394146     
      511.98210      0.38296859     
      512.16210      0.37222709     
      512.34210      0.36171467     
      512.52210      0.35142902     
      512.70210      0.34136771     
      512.88210      0.33152830     
      513.06210      0.32190825     
      513.24210      0.31250497     
      513.42210      0.30331584     
      513.60210      0.29433816     
      513.78210      0.28556922     
      513.96210      0.27700623     
      514.14210      0.26864639     
      514.32210      0.26048686     
      514.50210      0.25252475     
      514.68210      0.24475715     
      514.86210      0.23718115     
      515.04210      0.22979378     
      515.22210      0.22259207     
      515.40210      0.21557303     
      515.58210      0.20873366     
      515.76210      0.20207094     
      515.94210      0.19558186     
      516.12210      0.18926338     
      516.30210      0.18311247     
      516.48210      0.17712611     
      516.66210      0.17130126     
      516.84210      0.16563490     
      517.02210      0.16012401     
      517.20210      0.15476558     
      517.38210      0.14955661     
      517.56210      0.14449412     
      517.74210      0.13957513     
      517.92210      0.13479668     
      518.10210      0.13015585     
      518.28210      0.12564971     
      518.46210      0.12127537     
      518.64210      0.11702996     
      518.82210      0.11291062     
      519.00210      0.10891454     
      519.18210      0.10503891     
      519.36210      0.10128098     
      519.54210      0.97637999E-001
      519.72210      0.94107269E-001
      519.90210      0.90686111E-001
      520.08210      0.87371882E-001
      520.26210      0.84161975E-001
      520.44210      0.81053814E-001
      520.62210      0.78044859E-001
      520.80210      0.75132606E-001
      520.98210      0.72314588E-001
      521.16210      0.69588373E-001
      521.34210      0.66951570E-001
      521.52210      0.64401821E-001
      521.70210      0.61936812E-001
      521.88210      0.59554262E-001
      522.06210      0.57251933E-001
      522.24210      0.55027626E-001
      522.42210      0.52879178E-001
      522.60210      0.50804471E-001
      522.78210      0.48801421E-001
      522.96210      0.46867989E-001
      523.14210      0.45002171E-001
      523.32210      0.43202007E-001
      523.50210      0.41465575E-001
      523.68210      0.39790992E-001
      523.86210      0.38176415E-001
      524.04210      0.36620041E-001
      524.22210      0.35120106E-001
      524.40210      0.33674884E-001
      524.58210      0.32282690E-001
      524.76210      0.30941874E-001
      524.94210      0.29650828E-001
      525.12210      0.28407980E-001
      525.30210      0.27211794E-001
      525.48210      0.26060773E-001
      525.66210      0.24953458E-001
      525.84210      0.23888423E-001
      526.02210      0.22864279E-001
      526.20210      0.21879675E-001
      526.38210      0.20933291E-001
      526.56210      0.20023845E-001
      526.74210      0.19150087E-001
      526.92210      0.18310800E-001
      527.10210      0.17504801E-001
      527.28210      0.16730941E-001
      527.46210      0.15988100E-001
      527.64210      0.15275190E-001
      527.82210      0.14591157E-001
      528.00210      0.13934973E-001
      528.18210      0.13305642E-001
      528.36210      0.12702197E-001
      528.54210      0.12123699E-001
      528.72210      0.11569238E-001
      528.90210      0.11037931E-001
      529.08210      0.10528922E-001
      529.26210      0.10041380E-001
      529.44210      0.95745033E-002
      529.62210      0.91275115E-002
      529.80210      0.86996509E-002
      529.98210      0.82901916E-002
      530.16210      0.78984272E-002
      530.34210      0.75236740E-002
      530.52210      0.71652711E-002
      530.70210      0.68225792E-002
      530.88210      0.64949804E-002
      531.06210      0.61818778E-002
      531.24210      0.58826944E-002
      531.42210      0.55968731E-002
      531.60210      0.53238761E-002
      531.78210      0.50631842E-002
      531.96210      0.48142962E-002
      532.14210      0.45767290E-002
      532.32210      0.43500164E-002
      532.50210      0.41337089E-002
      532.68210      0.39273734E-002
      532.86210      0.37305924E-002
      533.04210      0.35429638E-002
      533.22210      0.33641002E-002
      533.40210      0.31936288E-002
      533.58210      0.30311907E-002
      533.76210      0.28764404E-002
      533.94210      0.27290457E-002
      534.12210      0.25886870E-002
      534.30210      0.24550570E-002
      534.48210      0.23278603E-002
      534.66210      0.22068131E-002
      534.84210      0.20916427E-002
      535.02210      0.19820872E-002
      535.20210      0.18778950E-002
      535.38210      0.17788248E-002
      535.56210      0.16846447E-002
      535.74210      0.15951326E-002
      535.92210      0.15100752E-002
      536.10210      0.14292679E-002
      536.28210      0.13525147E-002
      536.46210      0.12796279E-002
      536.64210      0.12104272E-002
      536.82210      0.11447403E-002
      537.00210      0.10824019E-002
      537.18210      0.10232540E-002
      537.36210      0.96714509E-003
      537.54210      0.91393041E-003
      537.72210      0.86347135E-003
      537.90210      0.81563535E-003
      538.08210      0.77029566E-003
      538.26210      0.72733111E-003
      538.44210      0.68662590E-003
      538.62210      0.64806938E-003
      538.80210      0.61155585E-003
      538.98210      0.57698437E-003
      539.16210      0.54425858E-003
      539.34210      0.51328647E-003
      539.52210      0.48398027E-003
      539.70210      0.45625622E-003
      539.88210      0.43003444E-003
      540.06210      0.40523877E-003
      540.24210      0.38179658E-003
      540.42210      0.35963868E-003
      540.60210      0.33869911E-003
      540.78210      0.31891505E-003
      540.96210      0.30022668E-003
      541.14210      0.28257702E-003
      541.32210      0.26591187E-003
      541.50210      0.25017960E-003
      541.68210      0.23533113E-003
      541.86210      0.22131974E-003
      542.04210      0.20810104E-003
      542.22210      0.19563278E-003
      542.40210      0.18387485E-003
      542.58210      0.17278909E-003
      542.76210      0.16233928E-003
      542.94210      0.15249100E-003
      543.12210      0.14321158E-003
      543.30210      0.13446998E-003
      543.48210      0.12623676E-003
      543.66210      0.11848399E-003
      543.84210      0.11118515E-003
      544.02210      0.10431511E-003
      544.20210      0.97850023E-004
      544.38210      0.91767302E-004
      544.56210      0.86045527E-004
      544.74210      0.80664405E-004
      544.92210      0.75604714E-004
      545.10210      0.70848248E-004
      545.28210      0.66377771E-004
      545.46210      0.62176964E-004
      545.64210      0.58230386E-004
      545.82210      0.54523424E-004
      546.00210      0.51042259E-004
      546.18210      0.47773818E-004
      546.36210      0.44705743E-004
      546.54210      0.41826352E-004
      546.72210      0.39124604E-004
      546.90210      0.36590070E-004
      547.08210      0.34212894E-004
      547.26210      0.31983774E-004
      547.44210      0.29893921E-004
      547.62210      0.27935045E-004
      547.80210      0.26099319E-004
      547.98210      0.24379358E-004
      548.16210      0.22768199E-004
      548.34210      0.21259271E-004
      548.52210      0.19846384E-004
      548.70210      0.18523698E-004
      548.88210      0.17285713E-004
      549.06210      0.16127247E-004
      549.24210      0.15043415E-004
      549.42210      0.14029622E-004
      549.60210      0.13081538E-004
      549.78210      0.12195088E-004
      549.96210      0.11366437E-004
      550.14210      0.10591979E-004
      550.32210      0.98683182E-005
      550.50210      0.91922641E-005
      550.68210      0.85608155E-005
      550.86210      0.79711520E-005
      551.04210      0.74206226E-005
      551.22210      0.69067368E-005
      551.40210      0.64271549E-005
      551.58210      0.59796798E-005
      551.76210      0.55622486E-005
      551.94210      0.51729249E-005
      552.12210      0.48098911E-005
      552.30210      0.44714422E-005
      552.48210      0.41559786E-005
      552.66210      0.38620002E-005
      552.84210      0.35881003E-005
      553.02210      0.33329605E-005
      553.20210      0.30953450E-005
      553.38210      0.28740960E-005
      553.56210      0.26681287E-005
      553.74210      0.24764272E-005
      553.92210      0.22980405E-005
      554.10210      0.21320780E-005
      554.28210      0.19777064E-005
      554.46210      0.18341457E-005
      554.64210      0.17006665E-005
      554.82210      0.15765864E-005
      555.00210      0.14612674E-005
      555.18210      0.13541131E-005
      555.36210      0.12545659E-005
      555.54210      0.11621048E-005
      555.72210      0.10762433E-005
      555.90210      0.99652661E-006
      556.08210      0.92253032E-006
      556.26210      0.85385809E-006
      556.44210      0.79014001E-006
      556.62210      0.73103087E-006
      556.80210      0.67620858E-006
      556.98210      0.62537274E-006
      557.16210      0.57824317E-006
      557.34210      0.53455868E-006
      557.52210      0.49407578E-006
      557.70210      0.45656755E-006
      557.88210      0.42182258E-006
      558.06210      0.38964392E-006
      558.24210      0.35984817E-006
      558.42210      0.33226454E-006
      558.60210      0.30673405E-006
      558.78210      0.28310875E-006
      558.96210      0.26125096E-006
      559.14210      0.24103261E-006
      559.32210      0.22233458E-006
      559.50210      0.20504610E-006
      559.68210      0.18906421E-006
      559.86210      0.17429320E-006
      560.04210      0.16064414E-006
      560.22210      0.14803439E-006
      560.40210      0.13638721E-006
      560.58210      0.12563133E-006
      560.76210      0.11570060E-006
      560.94210      0.10653359E-006
      561.12210      0.98073299E-007
      561.30210      0.90266860E-007
      561.48210      0.83065213E-007
      561.66210      0.76422869E-007
      561.84210      0.70297648E-007
      562.02210      0.64650450E-007
      562.20210      0.59445039E-007
      562.38210      0.54647838E-007
      562.56210      0.50227742E-007
      562.74210      0.46155943E-007
      562.92210      0.42405765E-007
      563.10210      0.38952513E-007
      563.28210      0.35773330E-007
      563.46210      0.32847064E-007
      563.64210      0.30154147E-007
      563.82210      0.27676479E-007
      564.00210      0.25397323E-007
      564.18210      0.23301203E-007
      564.36210      0.21373815E-007
      564.54210      0.19601940E-007
      564.72210      0.17973363E-007
      564.90210      0.16476804E-007
      565.08210      0.15101841E-007
      565.26210      0.13838853E-007
      565.44210      0.12678960E-007
      565.62210      0.11613964E-007
      565.80210      0.10636300E-007
      565.98210      0.97389923E-008
      566.16210      0.89156038E-008
      566.34210      0.81602000E-008
      566.52210      0.74673094E-008
      566.70210      0.68318889E-008
      566.88210      0.62492909E-008
      567.06210      0.57152338E-008
      567.24210      0.52257732E-008
      567.42210      0.47772769E-008
      567.60210      0.43664006E-008
      567.78210      0.39900657E-008
      567.96210      0.36454389E-008
      568.14210      0.33299131E-008
      568.32210      0.30410900E-008
      568.50210      0.27767639E-008
      568.68210      0.25349065E-008
      568.86210      0.23136530E-008
      569.04210      0.21112896E-008
      569.22210      0.19262414E-008
      569.40210      0.17570613E-008
      569.58210      0.16024202E-008
      569.76210      0.14610976E-008
      569.94210      0.13319727E-008
      570.12210      0.12140169E-008
      570.30210      0.11062861E-008
      570.48210      0.10079140E-008
      570.66210      0.91810592E-009
      570.84210      0.83613309E-009
      571.02210      0.76132719E-009
      571.20210      0.69307554E-009
      571.38210      0.63081659E-009
      571.56210      0.57403576E-009
      571.74210      0.52226159E-009
      571.92210      0.47506226E-009
      572.10210      0.43204231E-009
      572.28210      0.39283966E-009
      572.46210      0.35712289E-009
      572.64210      0.32458866E-009
      572.82210      0.29495944E-009
      573.00210      0.26798135E-009
      573.18210      0.24342218E-009
      573.36210      0.22106959E-009
      573.54210      0.20072949E-009
      573.72210      0.18222446E-009
      573.90210      0.16539236E-009
      574.08210      0.15008508E-009
      574.26210      0.13616733E-009
      574.44210      0.12351554E-009
      574.62210      0.11201692E-009
      574.80210      0.10156847E-009
      574.98210      0.92076226E-010
      575.16210      0.83454434E-010
      575.34210      0.75624867E-010
      575.52210      0.68516179E-010
      575.70210      0.62063312E-010
      575.88210      0.56206957E-010
      576.06210      0.50893052E-010
      576.24210      0.46072334E-010
      576.42210      0.41699922E-010
