      363.65850       13.667525     
      367.43078       14.340685     
      371.20307       14.710335     
      374.97535       14.778446     
      378.74763       14.601984     
      382.51991       14.242301     
      386.29220       13.713547     
      390.06448       12.968954     
      393.83676       11.939226     
      397.60905       10.597317     
      401.38133       9.0026611     
      405.15361       7.2940421     
      408.92589       5.6389033     
      412.69818       4.1748880     
      416.47046       2.9771521     
      420.24274       2.0606735     
      424.01503       1.4037286     
      427.78731      0.97224174     
      431.55959      0.73287213     
      435.33188      0.65417592     
      439.10416      0.70174544     
      442.87644      0.83405801     
      446.64872       1.0036816     
      450.42101       1.1653526     
      454.19329       1.2886130     
      457.96557       1.3690526     
      461.73786       1.4309812     
      465.51014       1.5174553     
      469.28242       1.6702958     
      473.05470       1.9093868     
      476.82699       2.2226438     
      480.59927       2.5731886     
      484.37155       2.9202489     
      488.14384       3.2408565     
      491.91612       3.5373837     
      495.68840       3.8244539     
      499.46068       4.1035196     
      503.23297       4.3440938     
      507.00525       4.4880823     
      510.77753       4.4779531     
      514.54982       4.2915265     
      518.32210       3.9598848     
      522.09438       3.5557226     
      525.86666       3.1594630     
      529.63895       2.8247473     
      533.41123       2.5637568     
      537.18351       2.3586044     
      540.95580       2.1887699     
      544.72808       2.0565297     
      548.50036       1.9955360     
      552.27265       2.0580734     
      556.04493       2.2875843     
      559.81721       2.6898909     
      563.58949       3.2170670     
      567.36178       3.7724631     
      571.13406       4.2363198     
      574.90634       4.5025279     
      578.67863       4.5123075     
      582.45091       4.2718425     
      586.22319       3.8473238     
      589.99547       3.3395733     
      593.76776       2.8482226     
      597.54004       2.4395692     
      601.31232       2.1307488     
      605.08461       1.8955921     
      608.85689       1.6873467     
      612.62917       1.4656836     
      616.40145       1.2146811     
      620.17374      0.94506918     
      623.94602      0.68335062     
      627.71830      0.45651935     
      631.49059      0.28095921     
      635.26287      0.15937562     
      639.03515      0.84425360E-001
      642.80743      0.45234402E-001
      646.57972      0.33600912E-001
      650.35200      0.48650759E-001
      654.12428      0.10005484     
      657.89657      0.20966635     
      661.66885      0.40997015     
      665.44113      0.73654313     
      669.21341       1.2127678     
      672.98570       1.8294279     
      676.75798       2.5280404     
      680.53026       3.2002530     
      684.30255       3.7113475     
      688.07483       3.9434416     
      691.84711       3.8403216     
      695.61940       3.4314060     
      699.39168       2.8222659     
      703.16396       2.1575032     
      706.93624       1.5756723     
      710.70853       1.1760918     
      714.48081       1.0057800     
      718.25309       1.0618617     
      722.02538       1.3000706     
      725.79766       1.6444613     
      729.56994       2.0003385     
      733.34222       2.2739873     
      737.11451       2.3971790     
      740.88679       2.3470443     
      744.65907       2.1504338     
      748.43136       1.8692408     
      752.20364       1.5744891     
      755.97592       1.3236205     
      759.74820       1.1521649     
      763.52049       1.0803338     
      767.29277       1.1248046     
      771.06505       1.3030609     
      774.83734       1.6237465     
      778.60962       2.0675225     
      782.38190       2.5719005     
      786.15418       3.0343358     
      789.92647       3.3387325     
      793.69875       3.3960287     
      797.47103       3.1789617     
      801.24332       2.7324295     
      805.01560       2.1541520     
      808.78788       1.5567691     
      812.56017       1.0310300     
      816.33245      0.62570209     
      820.10473      0.34798767     
      823.87701      0.17756425     
      827.64930      0.83718612E-001
      831.42158      0.37999952E-001
      835.19386      0.20113861E-001
      838.96615      0.18571726E-001
      842.73843      0.28685996E-001
      846.51071      0.49777010E-001
      850.28299      0.82387570E-001
      854.05528      0.12578154     
      857.82756      0.17611384     
      861.59984      0.22593080     
      865.37213      0.26551824     
      869.14441      0.28585176     
      872.91669      0.28191768     
      876.68897      0.25473002     
      880.46126      0.21096150     
      884.23354      0.16045186     
      888.00582      0.11306242     
      891.77811      0.76631763E-001
      895.55039      0.57074916E-001
      899.32267      0.60490910E-001
      903.09495      0.96081338E-001
      906.86724      0.17798236     
      910.63952      0.32388777     
      914.41180      0.54897549     
      918.18409      0.85568789     
      921.95637       1.2231742     
      925.72865       1.6029103     
      929.50093       1.9263801     
      933.27322       2.1252853     
      937.04550       2.1568139     
      940.81778       2.0214759     
      944.59007       1.7634596     
      948.36235       1.4527189     
      952.13463       1.1580605     
      955.90692      0.92468402     
      959.67920      0.76578994     
      963.45148      0.66945028     
      967.22376      0.61447950     
      970.99605      0.58614504     
      974.76833      0.58435523     
      978.54061      0.62144182     
      982.31290      0.71152406     
      986.08518      0.85707964     
      989.85746       1.0397263     
      993.62974       1.2206823     
      997.40203       1.3519980     
     1001.17431       1.3940098     
     1004.94659       1.3306057     
     1008.71888       1.1746009     
     1012.49116      0.96090400     
     1016.26344      0.73184422     
     1020.03572      0.52260644     
     1023.80801      0.35316351     
     1027.58029      0.22826170     
     1031.35257      0.14266267     
     1035.12486      0.87479530E-001
     1038.89714      0.54845850E-001
     1042.66942      0.40395766E-001
     1046.44170      0.44381343E-001
     1050.21399      0.72203951E-001
     1053.98627      0.13420056     
     1057.75855      0.24360248     
     1061.53084      0.41153699     
     1065.30312      0.63929832     
     1069.07540      0.91057108     
     1072.84769       1.1883410     
     1076.61997       1.4207372     
     1080.39225       1.5560180     
     1084.16453       1.5611317     
     1087.93682       1.4347872     
     1091.70910       1.2079760     
     1095.48138      0.93164794     
     1099.25367      0.65821550     
     1103.02595      0.42599757     
     1106.79823      0.25256250     
     1110.57051      0.13716817     
     1114.34280      0.68243385E-001
     1118.11508      0.31102157E-001
     1121.88736      0.12985037E-001
     1125.65965      0.49661359E-002
     1129.43193      0.17398698E-002
     1133.20421      0.55839001E-003
     1136.97649      0.16416528E-003
     1140.74878      0.44212932E-004
     1144.52106      0.10908946E-004
     1148.29334      0.24722127E-005
     1152.06563      0.54950042E-006
     1155.83791      0.29624596E-006
     1159.61019      0.94808798E-006
     1163.38247      0.39860489E-005
     1167.15476      0.15609390E-004
     1170.92704      0.56035673E-004
     1174.69932      0.18430712E-003
     1178.47161      0.55545132E-003
     1182.24389      0.15340301E-002
     1186.01617      0.38832570E-002
     1189.78846      0.90130839E-002
     1193.56074      0.19190388E-001
     1197.33302      0.37511428E-001
     1201.10530      0.67395079E-001
     1204.87759      0.11149549     
     1208.64987      0.17029810     
     1212.42215      0.24107965     
     1216.19444      0.31800110     
     1219.96672      0.39357165     
     1223.73900      0.46077335     
     1227.51128      0.51451993     
     1231.28357      0.55154543     
     1235.05585      0.56913914     
     1238.82813      0.56425288     
     1242.60042      0.53427972     
     1246.37270      0.47928306     
     1250.14498      0.40396932     
     1253.91726      0.31762340     
     1257.68955      0.23165444     
     1261.46183      0.15608125     
     1265.23411      0.96872762E-001
     1269.00640      0.55278332E-001
     1272.77868      0.28963756E-001
     1276.55096      0.13923170E-001
     1280.32324      0.61371795E-002
     1284.09553      0.24796754E-002
     1287.86781      0.91815972E-003
     1291.64009      0.31151304E-003
     1295.41238      0.96834145E-004
     1299.18466      0.27577148E-004
     1302.95694      0.71948575E-005
     1306.72923      0.17196359E-005
     1310.50151      0.37651781E-006
     1314.27379      0.75520517E-007
     1318.04607      0.13876265E-007
     1321.81836      0.23358286E-008
     1325.59064      0.36195291E-009
     1329.36292      0.66515360E-010
     1333.13521      0.12980629E-009
     1336.90749      0.88976244E-009
     1340.67977      0.58755134E-008
     1344.45205      0.35575221E-007
     1348.22434      0.19734812E-006
     1351.99662      0.10030411E-005
     1355.76890      0.46712899E-005
     1359.54119      0.19935744E-004
     1363.31347      0.77977513E-004
     1367.08575      0.27960011E-003
     1370.85803      0.91931035E-003
     1374.63032      0.27728083E-002
     1378.40260      0.76763588E-002
     1382.17488      0.19521211E-001
     1385.94717      0.45649610E-001
     1389.71945      0.98303883E-001
     1393.49173      0.19531421     
     1397.26401      0.35891451     
     1401.03630      0.61187566     
     1404.80858      0.97119670     
     1408.58086       1.4408909     
     1412.35315       2.0059866     
     1416.12543       2.6292956     
     1419.89771       3.2516384     
     1423.66999       3.7964168     
     1427.44228       4.1805368     
     1431.21456       4.3332736     
     1434.98684       4.2205679     
     1438.75913       3.8660641     
     1442.53141       3.3572990     
     1446.30369       2.8298374     
     1450.07598       2.4319144     
     1453.84826       2.2808341     
     1457.62054       2.4253130     
     1461.39282       2.8257621     
     1465.16511       3.3601479     
     1468.93739       3.8571139     
     1472.70967       4.1490113     
     1476.48196       4.1270425     
     1480.25424       3.7757904     
     1484.02652       3.1715839     
     1487.79880       2.4466751     
     1491.57109       1.7382018     
     1495.34337       1.1460350     
     1499.11565      0.71467529     
     1502.88794      0.43931381     
     1506.66022      0.28543070     
     1510.43250      0.20958805     
     1514.20478      0.17387400     
     1517.97707      0.15237287     
     1521.74935      0.13156768     
     1525.52163      0.10742398     
     1529.29392      0.81389636E-001
     1533.06620      0.56789487E-001
     1536.83848      0.36431015E-001
     1540.61076      0.21638810E-001
     1544.38305      0.12454579E-001
     1548.15533      0.85183090E-002
     1551.92761      0.10216362E-001
     1555.69990      0.19876923E-001
     1559.47218      0.42861151E-001
     1563.24446      0.88195448E-001
     1567.01675      0.16802655     
     1570.78903      0.29504726     
     1574.56131      0.47762890     
     1578.33359      0.71387856     
     1582.10588      0.98762165     
     1585.87816       1.2700404     
     1589.65044       1.5290734     
     1593.42273       1.7446670     
     1597.19501       1.9234356     
     1600.96729       2.1042115     
     1604.73957       2.3485405     
     1608.51186       2.7170750     
     1612.28414       3.2408474     
     1616.05642       3.9009457     
     1619.82871       4.6277780     
     1623.60099       5.3222824     
     1627.37327       5.8908464     
     1631.14555       6.2796848     
     1634.91784       6.4961980     
     1638.69012       6.6117174     
     1642.46240       6.7460646     
     1646.23469       7.0363752     
     1650.00697       7.5934970     
     1653.77925       8.4539674     
     1657.55153       9.5439214     
     1661.32382       10.675726     
     1665.09610       11.590065     
     1668.86838       12.035378     
     1672.64067       11.854176     
     1676.41295       11.037286     
     1680.18523       9.7207922     
     1683.95751       8.1294091     
     1687.72980       6.4966476     
     1691.50208       4.9996600     
     1695.27436       3.7322996     
     1699.04665       2.7155803     
     1702.81893       1.9272092     
     1706.59121       1.3298198     
     1710.36350      0.88716132     
     1714.13578      0.56867373     
     1717.90806      0.34835093     
     1721.68034      0.20306498     
     1725.45263      0.11228324     
     1729.22491      0.58729867E-001
     1732.99719      0.28978282E-001
     1736.76948      0.13447916E-001
     1740.54176      0.58504766E-002
     1744.31404      0.23780148E-002
     1748.08632      0.90010609E-003
     1751.85861      0.31631532E-003
     1755.63089      0.10296659E-003
     1759.40317      0.31133768E-004
     1763.17546      0.93136553E-005
     1766.94774      0.47256154E-005
     1770.72002      0.85002853E-005
     1774.49230      0.23142955E-004
     1778.26459      0.60868222E-004
     1782.03687      0.14725438E-003
     1785.80915      0.32643938E-003
     1789.58144      0.66293305E-003
     1793.35372      0.12332760E-002
     1797.12600      0.21017143E-002
     1800.89828      0.32810271E-002
     1804.67057      0.46921155E-002
     1808.44285      0.61468173E-002
     1812.21513      0.73765730E-002
     1815.98742      0.81092693E-002
     1819.75970      0.81664166E-002
     1823.53198      0.75336263E-002
     1827.30427      0.63664796E-002
     1831.07655      0.49285295E-002
     1834.84883      0.34950879E-002
     1838.62111      0.22705004E-002
     1842.39340      0.13511632E-002
     1846.16568      0.73657461E-003
     1849.93796      0.36783108E-003
     1853.71025      0.16826850E-003
     1857.48253      0.70514752E-004
     1861.25481      0.27069477E-004
     1865.02709      0.95192445E-005
     1868.79938      0.30665343E-005
     1872.57166      0.90493193E-006
     1876.34394      0.24462832E-006
     1880.11623      0.60578746E-007
     1883.88851      0.13742209E-007
     1887.66079      0.28557197E-008
     1891.43307      0.54362239E-009
     1895.20536      0.94798577E-010
     1898.97764      0.15143597E-010
     1902.74992      0.22160471E-011
     1906.52221      0.29706513E-012
     1910.29449      0.36479351E-013
     1914.06677      0.41036022E-014
     1917.83905      0.42286929E-015
     1921.61134      0.39918092E-016
     1925.38362      0.34518835E-017
     1929.15590      0.27344200E-018
     1932.92819      0.19842530E-019
     1936.70047      0.13190207E-020
     1940.47275      0.80320960E-022
     1944.24504      0.44805251E-023
     1948.01732      0.22895581E-024
     1951.78960      0.10717591E-025
     1955.56188      0.45958453E-027
     1959.33417      0.18053290E-028
     1963.10645      0.64963596E-030
     1966.87873      0.21414428E-031
     1970.65102      0.64664459E-033
     1974.42330      0.17887413E-034
     1978.19558      0.45326499E-036
     1981.96786      0.10521545E-037
     1985.74015      0.22373279E-039
     1989.51243      0.43581529E-041
     1993.28471      0.77767481E-043
     1997.05700      0.12712072E-044
     2000.82928      0.19035197E-046
     2004.60156      0.26110857E-048
     2008.37384      0.32810106E-050
     2012.14613      0.37767381E-052
     2015.91841      0.39824363E-054
     2019.69069      0.38468348E-056
     2023.46298      0.34039328E-058
     2027.23526      0.27591871E-060
     2031.00754      0.20488212E-062
     2034.77982      0.13936371E-064
     2038.55211      0.86839649E-067
     2042.32439      0.49568887E-069
     2046.09667      0.25919284E-071
     2049.86896      0.12415367E-073
     2053.64124      0.54477715E-076
     2057.41352      0.21897822E-078
     2061.18581      0.80631679E-081
     2064.95809      0.27197765E-083
     2068.73037      0.84039499E-086
     2072.50265      0.23787918E-088
     2076.27494      0.61681104E-091
     2080.04722      0.14651112E-093
     2083.81950      0.31879519E-096
     2087.59179      0.63544164E-099
     2091.36407      0.11602787E-101
     2095.13635      0.19407594E-104
     2098.90863      0.29737456E-107
     2102.68092      0.41740597E-110
     2106.45320      0.53670574E-113
     2110.22548      0.63217389E-116
     2113.99777      0.68211814E-119
     2117.77005      0.67422582E-122
     2121.54233       0.0000000     
     2125.31461       0.0000000     
     2129.08690       0.0000000     
     2132.85918       0.0000000     
     2136.63146       0.0000000     
     2140.40375       0.0000000     
     2144.17603       0.0000000     
     2147.94831       0.0000000     
     2151.72059       0.0000000     
     2155.49288       0.0000000     
     2159.26516       0.0000000     
     2163.03744       0.0000000     
     2166.80973       0.0000000     
     2170.58201       0.0000000     
     2174.35429       0.0000000     
     2178.12657       0.0000000     
     2181.89886       0.0000000     
     2185.67114       0.0000000     
     2189.44342       0.0000000     
     2193.21571       0.0000000     
     2196.98799       0.0000000     
     2200.76027       0.0000000     
     2204.53256       0.0000000     
     2208.30484       0.0000000     
     2212.07712       0.0000000     
     2215.84940       0.0000000     
     2219.62169       0.0000000     
     2223.39397       0.0000000     
     2227.16625       0.0000000     
     2230.93854       0.0000000     
     2234.71082       0.0000000     
     2238.48310       0.0000000     
     2242.25538       0.0000000     
     2246.02767       0.0000000     
     2249.79995       0.0000000     
     2253.57223       0.0000000     
     2257.34452       0.0000000     
     2261.11680       0.0000000     
     2264.88908       0.0000000     
     2268.66136       0.0000000     
     2272.43365       0.0000000     
     2276.20593       0.0000000     
     2279.97821       0.0000000     
     2283.75050       0.0000000     
     2287.52278       0.0000000     
     2291.29506       0.0000000     
     2295.06734       0.0000000     
     2298.83963       0.0000000     
     2302.61191       0.0000000     
     2306.38419       0.0000000     
     2310.15648       0.0000000     
     2313.92876       0.0000000     
     2317.70104       0.0000000     
     2321.47333       0.0000000     
     2325.24561       0.0000000     
     2329.01789       0.0000000     
     2332.79017       0.0000000     
     2336.56246       0.0000000     
     2340.33474       0.0000000     
     2344.10702       0.0000000     
     2347.87931       0.0000000     
     2351.65159       0.0000000     
     2355.42387       0.0000000     
     2359.19615       0.0000000     
     2362.96844       0.0000000     
     2366.74072       0.0000000     
     2370.51300       0.0000000     
     2374.28529       0.0000000     
     2378.05757       0.0000000     
     2381.82985       0.0000000     
     2385.60213       0.0000000     
     2389.37442       0.0000000     
     2393.14670       0.0000000     
     2396.91898       0.0000000     
     2400.69127       0.0000000     
     2404.46355       0.0000000     
     2408.23583       0.0000000     
     2412.00811       0.0000000     
     2415.78040       0.0000000     
     2419.55268       0.0000000     
     2423.32496       0.0000000     
     2427.09725       0.0000000     
     2430.86953       0.0000000     
     2434.64181       0.0000000     
     2438.41409       0.0000000     
     2442.18638       0.0000000     
     2445.95866       0.0000000     
     2449.73094       0.0000000     
     2453.50323       0.0000000     
     2457.27551       0.0000000     
     2461.04779       0.0000000     
     2464.82008       0.0000000     
     2468.59236       0.0000000     
     2472.36464       0.0000000     
     2476.13692       0.0000000     
     2479.90921       0.0000000     
     2483.68149       0.0000000     
     2487.45377       0.0000000     
     2491.22606       0.0000000     
     2494.99834       0.0000000     
     2498.77062       0.0000000     
     2502.54290       0.0000000     
     2506.31519       0.0000000     
     2510.08747       0.0000000     
     2513.85975       0.0000000     
     2517.63204       0.0000000     
     2521.40432       0.0000000     
     2525.17660       0.0000000     
     2528.94888       0.0000000     
     2532.72117       0.0000000     
     2536.49345       0.0000000     
     2540.26573       0.0000000     
     2544.03802       0.0000000     
     2547.81030       0.0000000     
     2551.58258       0.0000000     
     2555.35486       0.0000000     
     2559.12715       0.0000000     
     2562.89943       0.0000000     
     2566.67171       0.0000000     
     2570.44400       0.0000000     
     2574.21628       0.0000000     
     2577.98856       0.0000000     
     2581.76085      0.44986473E-117
     2585.53313      0.42890220E-114
     2589.30541      0.37459100E-111
     2593.07769      0.29969475E-108
     2596.84998      0.21964619E-105
     2600.62226      0.14746567E-102
     2604.39454      0.90694497E-100
     2608.16683      0.51096796E-097
     2611.93911      0.26371154E-094
     2615.71139      0.12467729E-091
     2619.48367      0.53996831E-089
     2623.25596      0.21422588E-086
     2627.02824      0.77857122E-084
     2630.80052      0.25920745E-081
     2634.57281      0.79053182E-079
     2638.34509      0.22085842E-076
     2642.11737      0.56523793E-074
     2645.88965      0.13251693E-071
     2649.66194      0.28459953E-069
     2653.43422      0.55991192E-067
     2657.20650      0.10090855E-064
     2660.97879      0.16659386E-062
     2664.75107      0.25194906E-060
     2668.52335      0.34905126E-058
     2672.29563      0.44298439E-056
     2676.06792      0.51500372E-054
     2679.84020      0.54847273E-052
     2683.61248      0.53508460E-050
     2687.38477      0.47820333E-048
     2691.15705      0.39149433E-046
     2694.92933      0.29360340E-044
     2698.70162      0.20170628E-042
     2702.47390      0.12694059E-040
     2706.24618      0.73182008E-039
     2710.01846      0.38648342E-037
     2713.79075      0.18697354E-035
     2717.56303      0.82861381E-034
     2721.33531      0.33639297E-032
     2725.10760      0.12510204E-030
     2728.87988      0.42619133E-029
     2732.65216      0.13300488E-027
     2736.42444      0.38023601E-026
     2740.19673      0.99577602E-025
     2743.96901      0.23888717E-023
     2747.74129      0.52498477E-022
     2751.51358      0.10568743E-020
     2755.28586      0.19490486E-019
     2759.05814      0.32926439E-018
     2762.83042      0.50955326E-017
     2766.60271      0.72236574E-016
     2770.37499      0.93809631E-015
     2774.14727      0.11159904E-013
     2777.91956      0.12161754E-012
     2781.69184      0.12141007E-011
     2785.46412      0.11102887E-010
     2789.23640      0.93012192E-010
     2793.00869      0.71378361E-009
     2796.78097      0.50178306E-008
     2800.55325      0.32313809E-007
     2804.32554      0.19062640E-006
     2808.09782      0.10301505E-005
     2811.87010      0.50996578E-005
     2815.64238      0.23126192E-004
     2819.41467      0.96070480E-004
     2823.18695      0.36559355E-003
     2826.95923      0.12744706E-002
     2830.73152      0.40699010E-002
     2834.50380      0.11905856E-001
     2838.27608      0.31905100E-001
     2842.04837      0.78321742E-001
     2845.82065      0.17612755     
     2849.59293      0.36282316     
     2853.36521      0.68467652     
     2857.13750       1.1835827     
     2860.90978       1.8742801     
     2864.68206       2.7188994     
     2868.45435       3.6130545     
     2872.22663       4.3982368     
     2875.99891       4.9046209     
     2879.77119       5.0101995     
     2883.54348       4.6884287     
     2887.31576       4.0190403     
     2891.08804       3.1560228     
     2894.86033       2.2702863     
     2898.63261       1.4960423     
     2902.40489      0.90308753     
     2906.17717      0.49938852     
     2909.94946      0.25297057     
     2913.72174      0.11738813     
     2917.49402      0.49900061E-001
     2921.26631      0.19431249E-001
     2925.03859      0.69314340E-002
     2928.81087      0.22650000E-002
     2932.58315      0.67800992E-003
     2936.35544      0.18592022E-003
     2940.12772      0.46702480E-004
     2943.90000      0.10746726E-004
     2947.67229      0.22653897E-005
     2951.44457      0.43777116E-006
     2955.21685      0.79770510E-007
     2958.98914      0.28259216E-007
     2962.76142      0.96508505E-007
     2966.53370      0.52225043E-006
     2970.30598      0.26372806E-005
     2974.07827      0.12205536E-004
     2977.85055      0.51746985E-004
     2981.62283      0.20097225E-003
     2985.39512      0.71500633E-003
     2989.16740      0.23302709E-002
     2992.93968      0.69570587E-002
     2996.71196      0.19026884E-001
     3000.48425      0.47668601E-001
     3004.25653      0.10940065     
     3008.02881      0.23000128     
     3011.80110      0.44295909     
     3015.57338      0.78148486     
     3019.34566       1.2629981     
     3023.11794       1.8698844     
     3026.89023       2.5361237     
     3030.66251       3.1514442     
     3034.43479       3.5887933     
     3038.20708       3.7482122     
     3041.97936       3.5984265     
     3045.75164       3.1959722     
     3049.52392       2.6729916     
     3053.29621       2.2010724     
     3057.06849       1.9476633     
     3060.84077       2.0382591     
     3064.61306       2.5278422     
     3068.38534       3.3803226     
     3072.15762       4.4598798     
     3075.92991       5.5460655     
     3079.70219       6.3825584     
     3083.47447       6.7525671     
     3087.24675       6.5523612     
     3091.01904       5.8268325     
     3094.79132       4.7473679     
     3098.56360       3.5433788     
     3102.33589       2.4227714     
     3106.10817       1.5175135     
     3109.88045      0.87071559     
     3113.65273      0.45766016     
     3117.42502      0.22035998     
     3121.19730      0.97195265E-001
     3124.96958      0.39271749E-001
     3128.74187      0.14535772E-001
     3132.51415      0.49285450E-002
     3136.28643      0.15308127E-002
     3140.05871      0.43556015E-003
     3143.83100      0.11352642E-003
     3147.60328      0.27106211E-004
     3151.37556      0.59288954E-005
     3155.14785      0.11889463E-005
     3158.92013      0.22470197E-006
     3162.69241      0.75601812E-007
     3166.46469      0.21391688E-006
     3170.23698      0.10211543E-005
     3174.00926      0.45794095E-005
     3177.78154      0.18826519E-004
     3181.55383      0.70902661E-004
     3185.32611      0.24461216E-003
     3189.09839      0.77306547E-003
     3192.87067      0.22380885E-002
     3196.64296      0.59355498E-002
     3200.41524      0.14420071E-001
     3204.18752      0.32091985E-001
     3207.95981      0.65425716E-001
     3211.73209      0.12218647     
     3215.50437      0.20903572     
     3219.27666      0.32759753     
     3223.04894      0.47030918     
     3226.82122      0.61851329     
     3230.59350      0.74513910     
     3234.36579      0.82233429     
     3238.13807      0.83134670     
     3241.91035      0.76990775     
     3245.68264      0.65315753     
     3249.45492      0.50759802     
     3253.22720      0.36136379     
     3256.99948      0.23566337     
     3260.77177      0.14078691     
     3264.54405      0.77046903E-001
     3268.31633      0.38625209E-001
     3272.08862      0.17738187E-001
     3275.86090      0.74622594E-002
     3279.63318      0.28757703E-002
     3283.40546      0.10152214E-002
     3287.17775      0.32831453E-003
     3290.95003      0.97261767E-004
     3294.72231      0.26394713E-004
     3298.49460      0.65616712E-005
     3302.26688      0.14942894E-005
     3306.03916      0.31172936E-006
     3309.81144      0.59572172E-007
     3313.58373      0.10428741E-007
     3317.35601      0.16724112E-008
     3321.12829      0.24568407E-009
     3324.90058      0.33062346E-010
     3328.67286      0.40758018E-011
     3332.44514      0.46027266E-012
     3336.21743      0.47614589E-013
     3339.98971      0.45121927E-014
     3343.76199      0.39170396E-015
     3347.53427      0.31149496E-016
     3351.30656      0.22691689E-017
     3355.07884      0.15142771E-018
     3358.85112      0.92569222E-020
     3362.62341      0.51838283E-021
     3366.39569      0.26592388E-022
     3370.16797      0.12496454E-023
     3373.94025      0.53794640E-025
     3377.71254      0.21213578E-026
     3381.48482      0.76632254E-028
     3385.25710      0.25358993E-029
     3389.02939      0.76873231E-031
     3392.80167      0.21347204E-032
     3396.57395      0.54303723E-034
     3400.34623      0.12654382E-035
     3404.11852      0.27013136E-037
     3407.89080      0.52824064E-039
     3411.66308      0.94626189E-041
     3415.43537      0.15527932E-042
     3419.20765      0.23342030E-044
     3422.97993      0.32142996E-046
     3426.75221      0.40546823E-048
     3430.52450      0.46854363E-050
     3434.29678      0.49598207E-052
     3438.06906      0.48095523E-054
     3441.84135      0.42723425E-056
     3445.61363      0.34765638E-058
     3449.38591      0.25915350E-060
     3453.15820      0.17696472E-062
     3456.93048      0.11069781E-064
     3460.70276      0.63432832E-067
     3464.47504      0.33297522E-069
     3468.24733      0.16011516E-071
     3472.01961      0.70530301E-074
     3475.79189      0.28460449E-076
     3479.56418      0.10520357E-078
     3483.33646      0.35623942E-081
     3487.10874      0.11050354E-083
     3490.88102      0.31400252E-086
     3494.65331      0.81735894E-089
     3498.42559      0.19490152E-091
     3502.19787      0.42573600E-094
     3505.97016      0.85189930E-097
     3509.74244      0.15615607E-099
     3513.51472      0.26221180E-102
     3517.28700      0.40333723E-105
     3521.05929      0.56833857E-108
     3524.83157      0.73361581E-111
     3528.60385      0.86746701E-114
     3532.37614      0.93963674E-117
     3536.14842      0.93237311E-120
     3539.92070       0.0000000     
     3543.69298       0.0000000     
     3547.46527       0.0000000     
     3551.23755       0.0000000     
     3555.00983      0.53873589E-118
     3558.78212      0.52705097E-115
     3562.55440      0.47233710E-112
     3566.32668      0.38777002E-109
     3570.09896      0.29162123E-106
     3573.87125      0.20090316E-103
     3577.64353      0.12678771E-100
     3581.41581      0.73297686E-098
     3585.18810      0.38817370E-095
     3588.96038      0.18831490E-092
     3592.73266      0.83688540E-090
     3596.50495      0.34069835E-087
     3600.27723      0.12705648E-084
     3604.04951      0.43405656E-082
     3607.82179      0.13583715E-079
     3611.59408      0.38941579E-077
     3615.36636      0.10226600E-074
     3619.13864      0.24602074E-072
     3622.91093      0.54216926E-070
     3626.68321      0.10945127E-067
     3630.45549      0.20240883E-065
     3634.22777      0.34289475E-063
     3638.00006      0.53212659E-061
     3641.77234      0.75647018E-059
     3645.54462      0.98512513E-057
     3649.31691      0.11752052E-054
     3653.08919      0.12842772E-052
     3656.86147      0.12856613E-050
     3660.63375      0.11790089E-048
     3664.40604      0.99044498E-047
     3668.17832      0.76219546E-045
     3671.95060      0.53731021E-043
     3675.72289      0.34698171E-041
     3679.49517      0.20526306E-039
     3683.26745      0.11123406E-037
     3687.03973      0.55218871E-036
     3690.81202      0.25110769E-034
     3694.58430      0.10460569E-032
     3698.35658      0.39918423E-031
     3702.12887      0.13954500E-029
     3705.90115      0.44686674E-028
     3709.67343      0.13108853E-026
     3713.44572      0.35226895E-025
     3717.21800      0.86717573E-024
     3720.99028      0.19555238E-022
     3724.76256      0.40396386E-021
     3728.53485      0.76444399E-020
     3732.30713      0.13251742E-018
     3736.07941      0.21043840E-017
     3739.85170      0.30612765E-016
     3743.62398      0.40794990E-015
     3747.39626      0.49801159E-014
     3751.16854      0.55693270E-013
     3754.94083      0.57055815E-012
     3758.71311      0.53547063E-011
     3762.48539      0.46038001E-010
     3766.25768      0.36261983E-009
     3770.02996      0.26167001E-008
     3773.80224      0.17299838E-007
     3777.57452      0.10479530E-006
     3781.34681      0.58168759E-006
     3785.11909      0.29589506E-005
     3788.89137      0.13796160E-004
     3792.66366      0.58973037E-004
     3796.43594      0.23118883E-003
     3800.20822      0.83156934E-003
     3803.98050      0.27461655E-002
     3807.75279      0.83336600E-002
     3811.52507      0.23267547E-001
     3815.29735      0.59865718E-001
     3819.06964      0.14224988     
     3822.84192      0.31301826     
     3826.61420      0.64004500     
     3830.38649       1.2209701     
     3834.15877       2.1823986     
     3837.93105       3.6706312     
     3841.70333       5.8300998     
     3845.47562       8.7648241     
     3849.24790       12.480659     
     3853.02018       16.817136     
     3856.79247       21.396982     
     3860.56475       25.635937     
     3864.33703       28.845091     
     3868.10931       30.414984     
     3871.88160       30.016393     
     3875.65388       27.727279     
     3879.42616       24.023800     
     3883.19845       19.640074     
     3886.97073       15.361725     
     3890.74301       11.835651     
     3894.51529       9.4520237     
     3898.28758       8.3118831     
     3902.05986       8.2630752     
     3905.83214       8.9778268     
     3909.60443       10.048474     
     3913.37671       11.082118     
     3917.14899       11.776726     
     3920.92127       11.964336     
     3924.69356       11.615504     
     3928.46584       10.811079     
     3932.23812       9.6966118     
     3936.01041       8.4364360     
     3939.78269       7.1790803     
     3943.55497       6.0376172     
     3947.32725       5.0824056     
     3951.09954       4.3414642     
     3954.87182       3.8049209     
     3958.64410       3.4326170     
     3962.41639       3.1656478     
     3966.18867       2.9417862     
     3969.96095       2.7117755     
     3973.73324       2.4509695     
     3977.50552       2.1615018     
     3981.27780       1.8644061     
     3985.05008       1.5861371     
     3988.82237       1.3462810     
     3992.59465       1.1515760     
     3996.36693      0.99727262     
     4000.13922      0.87310952     
     4003.91150      0.76967327     
     4007.68378      0.68186027     
     4011.45606      0.60853161     
     4015.22835      0.54973162     
     4019.00063      0.50384516     
     4022.77291      0.46650408     
     4026.54520      0.43158900     
     4030.31748      0.39338622     
     4034.08976      0.34855210     
     4037.86204      0.29697384     
     4041.63433      0.24136875     
     4045.40661      0.18603454     
     4049.17889      0.13536387     
     4052.95118      0.92648080E-001
     4056.72346      0.59466542E-001
     4060.49574      0.35700641E-001
     4064.26802      0.20001726E-001
     4068.04031      0.10437762E-001
     4071.81259      0.50650008E-002
     4075.58487      0.22823056E-002
     4079.35716      0.95382327E-003
     4083.12944      0.36932554E-003
     4086.90172      0.13237305E-003
     4090.67401      0.43881466E-004
     4094.44629      0.13443983E-004
     4098.21857      0.38039842E-005
     4101.99085      0.99341885E-006
     4105.76314      0.23930186E-006
     4109.53542      0.53141479E-007
     4113.30770      0.10873396E-007
     4117.07999      0.20489301E-008
     4120.85227      0.35540345E-009
     4124.62455      0.56723976E-010
     4128.39683      0.83271317E-011
     4132.16912      0.11239726E-011
     4135.94140      0.13944697E-012
