  32262.1600     0.87469E+02 
  32294.4222     0.88564E+02 
  32326.6843     0.89669E+02 
  32358.9465     0.90784E+02 
  32391.2086     0.91908E+02 
  32423.4708     0.93042E+02 
  32455.7330     0.94185E+02 
  32487.9951     0.95338E+02 
  32520.2573     0.96500E+02 
  32552.5194     0.97672E+02 
  32584.7816     0.98854E+02 
  32617.0438     0.10005E+03 
  32649.3059     0.10125E+03 
  32681.5681     0.10246E+03 
  32713.8302     0.10368E+03 
  32746.0924     0.10491E+03 
  32778.3546     0.10615E+03 
  32810.6167     0.10740E+03 
  32842.8789     0.10865E+03 
  32875.1410     0.10992E+03 
  32907.4032     0.11120E+03 
  32939.6654     0.11249E+03 
  32971.9275     0.11379E+03 
  33004.1897     0.11509E+03 
  33036.4518     0.11641E+03 
  33068.7140     0.11774E+03 
  33100.9762     0.11907E+03 
  33133.2383     0.12042E+03 
  33165.5005     0.12177E+03 
  33197.7626     0.12314E+03 
  33230.0248     0.12451E+03 
  33262.2870     0.12590E+03 
  33294.5491     0.12729E+03 
  33326.8113     0.12869E+03 
  33359.0734     0.13011E+03 
  33391.3356     0.13153E+03 
  33423.5978     0.13296E+03 
  33455.8599     0.13440E+03 
  33488.1221     0.13585E+03 
  33520.3842     0.13731E+03 
  33552.6464     0.13878E+03 
  33584.9086     0.14026E+03 
  33617.1707     0.14174E+03 
  33649.4329     0.14324E+03 
  33681.6950     0.14475E+03 
  33713.9572     0.14626E+03 
  33746.2194     0.14779E+03 
  33778.4815     0.14932E+03 
  33810.7437     0.15086E+03 
  33843.0058     0.15242E+03 
  33875.2680     0.15398E+03 
  33907.5302     0.15555E+03 
  33939.7923     0.15713E+03 
  33972.0545     0.15871E+03 
  34004.3166     0.16031E+03 
  34036.5788     0.16191E+03 
  34068.8410     0.16353E+03 
  34101.1031     0.16515E+03 
  34133.3653     0.16678E+03 
  34165.6274     0.16842E+03 
  34197.8896     0.17007E+03 
  34230.1518     0.17173E+03 
  34262.4139     0.17339E+03 
  34294.6761     0.17507E+03 
  34326.9382     0.17675E+03 
  34359.2004     0.17844E+03 
  34391.4626     0.18014E+03 
  34423.7247     0.18184E+03 
  34455.9869     0.18356E+03 
  34488.2490     0.18528E+03 
  34520.5112     0.18701E+03 
  34552.7734     0.18875E+03 
  34585.0355     0.19050E+03 
  34617.2977     0.19225E+03 
  34649.5598     0.19401E+03 
  34681.8220     0.19578E+03 
  34714.0842     0.19756E+03 
  34746.3463     0.19934E+03 
  34778.6085     0.20113E+03 
  34810.8706     0.20293E+03 
  34843.1328     0.20473E+03 
  34875.3950     0.20655E+03 
  34907.6571     0.20837E+03 
  34939.9193     0.21019E+03 
  34972.1814     0.21203E+03 
  35004.4436     0.21386E+03 
  35036.7058     0.21571E+03 
  35068.9679     0.21756E+03 
  35101.2301     0.21942E+03 
  35133.4922     0.22129E+03 
  35165.7544     0.22316E+03 
  35198.0166     0.22504E+03 
  35230.2787     0.22692E+03 
  35262.5409     0.22881E+03 
  35294.8030     0.23071E+03 
  35327.0652     0.23261E+03 
  35359.3274     0.23452E+03 
  35391.5895     0.23643E+03 
  35423.8517     0.23835E+03 
  35456.1138     0.24027E+03 
  35488.3760     0.24220E+03 
  35520.6382     0.24413E+03 
  35552.9003     0.24607E+03 
  35585.1625     0.24801E+03 
  35617.4246     0.24996E+03 
  35649.6868     0.25192E+03 
  35681.9490     0.25387E+03 
  35714.2111     0.25584E+03 
  35746.4733     0.25780E+03 
  35778.7354     0.25977E+03 
  35810.9976     0.26175E+03 
  35843.2598     0.26372E+03 
  35875.5219     0.26571E+03 
  35907.7841     0.26769E+03 
  35940.0462     0.26968E+03 
  35972.3084     0.27167E+03 
  36004.5706     0.27367E+03 
  36036.8327     0.27567E+03 
  36069.0949     0.27767E+03 
  36101.3570     0.27968E+03 
  36133.6192     0.28168E+03 
  36165.8814     0.28369E+03 
  36198.1435     0.28571E+03 
  36230.4057     0.28772E+03 
  36262.6678     0.28974E+03 
  36294.9300     0.29176E+03 
  36327.1922     0.29378E+03 
  36359.4543     0.29581E+03 
  36391.7165     0.29783E+03 
  36423.9786     0.29986E+03 
  36456.2408     0.30189E+03 
  36488.5030     0.30392E+03 
  36520.7651     0.30595E+03 
  36553.0273     0.30798E+03 
  36585.2894     0.31001E+03 
  36617.5516     0.31204E+03 
  36649.8138     0.31408E+03 
  36682.0759     0.31611E+03 
  36714.3381     0.31815E+03 
  36746.6002     0.32018E+03 
  36778.8624     0.32222E+03 
  36811.1246     0.32425E+03 
  36843.3867     0.32629E+03 
  36875.6489     0.32832E+03 
  36907.9110     0.33035E+03 
  36940.1732     0.33239E+03 
  36972.4354     0.33442E+03 
  37004.6975     0.33645E+03 
  37036.9597     0.33848E+03 
  37069.2218     0.34051E+03 
  37101.4840     0.34253E+03 
  37133.7462     0.34456E+03 
  37166.0083     0.34658E+03 
  37198.2705     0.34860E+03 
  37230.5326     0.35062E+03 
  37262.7948     0.35264E+03 
  37295.0570     0.35466E+03 
  37327.3191     0.35667E+03 
  37359.5813     0.35868E+03 
  37391.8434     0.36068E+03 
  37424.1056     0.36269E+03 
  37456.3678     0.36469E+03 
  37488.6299     0.36669E+03 
  37520.8921     0.36868E+03 
  37553.1542     0.37067E+03 
  37585.4164     0.37266E+03 
  37617.6786     0.37464E+03 
  37649.9407     0.37662E+03 
  37682.2029     0.37859E+03 
  37714.4650     0.38056E+03 
  37746.7272     0.38253E+03 
  37778.9894     0.38449E+03 
  37811.2515     0.38645E+03 
  37843.5137     0.38840E+03 
  37875.7758     0.39034E+03 
  37908.0380     0.39229E+03 
  37940.3002     0.39422E+03 
  37972.5623     0.39615E+03 
  38004.8245     0.39807E+03 
  38037.0866     0.39999E+03 
  38069.3488     0.40191E+03 
  38101.6110     0.40381E+03 
  38133.8731     0.40571E+03 
  38166.1353     0.40760E+03 
  38198.3974     0.40949E+03 
  38230.6596     0.41137E+03 
  38262.9218     0.41324E+03 
  38295.1839     0.41511E+03 
  38327.4461     0.41697E+03 
  38359.7082     0.41882E+03 
  38391.9704     0.42066E+03 
  38424.2326     0.42250E+03 
  38456.4947     0.42433E+03 
  38488.7569     0.42615E+03 
  38521.0190     0.42796E+03 
  38553.2812     0.42976E+03 
  38585.5434     0.43156E+03 
  38617.8055     0.43335E+03 
  38650.0677     0.43513E+03 
  38682.3298     0.43689E+03 
  38714.5920     0.43866E+03 
  38746.8542     0.44041E+03 
  38779.1163     0.44215E+03 
  38811.3785     0.44388E+03 
  38843.6406     0.44561E+03 
  38875.9028     0.44732E+03 
  38908.1650     0.44902E+03 
  38940.4271     0.45072E+03 
  38972.6893     0.45240E+03 
  39004.9514     0.45408E+03 
  39037.2136     0.45574E+03 
  39069.4758     0.45739E+03 
  39101.7379     0.45904E+03 
  39134.0001     0.46067E+03 
  39166.2622     0.46229E+03 
  39198.5244     0.46390E+03 
  39230.7866     0.46550E+03 
  39263.0487     0.46709E+03 
  39295.3109     0.46866E+03 
  39327.5730     0.47023E+03 
  39359.8352     0.47178E+03 
  39392.0974     0.47333E+03 
  39424.3595     0.47486E+03 
  39456.6217     0.47637E+03 
  39488.8838     0.47788E+03 
  39521.1460     0.47937E+03 
  39553.4082     0.48086E+03 
  39585.6703     0.48233E+03 
  39617.9325     0.48378E+03 
  39650.1946     0.48523E+03 
  39682.4568     0.48666E+03 
  39714.7190     0.48808E+03 
  39746.9811     0.48948E+03 
  39779.2433     0.49088E+03 
  39811.5054     0.49226E+03 
  39843.7676     0.49362E+03 
  39876.0298     0.49498E+03 
  39908.2919     0.49631E+03 
  39940.5541     0.49764E+03 
  39972.8162     0.49895E+03 
  40005.0784     0.50025E+03 
  40037.3406     0.50154E+03 
  40069.6027     0.50281E+03 
  40101.8649     0.50406E+03 
  40134.1270     0.50531E+03 
  40166.3892     0.50654E+03 
  40198.6514     0.50775E+03 
  40230.9135     0.50895E+03 
  40263.1757     0.51013E+03 
  40295.4378     0.51130E+03 
  40327.7000     0.51246E+03 
  40359.9622     0.51360E+03 
  40392.2243     0.51473E+03 
  40424.4865     0.51584E+03 
  40456.7486     0.51694E+03 
  40489.0108     0.51802E+03 
  40521.2730     0.51908E+03 
  40553.5351     0.52014E+03 
  40585.7973     0.52117E+03 
  40618.0594     0.52219E+03 
  40650.3216     0.52320E+03 
  40682.5838     0.52419E+03 
  40714.8459     0.52516E+03 
  40747.1081     0.52612E+03 
  40779.3702     0.52706E+03 
  40811.6324     0.52799E+03 
  40843.8946     0.52890E+03 
  40876.1567     0.52980E+03 
  40908.4189     0.53068E+03 
  40940.6810     0.53154E+03 
  40972.9432     0.53239E+03 
  41005.2054     0.53322E+03 
  41037.4675     0.53404E+03 
  41069.7297     0.53484E+03 
  41101.9918     0.53562E+03 
  41134.2540     0.53639E+03 
  41166.5162     0.53714E+03 
  41198.7783     0.53787E+03 
  41231.0405     0.53859E+03 
  41263.3026     0.53929E+03 
  41295.5648     0.53998E+03 
  41327.8270     0.54065E+03 
  41360.0891     0.54130E+03 
  41392.3513     0.54194E+03 
  41424.6134     0.54256E+03 
  41456.8756     0.54316E+03 
  41489.1378     0.54374E+03 
  41521.3999     0.54431E+03 
  41553.6621     0.54487E+03 
  41585.9242     0.54540E+03 
  41618.1864     0.54592E+03 
  41650.4486     0.54642E+03 
  41682.7107     0.54691E+03 
  41714.9729     0.54738E+03 
  41747.2350     0.54783E+03 
  41779.4972     0.54827E+03 
  41811.7594     0.54869E+03 
  41844.0215     0.54909E+03 
  41876.2837     0.54947E+03 
  41908.5458     0.54984E+03 
  41940.8080     0.55020E+03 
  41973.0702     0.55053E+03 
  42005.3323     0.55085E+03 
  42037.5945     0.55115E+03 
  42069.8566     0.55143E+03 
  42102.1188     0.55170E+03 
  42134.3810     0.55195E+03 
  42166.6431     0.55219E+03 
  42198.9053     0.55240E+03 
  42231.1674     0.55260E+03 
  42263.4296     0.55279E+03 
  42295.6918     0.55295E+03 
  42327.9539     0.55310E+03 
  42360.2161     0.55324E+03 
  42392.4782     0.55335E+03 
  42424.7404     0.55345E+03 
  42457.0026     0.55354E+03 
  42489.2647     0.55360E+03 
  42521.5269     0.55365E+03 
  42553.7890     0.55369E+03 
  42586.0512     0.55371E+03 
  42618.3134     0.55371E+03 
  42650.5755     0.55369E+03 
  42682.8377     0.55366E+03 
  42715.0998     0.55361E+03 
  42747.3620     0.55354E+03 
  42779.6242     0.55346E+03 
  42811.8863     0.55336E+03 
  42844.1485     0.55325E+03 
  42876.4106     0.55312E+03 
  42908.6728     0.55297E+03 
  42940.9350     0.55281E+03 
  42973.1971     0.55263E+03 
  43005.4593     0.55243E+03 
  43037.7214     0.55222E+03 
  43069.9836     0.55199E+03 
  43102.2458     0.55175E+03 
  43134.5079     0.55149E+03 
  43166.7701     0.55121E+03 
  43199.0322     0.55092E+03 
  43231.2944     0.55061E+03 
  43263.5566     0.55029E+03 
  43295.8187     0.54995E+03 
  43328.0809     0.54960E+03 
  43360.3430     0.54923E+03 
  43392.6052     0.54884E+03 
  43424.8674     0.54844E+03 
  43457.1295     0.54803E+03 
  43489.3917     0.54760E+03 
  43521.6538     0.54715E+03 
  43553.9160     0.54669E+03 
  43586.1782     0.54621E+03 
  43618.4403     0.54572E+03 
  43650.7025     0.54521E+03 
  43682.9646     0.54469E+03 
  43715.2268     0.54416E+03 
  43747.4890     0.54361E+03 
  43779.7511     0.54304E+03 
  43812.0133     0.54246E+03 
  43844.2754     0.54186E+03 
  43876.5376     0.54126E+03 
  43908.7998     0.54063E+03 
  43941.0619     0.53999E+03 
  43973.3241     0.53934E+03 
  44005.5862     0.53867E+03 
  44037.8484     0.53799E+03 
  44070.1106     0.53730E+03 
  44102.3727     0.53659E+03 
  44134.6349     0.53587E+03 
  44166.8970     0.53513E+03 
  44199.1592     0.53438E+03 
  44231.4214     0.53362E+03 
  44263.6835     0.53284E+03 
  44295.9457     0.53205E+03 
  44328.2078     0.53125E+03 
  44360.4700     0.53043E+03 
  44392.7322     0.52960E+03 
  44424.9943     0.52876E+03 
  44457.2565     0.52790E+03 
  44489.5186     0.52704E+03 
  44521.7808     0.52615E+03 
  44554.0430     0.52526E+03 
  44586.3051     0.52435E+03 
  44618.5673     0.52343E+03 
  44650.8294     0.52250E+03 
  44683.0916     0.52156E+03 
  44715.3538     0.52060E+03 
  44747.6159     0.51963E+03 
  44779.8781     0.51865E+03 
  44812.1402     0.51766E+03 
  44844.4024     0.51666E+03 
  44876.6646     0.51564E+03 
  44908.9267     0.51461E+03 
  44941.1889     0.51358E+03 
  44973.4510     0.51253E+03 
  45005.7132     0.51146E+03 
  45037.9754     0.51039E+03 
  45070.2375     0.50931E+03 
  45102.4997     0.50821E+03 
  45134.7618     0.50711E+03 
  45167.0240     0.50599E+03 
  45199.2862     0.50486E+03 
  45231.5483     0.50373E+03 
  45263.8105     0.50258E+03 
  45296.0726     0.50142E+03 
  45328.3348     0.50025E+03 
  45360.5970     0.49907E+03 
  45392.8591     0.49788E+03 
  45425.1213     0.49668E+03 
  45457.3834     0.49547E+03 
  45489.6456     0.49425E+03 
  45521.9078     0.49303E+03 
  45554.1699     0.49179E+03 
  45586.4321     0.49054E+03 
  45618.6942     0.48928E+03 
  45650.9564     0.48802E+03 
  45683.2186     0.48674E+03 
  45715.4807     0.48546E+03 
  45747.7429     0.48417E+03 
  45780.0050     0.48287E+03 
  45812.2672     0.48156E+03 
  45844.5294     0.48024E+03 
  45876.7915     0.47891E+03 
  45909.0537     0.47757E+03 
  45941.3158     0.47623E+03 
  45973.5780     0.47488E+03 
  46005.8402     0.47352E+03 
  46038.1023     0.47215E+03 
  46070.3645     0.47077E+03 
  46102.6266     0.46939E+03 
  46134.8888     0.46800E+03 
  46167.1510     0.46660E+03 
  46199.4131     0.46520E+03 
  46231.6753     0.46378E+03 
  46263.9374     0.46236E+03 
  46296.1996     0.46094E+03 
  46328.4618     0.45950E+03 
  46360.7239     0.45806E+03 
  46392.9861     0.45661E+03 
  46425.2482     0.45516E+03 
  46457.5104     0.45370E+03 
  46489.7726     0.45223E+03 
  46522.0347     0.45076E+03 
  46554.2969     0.44928E+03 
  46586.5590     0.44779E+03 
  46618.8212     0.44630E+03 
  46651.0834     0.44480E+03 
  46683.3455     0.44330E+03 
  46715.6077     0.44179E+03 
  46747.8698     0.44028E+03 
  46780.1320     0.43876E+03 
  46812.3942     0.43724E+03 
  46844.6563     0.43571E+03 
  46876.9185     0.43417E+03 
  46909.1806     0.43263E+03 
  46941.4428     0.43109E+03 
  46973.7050     0.42954E+03 
  47005.9671     0.42798E+03 
  47038.2293     0.42642E+03 
  47070.4914     0.42486E+03 
  47102.7536     0.42329E+03 
  47135.0158     0.42172E+03 
  47167.2779     0.42015E+03 
  47199.5401     0.41857E+03 
  47231.8022     0.41698E+03 
  47264.0644     0.41539E+03 
  47296.3266     0.41380E+03 
  47328.5887     0.41221E+03 
  47360.8509     0.41061E+03 
  47393.1130     0.40901E+03 
  47425.3752     0.40740E+03 
  47457.6374     0.40579E+03 
  47489.8995     0.40418E+03 
  47522.1617     0.40257E+03 
  47554.4238     0.40095E+03 
  47586.6860     0.39933E+03 
  47618.9482     0.39771E+03 
  47651.2103     0.39608E+03 
  47683.4725     0.39445E+03 
  47715.7346     0.39282E+03 
  47747.9968     0.39119E+03 
  47780.2590     0.38956E+03 
  47812.5211     0.38792E+03 
  47844.7833     0.38628E+03 
  47877.0454     0.38464E+03 
  47909.3076     0.38300E+03 
  47941.5698     0.38135E+03 
  47973.8319     0.37971E+03 
  48006.0941     0.37806E+03 
  48038.3562     0.37641E+03 
  48070.6184     0.37476E+03 
  48102.8806     0.37311E+03 
  48135.1427     0.37145E+03 
  48167.4049     0.36980E+03 
  48199.6670     0.36814E+03 
  48231.9292     0.36649E+03 
  48264.1914     0.36483E+03 
  48296.4535     0.36317E+03 
  48328.7157     0.36152E+03 
  48360.9778     0.35986E+03 
  48393.2400     0.35820E+03 
  48425.5022     0.35654E+03 
  48457.7643     0.35488E+03 
  48490.0265     0.35322E+03 
  48522.2886     0.35156E+03 
  48554.5508     0.34990E+03 
  48586.8130     0.34824E+03 
  48619.0751     0.34658E+03 
  48651.3373     0.34492E+03 
  48683.5994     0.34326E+03 
  48715.8616     0.34160E+03 
  48748.1238     0.33994E+03 
  48780.3859     0.33828E+03 
  48812.6481     0.33662E+03 
  48844.9102     0.33496E+03 
  48877.1724     0.33331E+03 
  48909.4346     0.33165E+03 
  48941.6967     0.33000E+03 
  48973.9589     0.32834E+03 
  49006.2210     0.32669E+03 
  49038.4832     0.32504E+03 
  49070.7454     0.32339E+03 
  49103.0075     0.32174E+03 
  49135.2697     0.32009E+03 
  49167.5318     0.31844E+03 
  49199.7940     0.31680E+03 
  49232.0562     0.31516E+03 
  49264.3183     0.31351E+03 
  49296.5805     0.31187E+03 
  49328.8426     0.31024E+03 
  49361.1048     0.30860E+03 
  49393.3670     0.30696E+03 
  49425.6291     0.30533E+03 
  49457.8913     0.30370E+03 
  49490.1534     0.30207E+03 
  49522.4156     0.30045E+03 
  49554.6778     0.29882E+03 
  49586.9399     0.29720E+03 
  49619.2021     0.29558E+03 
  49651.4642     0.29396E+03 
  49683.7264     0.29235E+03 
  49715.9886     0.29074E+03 
  49748.2507     0.28913E+03 
  49780.5129     0.28752E+03 
  49812.7750     0.28592E+03 
  49845.0372     0.28432E+03 
  49877.2994     0.28272E+03 
  49909.5615     0.28112E+03 
  49941.8237     0.27953E+03 
  49974.0858     0.27794E+03 
  50006.3480     0.27635E+03 
  50038.6102     0.27477E+03 
  50070.8723     0.27319E+03 
  50103.1345     0.27161E+03 
  50135.3966     0.27004E+03 
  50167.6588     0.26847E+03 
  50199.9210     0.26690E+03 
  50232.1831     0.26534E+03 
  50264.4453     0.26378E+03 
  50296.7074     0.26222E+03 
  50328.9696     0.26066E+03 
  50361.2318     0.25912E+03 
  50393.4939     0.25757E+03 
  50425.7561     0.25603E+03 
  50458.0182     0.25449E+03 
  50490.2804     0.25295E+03 
  50522.5426     0.25142E+03 
  50554.8047     0.24989E+03 
  50587.0669     0.24837E+03 
  50619.3290     0.24685E+03 
  50651.5912     0.24534E+03 
  50683.8534     0.24383E+03 
  50716.1155     0.24232E+03 
  50748.3777     0.24082E+03 
  50780.6398     0.23932E+03 
  50812.9020     0.23782E+03 
  50845.1642     0.23633E+03 
  50877.4263     0.23484E+03 
  50909.6885     0.23336E+03 
  50941.9506     0.23189E+03 
  50974.2128     0.23041E+03 
  51006.4750     0.22894E+03 
  51038.7371     0.22748E+03 
  51070.9993     0.22602E+03 
  51103.2614     0.22456E+03 
  51135.5236     0.22311E+03 
  51167.7858     0.22167E+03 
  51200.0479     0.22022E+03 
  51232.3101     0.21879E+03 
  51264.5722     0.21736E+03 
  51296.8344     0.21593E+03 
  51329.0966     0.21450E+03 
  51361.3587     0.21309E+03 
  51393.6209     0.21167E+03 
  51425.8830     0.21026E+03 
  51458.1452     0.20886E+03 
  51490.4074     0.20746E+03 
  51522.6695     0.20607E+03 
  51554.9317     0.20468E+03 
  51587.1938     0.20329E+03 
  51619.4560     0.20191E+03 
  51651.7182     0.20054E+03 
  51683.9803     0.19917E+03 
  51716.2425     0.19781E+03 
  51748.5046     0.19645E+03 
  51780.7668     0.19509E+03 
  51813.0290     0.19374E+03 
  51845.2911     0.19240E+03 
  51877.5533     0.19106E+03 
  51909.8154     0.18973E+03 
  51942.0776     0.18840E+03 
  51974.3398     0.18708E+03 
  52006.6019     0.18576E+03 
  52038.8641     0.18444E+03 
  52071.1262     0.18314E+03 
  52103.3884     0.18183E+03 
  52135.6506     0.18054E+03 
  52167.9127     0.17924E+03 
  52200.1749     0.17796E+03 
  52232.4370     0.17668E+03 
  52264.6992     0.17540E+03 
  52296.9614     0.17413E+03 
  52329.2235     0.17286E+03 
  52361.4857     0.17160E+03 
  52393.7478     0.17035E+03 
  52426.0100     0.16910E+03 
  52458.2722     0.16786E+03 
  52490.5343     0.16662E+03 
  52522.7965     0.16538E+03 
  52555.0586     0.16416E+03 
  52587.3208     0.16293E+03 
  52619.5830     0.16172E+03 
  52651.8451     0.16050E+03 
  52684.1073     0.15930E+03 
  52716.3694     0.15810E+03 
  52748.6316     0.15690E+03 
  52780.8938     0.15571E+03 
  52813.1559     0.15453E+03 
  52845.4181     0.15335E+03 
  52877.6802     0.15217E+03 
  52909.9424     0.15101E+03 
  52942.2046     0.14984E+03 
  52974.4667     0.14869E+03 
  53006.7289     0.14754E+03 
  53038.9910     0.14639E+03 
  53071.2532     0.14525E+03 
  53103.5154     0.14411E+03 
  53135.7775     0.14298E+03 
  53168.0397     0.14186E+03 
  53200.3018     0.14074E+03 
  53232.5640     0.13963E+03 
  53264.8262     0.13852E+03 
  53297.0883     0.13742E+03 
  53329.3505     0.13632E+03 
  53361.6126     0.13523E+03 
  53393.8748     0.13414E+03 
  53426.1370     0.13306E+03 
  53458.3991     0.13199E+03 
  53490.6613     0.13092E+03 
  53522.9234     0.12986E+03 
  53555.1856     0.12880E+03 
  53587.4478     0.12774E+03 
  53619.7099     0.12670E+03 
  53651.9721     0.12565E+03 
  53684.2342     0.12462E+03 
  53716.4964     0.12359E+03 
  53748.7586     0.12256E+03 
  53781.0207     0.12154E+03 
  53813.2829     0.12053E+03 
  53845.5450     0.11952E+03 
  53877.8072     0.11851E+03 
  53910.0694     0.11751E+03 
  53942.3315     0.11652E+03 
  53974.5937     0.11553E+03 
  54006.8558     0.11455E+03 
  54039.1180     0.11357E+03 
  54071.3802     0.11260E+03 
  54103.6423     0.11164E+03 
  54135.9045     0.11068E+03 
  54168.1666     0.10972E+03 
  54200.4288     0.10877E+03 
  54232.6910     0.10782E+03 
  54264.9531     0.10689E+03 
  54297.2153     0.10595E+03 
  54329.4774     0.10502E+03 
  54361.7396     0.10410E+03 
  54394.0018     0.10318E+03 
  54426.2639     0.10227E+03 
  54458.5261     0.10136E+03 
  54490.7882     0.10046E+03 
  54523.0504     0.99559E+02 
  54555.3126     0.98667E+02 
  54587.5747     0.97781E+02 
  54619.8369     0.96899E+02 
  54652.0990     0.96022E+02 
  54684.3612     0.95151E+02 
  54716.6234     0.94285E+02 
  54748.8855     0.93424E+02 
  54781.1477     0.92568E+02 
  54813.4098     0.91718E+02 
  54845.6720     0.90872E+02 
  54877.9342     0.90032E+02 
  54910.1963     0.89196E+02 
  54942.4585     0.88366E+02 
  54974.7206     0.87541E+02 
  55006.9828     0.86721E+02 
  55039.2450     0.85906E+02 
  55071.5071     0.85096E+02 
  55103.7693     0.84291E+02 
  55136.0314     0.83490E+02 
  55168.2936     0.82695E+02 
  55200.5558     0.81905E+02 
  55232.8179     0.81120E+02 
  55265.0801     0.80340E+02 
  55297.3422     0.79564E+02 
  55329.6044     0.78794E+02 
  55361.8666     0.78028E+02 
  55394.1287     0.77268E+02 
  55426.3909     0.76512E+02 
  55458.6530     0.75761E+02 
  55490.9152     0.75015E+02 
  55523.1774     0.74273E+02 
  55555.4395     0.73537E+02 
  55587.7017     0.72805E+02 
  55619.9638     0.72078E+02 
  55652.2260     0.71356E+02 
  55684.4882     0.70638E+02 
  55716.7503     0.69925E+02 
  55749.0125     0.69217E+02 
  55781.2746     0.68513E+02 
  55813.5368     0.67815E+02 
  55845.7990     0.67120E+02 
  55878.0611     0.66431E+02 
  55910.3233     0.65746E+02 
  55942.5854     0.65066E+02 
  55974.8476     0.64390E+02 
  56007.1098     0.63719E+02 
  56039.3719     0.63052E+02 
  56071.6341     0.62390E+02 
  56103.8962     0.61732E+02 
  56136.1584     0.61079E+02 
  56168.4206     0.60430E+02 
  56200.6827     0.59786E+02 
  56232.9449     0.59146E+02 
  56265.2070     0.58511E+02 
  56297.4692     0.57880E+02 
  56329.7314     0.57254E+02 
  56361.9935     0.56631E+02 
  56394.2557     0.56013E+02 
  56426.5178     0.55400E+02 
  56458.7800     0.54791E+02 
  56491.0422     0.54186E+02 
  56523.3043     0.53585E+02 
  56555.5665     0.52989E+02 
  56587.8286     0.52397E+02 
  56620.0908     0.51809E+02 
  56652.3530     0.51225E+02 
  56684.6151     0.50646E+02 
  56716.8773     0.50070E+02 
  56749.1394     0.49499E+02 
  56781.4016     0.48932E+02 
  56813.6638     0.48369E+02 
  56845.9259     0.47810E+02 
  56878.1881     0.47255E+02 
  56910.4502     0.46705E+02 
  56942.7124     0.46158E+02 
  56974.9746     0.45616E+02 
  57007.2367     0.45077E+02 
  57039.4989     0.44542E+02 
  57071.7610     0.44012E+02 
  57104.0232     0.43485E+02 
  57136.2854     0.42962E+02 
  57168.5475     0.42444E+02 
  57200.8097     0.41929E+02 
  57233.0718     0.41418E+02 
  57265.3340     0.40911E+02 
  57297.5962     0.40407E+02 
  57329.8583     0.39908E+02 
  57362.1205     0.39412E+02 
  57394.3826     0.38921E+02 
  57426.6448     0.38433E+02 
  57458.9070     0.37948E+02 
  57491.1691     0.37468E+02 
  57523.4313     0.36991E+02 
  57555.6934     0.36518E+02 
  57587.9556     0.36049E+02 
  57620.2178     0.35583E+02 
  57652.4799     0.35121E+02 
  57684.7421     0.34663E+02 
  57717.0042     0.34208E+02 
  57749.2664     0.33757E+02 
  57781.5286     0.33310E+02 
  57813.7907     0.32866E+02 
  57846.0529     0.32426E+02 
  57878.3150     0.31989E+02 
  57910.5772     0.31556E+02 
  57942.8394     0.31126E+02 
  57975.1015     0.30700E+02 
  58007.3637     0.30277E+02 
  58039.6258     0.29858E+02 
  58071.8880     0.29442E+02 
  58104.1502     0.29030E+02 
  58136.4123     0.28621E+02 
  58168.6745     0.28215E+02 
  58200.9366     0.27813E+02 
  58233.1988     0.27415E+02 
  58265.4610     0.27019E+02 
  58297.7231     0.26627E+02 
  58329.9853     0.26239E+02 
  58362.2474     0.25853E+02 
  58394.5096     0.25471E+02 
  58426.7718     0.25093E+02 
  58459.0339     0.24717E+02 
  58491.2961     0.24345E+02 
  58523.5582     0.23976E+02 
  58555.8204     0.23611E+02 
  58588.0826     0.23248E+02 
  58620.3447     0.22889E+02 
  58652.6069     0.22533E+02 
  58684.8690     0.22180E+02 
  58717.1312     0.21830E+02 
  58749.3934     0.21484E+02 
  58781.6555     0.21140E+02 
  58813.9177     0.20800E+02 
  58846.1798     0.20463E+02 
  58878.4420     0.20129E+02 
  58910.7042     0.19798E+02 
  58942.9663     0.19470E+02 
  58975.2285     0.19145E+02 
  59007.4906     0.18824E+02 
  59039.7528     0.18505E+02 
  59072.0150     0.18189E+02 
  59104.2771     0.17877E+02 
  59136.5393     0.17567E+02 
  59168.8014     0.17260E+02 
  59201.0636     0.16957E+02 
  59233.3258     0.16656E+02 
  59265.5879     0.16359E+02 
  59297.8501     0.16064E+02 
  59330.1122     0.15772E+02 
  59362.3744     0.15483E+02 
  59394.6366     0.15197E+02 
  59426.8987     0.14914E+02 
  59459.1609     0.14634E+02 
  59491.4230     0.14357E+02 
  59523.6852     0.14083E+02 
  59555.9474     0.13812E+02 
  59588.2095     0.13543E+02 
  59620.4717     0.13277E+02 
  59652.7338     0.13015E+02 
  59684.9960     0.12755E+02 
  59717.2582     0.12498E+02 
  59749.5203     0.12243E+02 
  59781.7825     0.11992E+02 
  59814.0446     0.11743E+02 
  59846.3068     0.11498E+02 
  59878.5690     0.11255E+02 
  59910.8311     0.11014E+02 
  59943.0933     0.10777E+02 
  59975.3554     0.10542E+02 
  60007.6176     0.10311E+02 
  60039.8798     0.10082E+02 
  60072.1419     0.98554E+01 
  60104.4041     0.96319E+01 
  60136.6662     0.94112E+01 
  60168.9284     0.91933E+01 
  60201.1906     0.89782E+01 
  60233.4527     0.87657E+01 
  60265.7149     0.85561E+01 
  60297.9770     0.83492E+01 
  60330.2392     0.81450E+01 
  60362.5014     0.79436E+01 
  60394.7635     0.77449E+01 
  60427.0257     0.75490E+01 
  60459.2878     0.73558E+01 
  60491.5500     0.71654E+01 
  60523.8122     0.69777E+01 
  60556.0743     0.67927E+01 
  60588.3365     0.66104E+01 
  60620.5986     0.64310E+01 
  60652.8608     0.62542E+01 
  60685.1230     0.60802E+01 
  60717.3851     0.59089E+01 
  60749.6473     0.57404E+01 
  60781.9094     0.55746E+01 
  60814.1716     0.54116E+01 
  60846.4338     0.52513E+01 
  60878.6959     0.50938E+01 
  60910.9581     0.49390E+01 
  60943.2202     0.47870E+01 
  60975.4824     0.46377E+01 
  61007.7446     0.44913E+01 
  61040.0067     0.43476E+01 
  61072.2689     0.42067E+01 
  61104.5310     0.40685E+01 
  61136.7932     0.39332E+01 
  61169.0554     0.38007E+01 
  61201.3175     0.36710E+01 
  61233.5797     0.35441E+01 
  61265.8418     0.34200E+01 
  61298.1040     0.32987E+01 
  61330.3662     0.31803E+01 
  61362.6283     0.30648E+01 
  61394.8905     0.29521E+01 
  61427.1526     0.28423E+01 
  61459.4148     0.27354E+01 
  61491.6770     0.26314E+01 
  61523.9391     0.25303E+01 
  61556.2013     0.24321E+01 
  61588.4634     0.23368E+01 
  61620.7256     0.22445E+01 
  61652.9878     0.21552E+01 
  61685.2499     0.20689E+01 
  61717.5121     0.19855E+01 
  61749.7742     0.19052E+01 
  61782.0364     0.18279E+01 
  61814.2986     0.17536E+01 
  61846.5607     0.16824E+01 
  61878.8229     0.16143E+01 
  61911.0850     0.15493E+01 
  61943.3472     0.14874E+01 
  61975.6094     0.14287E+01 
  62007.8715     0.13731E+01 
  62040.1337     0.13207E+01 
  62072.3958     0.12715E+01 
  62104.6580     0.12256E+01 
  62136.9202     0.11829E+01 
  62169.1823     0.11435E+01 
  62201.4445     0.11075E+01 
  62233.7066     0.10747E+01 
  62265.9688     0.10454E+01 
  62298.2310     0.10194E+01 
  62330.4931     0.99682E+00 
  62362.7553     0.97772E+00 
  62395.0174     0.96209E+00 
  62427.2796     0.94999E+00 
  62459.5418     0.94143E+00 
  62491.8039     0.93645E+00 
  62524.0661     0.93508E+00 
  62556.3282     0.93737E+00 
  62588.5904     0.94334E+00 
  62620.8526     0.95303E+00 
  62653.1147     0.96648E+00 
  62685.3769     0.98373E+00 
  62717.6390     0.10048E+01 
  62749.9012     0.10298E+01 
  62782.1634     0.10587E+01 
  62814.4255     0.10915E+01 
  62846.6877     0.11284E+01 
  62878.9498     0.11693E+01 
  62911.2120     0.12143E+01 
  62943.4742     0.12635E+01 
  62975.7363     0.13168E+01 
  63007.9985     0.13744E+01 
  63040.2606     0.14363E+01 
  63072.5228     0.15026E+01 
  63104.7850     0.15732E+01 
  63137.0471     0.16483E+01 
  63169.3093     0.17279E+01 
  63201.5714     0.18121E+01 
  63233.8336     0.19009E+01 
  63266.0958     0.19944E+01 
  63298.3579     0.20926E+01 
  63330.6201     0.21956E+01 
  63362.8822     0.23035E+01 
  63395.1444     0.24163E+01 
  63427.4066     0.25341E+01 
  63459.6687     0.26570E+01 
  63491.9309     0.27851E+01 
  63524.1930     0.29183E+01 
  63556.4552     0.30568E+01 
  63588.7174     0.32007E+01 
  63620.9795     0.33500E+01 
  63653.2417     0.35047E+01 
  63685.5038     0.36651E+01 
  63717.7660     0.38312E+01 
  63750.0282     0.40029E+01 
  63782.2903     0.41805E+01 
  63814.5525     0.43640E+01 
  63846.8146     0.45536E+01 
  63879.0768     0.47492E+01 
  63911.3390     0.49509E+01 
  63943.6011     0.51590E+01 
  63975.8633     0.53734E+01 
  64008.1254     0.55942E+01 
  64040.3876     0.58216E+01 
  64072.6498     0.60557E+01 
  64104.9119     0.62965E+01 
  64137.1741     0.65442E+01 
  64169.4362     0.67988E+01 
  64201.6984     0.70605E+01 
  64233.9606     0.73294E+01 
  64266.2227     0.76056E+01 
  64298.4849     0.78892E+01 
  64330.7470     0.81803E+01 
  64363.0092     0.84790E+01 
  64395.2714     0.87856E+01 
  64427.5335     0.90999E+01 
  64459.7957     0.94223E+01 
  64492.0578     0.97529E+01 
  64524.3200     0.10092E+02 
  64556.5822     0.10439E+02 
  64588.8443     0.10795E+02 
  64621.1065     0.11159E+02 
  64653.3686     0.11532E+02 
  64685.6308     0.11914E+02 
  64717.8930     0.12305E+02 
  64750.1551     0.12706E+02 
  64782.4173     0.13116E+02 
  64814.6794     0.13535E+02 
  64846.9416     0.13964E+02 
  64879.2038     0.14403E+02 
  64911.4659     0.14852E+02 
  64943.7281     0.15311E+02 
  64975.9902     0.15781E+02 
  65008.2524     0.16261E+02 
  65040.5146     0.16751E+02 
  65072.7767     0.17253E+02 
  65105.0389     0.17765E+02 
  65137.3010     0.18289E+02 
  65169.5632     0.18824E+02 
  65201.8254     0.19371E+02 
  65234.0875     0.19930E+02 
  65266.3497     0.20500E+02 
  65298.6118     0.21083E+02 
  65330.8740     0.21678E+02 
  65363.1362     0.22285E+02 
  65395.3983     0.22906E+02 
  65427.6605     0.23539E+02 
  65459.9226     0.24186E+02 
  65492.1848     0.24846E+02 
  65524.4470     0.25519E+02 
  65556.7091     0.26207E+02 
  65588.9713     0.26908E+02 
  65621.2334     0.27624E+02 
  65653.4956     0.28355E+02 
  65685.7578     0.29100E+02 
  65718.0199     0.29860E+02 
  65750.2821     0.30635E+02 
  65782.5442     0.31427E+02 
  65814.8064     0.32233E+02 
  65847.0686     0.33056E+02 
  65879.3307     0.33895E+02 
  65911.5929     0.34751E+02 
  65943.8550     0.35624E+02 
  65976.1172     0.36513E+02 
  66008.3794     0.37420E+02 
  66040.6415     0.38345E+02 
  66072.9037     0.39288E+02 
  66105.1658     0.40248E+02 
  66137.4280     0.41228E+02 
  66169.6902     0.42226E+02 
  66201.9523     0.43243E+02 
  66234.2145     0.44280E+02 
  66266.4766     0.45337E+02 
  66298.7388     0.46413E+02 
  66331.0010     0.47510E+02 
  66363.2631     0.48628E+02 
  66395.5253     0.49767E+02 
  66427.7874     0.50927E+02 
  66460.0496     0.52109E+02 
  66492.3118     0.53313E+02 
  66524.5739     0.54539E+02 
  66556.8361     0.55788E+02 
  66589.0982     0.57061E+02 
  66621.3604     0.58356E+02 
  66653.6226     0.59676E+02 
  66685.8847     0.61020E+02 
  66718.1469     0.62388E+02 
  66750.4090     0.63781E+02 
  66782.6712     0.65200E+02 
  66814.9334     0.66645E+02 
  66847.1955     0.68115E+02 
  66879.4577     0.69612E+02 
  66911.7198     0.71137E+02 
  66943.9820     0.72688E+02 
  66976.2442     0.74267E+02 
  67008.5063     0.75875E+02 
  67040.7685     0.77511E+02 
  67073.0306     0.79177E+02 
  67105.2928     0.80871E+02 
  67137.5550     0.82596E+02 
  67169.8171     0.84351E+02 
  67202.0793     0.86137E+02 
  67234.3414     0.87955E+02 
  67266.6036     0.89804E+02 
  67298.8658     0.91685E+02 
  67331.1279     0.93600E+02 
  67363.3901     0.95547E+02 
  67395.6522     0.97528E+02 
  67427.9144     0.99544E+02 
  67460.1766     0.10159E+03 
  67492.4387     0.10368E+03 
  67524.7009     0.10580E+03 
  67556.9630     0.10796E+03 
  67589.2252     0.11015E+03 
  67621.4874     0.11238E+03 
  67653.7495     0.11465E+03 
  67686.0117     0.11696E+03 
  67718.2738     0.11931E+03 
  67750.5360     0.12169E+03 
  67782.7982     0.12412E+03 
  67815.0603     0.12658E+03 
  67847.3225     0.12909E+03 
  67879.5846     0.13164E+03 
  67911.8468     0.13423E+03 
  67944.1090     0.13687E+03 
  67976.3711     0.13954E+03 
  68008.6333     0.14227E+03 
  68040.8954     0.14503E+03 
  68073.1576     0.14784E+03 
  68105.4198     0.15070E+03 
  68137.6819     0.15361E+03 
  68169.9441     0.15656E+03 
  68202.2062     0.15956E+03 
  68234.4684     0.16260E+03 
  68266.7306     0.16570E+03 
  68298.9927     0.16885E+03 
  68331.2549     0.17204E+03 
  68363.5170     0.17529E+03 
  68395.7792     0.17859E+03 
  68428.0414     0.18194E+03 
  68460.3035     0.18534E+03 
  68492.5657     0.18880E+03 
  68524.8278     0.19231E+03 
  68557.0900     0.19588E+03 
  68589.3522     0.19951E+03 
  68621.6143     0.20318E+03 
  68653.8765     0.20692E+03 
  68686.1386     0.21072E+03 
  68718.4008     0.21457E+03 
  68750.6630     0.21848E+03 
  68782.9251     0.22245E+03 
  68815.1873     0.22649E+03 
  68847.4494     0.23058E+03 
  68879.7116     0.23474E+03 
  68911.9738     0.23896E+03 
  68944.2359     0.24324E+03 
  68976.4981     0.24759E+03 
  69008.7602     0.25200E+03 
  69041.0224     0.25648E+03 
  69073.2846     0.26103E+03 
  69105.5467     0.26564E+03 
  69137.8089     0.27033E+03 
  69170.0710     0.27508E+03 
  69202.3332     0.27990E+03 
  69234.5954     0.28479E+03 
  69266.8575     0.28975E+03 
  69299.1197     0.29479E+03 
  69331.3818     0.29990E+03 
  69363.6440     0.30508E+03 
  69395.9062     0.31034E+03 
  69428.1683     0.31567E+03 
  69460.4305     0.32108E+03 
  69492.6926     0.32657E+03 
  69524.9548     0.33214E+03 
  69557.2170     0.33778E+03 
  69589.4791     0.34351E+03 
  69621.7413     0.34931E+03 
  69654.0034     0.35520E+03 
  69686.2656     0.36116E+03 
  69718.5278     0.36722E+03 
  69750.7899     0.37335E+03 
  69783.0521     0.37957E+03 
  69815.3142     0.38588E+03 
  69847.5764     0.39227E+03 
  69879.8386     0.39875E+03 
  69912.1007     0.40532E+03 
  69944.3629     0.41198E+03 
  69976.6250     0.41872E+03 
  70008.8872     0.42556E+03 
  70041.1494     0.43249E+03 
  70073.4115     0.43952E+03 
  70105.6737     0.44663E+03 
  70137.9358     0.45385E+03 
  70170.1980     0.46115E+03 
  70202.4602     0.46856E+03 
  70234.7223     0.47606E+03 
  70266.9845     0.48365E+03 
  70299.2466     0.49135E+03 
  70331.5088     0.49915E+03 
  70363.7710     0.50704E+03 
  70396.0331     0.51504E+03 
  70428.2953     0.52314E+03 
  70460.5574     0.53135E+03 
  70492.8196     0.53966E+03 
  70525.0818     0.54807E+03 
  70557.3439     0.55659E+03 
  70589.6061     0.56522E+03 
  70621.8682     0.57395E+03 
  70654.1304     0.58280E+03 
  70686.3926     0.59175E+03 
  70718.6547     0.60081E+03 
  70750.9169     0.60999E+03 
  70783.1790     0.61927E+03 
  70815.4412     0.62867E+03 
  70847.7034     0.63819E+03 
  70879.9655     0.64782E+03 
  70912.2277     0.65756E+03 
  70944.4898     0.66742E+03 
  70976.7520     0.67740E+03 
  71009.0142     0.68750E+03 
  71041.2763     0.69771E+03 
  71073.5385     0.70805E+03 
  71105.8006     0.71850E+03 
  71138.0628     0.72908E+03 
  71170.3250     0.73978E+03 
  71202.5871     0.75061E+03 
  71234.8493     0.76156E+03 
  71267.1114     0.77263E+03 
  71299.3736     0.78383E+03 
  71331.6358     0.79515E+03 
  71363.8979     0.80661E+03 
  71396.1601     0.81819E+03 
  71428.4222     0.82990E+03 
  71460.6844     0.84174E+03 
  71492.9466     0.85371E+03 
  71525.2087     0.86582E+03 
  71557.4709     0.87805E+03 
  71589.7330     0.89042E+03 
  71621.9952     0.90292E+03 
  71654.2574     0.91556E+03 
  71686.5195     0.92833E+03 
  71718.7817     0.94124E+03 
  71751.0438     0.95429E+03 
  71783.3060     0.96747E+03 
  71815.5682     0.98079E+03 
  71847.8303     0.99425E+03 
  71880.0925     0.10078E+04 
  71912.3546     0.10216E+04 
  71944.6168     0.10355E+04 
  71976.8790     0.10495E+04 
  72009.1411     0.10637E+04 
  72041.4033     0.10780E+04 
  72073.6654     0.10924E+04 
  72105.9276     0.11070E+04 
  72138.1898     0.11218E+04 
  72170.4519     0.11366E+04 
  72202.7141     0.11517E+04 
  72234.9762     0.11669E+04 
  72267.2384     0.11822E+04 
  72299.5006     0.11977E+04 
  72331.7627     0.12133E+04 
  72364.0249     0.12291E+04 
  72396.2870     0.12450E+04 
  72428.5492     0.12610E+04 
  72460.8114     0.12773E+04 
  72493.0735     0.12936E+04 
  72525.3357     0.13102E+04 
  72557.5978     0.13268E+04 
  72589.8600     0.13437E+04 
