  32262.1600     0.23734E+02 
  32294.4222     0.24033E+02 
  32326.6843     0.24334E+02 
  32358.9465     0.24637E+02 
  32391.2086     0.24943E+02 
  32423.4708     0.25252E+02 
  32455.7330     0.25563E+02 
  32487.9951     0.25877E+02 
  32520.2573     0.26193E+02 
  32552.5194     0.26512E+02 
  32584.7816     0.26833E+02 
  32617.0438     0.27157E+02 
  32649.3059     0.27483E+02 
  32681.5681     0.27812E+02 
  32713.8302     0.28144E+02 
  32746.0924     0.28478E+02 
  32778.3546     0.28814E+02 
  32810.6167     0.29153E+02 
  32842.8789     0.29495E+02 
  32875.1410     0.29839E+02 
  32907.4032     0.30186E+02 
  32939.6654     0.30535E+02 
  32971.9275     0.30887E+02 
  33004.1897     0.31241E+02 
  33036.4518     0.31598E+02 
  33068.7140     0.31957E+02 
  33100.9762     0.32319E+02 
  33133.2383     0.32683E+02 
  33165.5005     0.33050E+02 
  33197.7626     0.33419E+02 
  33230.0248     0.33791E+02 
  33262.2870     0.34165E+02 
  33294.5491     0.34541E+02 
  33326.8113     0.34921E+02 
  33359.0734     0.35302E+02 
  33391.3356     0.35686E+02 
  33423.5978     0.36073E+02 
  33455.8599     0.36461E+02 
  33488.1221     0.36853E+02 
  33520.3842     0.37246E+02 
  33552.6464     0.37643E+02 
  33584.9086     0.38041E+02 
  33617.1707     0.38442E+02 
  33649.4329     0.38845E+02 
  33681.6950     0.39251E+02 
  33713.9572     0.39659E+02 
  33746.2194     0.40069E+02 
  33778.4815     0.40481E+02 
  33810.7437     0.40896E+02 
  33843.0058     0.41313E+02 
  33875.2680     0.41733E+02 
  33907.5302     0.42154E+02 
  33939.7923     0.42578E+02 
  33972.0545     0.43005E+02 
  34004.3166     0.43433E+02 
  34036.5788     0.43864E+02 
  34068.8410     0.44296E+02 
  34101.1031     0.44731E+02 
  34133.3653     0.45168E+02 
  34165.6274     0.45608E+02 
  34197.8896     0.46049E+02 
  34230.1518     0.46492E+02 
  34262.4139     0.46938E+02 
  34294.6761     0.47386E+02 
  34326.9382     0.47835E+02 
  34359.2004     0.48287E+02 
  34391.4626     0.48741E+02 
  34423.7247     0.49196E+02 
  34455.9869     0.49654E+02 
  34488.2490     0.50113E+02 
  34520.5112     0.50575E+02 
  34552.7734     0.51038E+02 
  34585.0355     0.51504E+02 
  34617.2977     0.51971E+02 
  34649.5598     0.52440E+02 
  34681.8220     0.52910E+02 
  34714.0842     0.53383E+02 
  34746.3463     0.53857E+02 
  34778.6085     0.54333E+02 
  34810.8706     0.54811E+02 
  34843.1328     0.55291E+02 
  34875.3950     0.55772E+02 
  34907.6571     0.56255E+02 
  34939.9193     0.56739E+02 
  34972.1814     0.57225E+02 
  35004.4436     0.57713E+02 
  35036.7058     0.58202E+02 
  35068.9679     0.58693E+02 
  35101.2301     0.59185E+02 
  35133.4922     0.59678E+02 
  35165.7544     0.60173E+02 
  35198.0166     0.60670E+02 
  35230.2787     0.61167E+02 
  35262.5409     0.61666E+02 
  35294.8030     0.62167E+02 
  35327.0652     0.62669E+02 
  35359.3274     0.63172E+02 
  35391.5895     0.63676E+02 
  35423.8517     0.64181E+02 
  35456.1138     0.64688E+02 
  35488.3760     0.65195E+02 
  35520.6382     0.65704E+02 
  35552.9003     0.66214E+02 
  35585.1625     0.66725E+02 
  35617.4246     0.67237E+02 
  35649.6868     0.67750E+02 
  35681.9490     0.68264E+02 
  35714.2111     0.68778E+02 
  35746.4733     0.69294E+02 
  35778.7354     0.69810E+02 
  35810.9976     0.70328E+02 
  35843.2598     0.70846E+02 
  35875.5219     0.71364E+02 
  35907.7841     0.71884E+02 
  35940.0462     0.72404E+02 
  35972.3084     0.72925E+02 
  36004.5706     0.73446E+02 
  36036.8327     0.73968E+02 
  36069.0949     0.74491E+02 
  36101.3570     0.75014E+02 
  36133.6192     0.75537E+02 
  36165.8814     0.76061E+02 
  36198.1435     0.76585E+02 
  36230.4057     0.77110E+02 
  36262.6678     0.77635E+02 
  36294.9300     0.78160E+02 
  36327.1922     0.78686E+02 
  36359.4543     0.79212E+02 
  36391.7165     0.79737E+02 
  36423.9786     0.80263E+02 
  36456.2408     0.80789E+02 
  36488.5030     0.81316E+02 
  36520.7651     0.81842E+02 
  36553.0273     0.82368E+02 
  36585.2894     0.82894E+02 
  36617.5516     0.83420E+02 
  36649.8138     0.83946E+02 
  36682.0759     0.84472E+02 
  36714.3381     0.84997E+02 
  36746.6002     0.85522E+02 
  36778.8624     0.86047E+02 
  36811.1246     0.86572E+02 
  36843.3867     0.87096E+02 
  36875.6489     0.87620E+02 
  36907.9110     0.88144E+02 
  36940.1732     0.88667E+02 
  36972.4354     0.89189E+02 
  37004.6975     0.89711E+02 
  37036.9597     0.90232E+02 
  37069.2218     0.90753E+02 
  37101.4840     0.91273E+02 
  37133.7462     0.91792E+02 
  37166.0083     0.92311E+02 
  37198.2705     0.92829E+02 
  37230.5326     0.93346E+02 
  37262.7948     0.93862E+02 
  37295.0570     0.94377E+02 
  37327.3191     0.94891E+02 
  37359.5813     0.95404E+02 
  37391.8434     0.95916E+02 
  37424.1056     0.96427E+02 
  37456.3678     0.96937E+02 
  37488.6299     0.97446E+02 
  37520.8921     0.97954E+02 
  37553.1542     0.98460E+02 
  37585.4164     0.98965E+02 
  37617.6786     0.99469E+02 
  37649.9407     0.99972E+02 
  37682.2029     0.10047E+03 
  37714.4650     0.10097E+03 
  37746.7272     0.10147E+03 
  37778.9894     0.10197E+03 
  37811.2515     0.10246E+03 
  37843.5137     0.10296E+03 
  37875.7758     0.10345E+03 
  37908.0380     0.10394E+03 
  37940.3002     0.10443E+03 
  37972.5623     0.10491E+03 
  38004.8245     0.10540E+03 
  38037.0866     0.10588E+03 
  38069.3488     0.10637E+03 
  38101.6110     0.10684E+03 
  38133.8731     0.10732E+03 
  38166.1353     0.10780E+03 
  38198.3974     0.10827E+03 
  38230.6596     0.10874E+03 
  38262.9218     0.10921E+03 
  38295.1839     0.10968E+03 
  38327.4461     0.11015E+03 
  38359.7082     0.11061E+03 
  38391.9704     0.11107E+03 
  38424.2326     0.11153E+03 
  38456.4947     0.11199E+03 
  38488.7569     0.11244E+03 
  38521.0190     0.11289E+03 
  38553.2812     0.11334E+03 
  38585.5434     0.11379E+03 
  38617.8055     0.11423E+03 
  38650.0677     0.11468E+03 
  38682.3298     0.11512E+03 
  38714.5920     0.11555E+03 
  38746.8542     0.11599E+03 
  38779.1163     0.11642E+03 
  38811.3785     0.11685E+03 
  38843.6406     0.11728E+03 
  38875.9028     0.11770E+03 
  38908.1650     0.11812E+03 
  38940.4271     0.11854E+03 
  38972.6893     0.11895E+03 
  39004.9514     0.11937E+03 
  39037.2136     0.11978E+03 
  39069.4758     0.12018E+03 
  39101.7379     0.12059E+03 
  39134.0001     0.12099E+03 
  39166.2622     0.12138E+03 
  39198.5244     0.12178E+03 
  39230.7866     0.12217E+03 
  39263.0487     0.12256E+03 
  39295.3109     0.12295E+03 
  39327.5730     0.12333E+03 
  39359.8352     0.12371E+03 
  39392.0974     0.12408E+03 
  39424.3595     0.12445E+03 
  39456.6217     0.12482E+03 
  39488.8838     0.12519E+03 
  39521.1460     0.12555E+03 
  39553.4082     0.12591E+03 
  39585.6703     0.12627E+03 
  39617.9325     0.12662E+03 
  39650.1946     0.12697E+03 
  39682.4568     0.12732E+03 
  39714.7190     0.12766E+03 
  39746.9811     0.12800E+03 
  39779.2433     0.12833E+03 
  39811.5054     0.12866E+03 
  39843.7676     0.12899E+03 
  39876.0298     0.12932E+03 
  39908.2919     0.12964E+03 
  39940.5541     0.12995E+03 
  39972.8162     0.13027E+03 
  40005.0784     0.13058E+03 
  40037.3406     0.13088E+03 
  40069.6027     0.13118E+03 
  40101.8649     0.13148E+03 
  40134.1270     0.13178E+03 
  40166.3892     0.13207E+03 
  40198.6514     0.13236E+03 
  40230.9135     0.13264E+03 
  40263.1757     0.13292E+03 
  40295.4378     0.13319E+03 
  40327.7000     0.13347E+03 
  40359.9622     0.13373E+03 
  40392.2243     0.13400E+03 
  40424.4865     0.13426E+03 
  40456.7486     0.13451E+03 
  40489.0108     0.13477E+03 
  40521.2730     0.13501E+03 
  40553.5351     0.13526E+03 
  40585.7973     0.13550E+03 
  40618.0594     0.13573E+03 
  40650.3216     0.13596E+03 
  40682.5838     0.13619E+03 
  40714.8459     0.13642E+03 
  40747.1081     0.13664E+03 
  40779.3702     0.13685E+03 
  40811.6324     0.13706E+03 
  40843.8946     0.13727E+03 
  40876.1567     0.13747E+03 
  40908.4189     0.13767E+03 
  40940.6810     0.13787E+03 
  40972.9432     0.13806E+03 
  41005.2054     0.13824E+03 
  41037.4675     0.13843E+03 
  41069.7297     0.13860E+03 
  41101.9918     0.13878E+03 
  41134.2540     0.13895E+03 
  41166.5162     0.13911E+03 
  41198.7783     0.13927E+03 
  41231.0405     0.13943E+03 
  41263.3026     0.13958E+03 
  41295.5648     0.13973E+03 
  41327.8270     0.13988E+03 
  41360.0891     0.14002E+03 
  41392.3513     0.14015E+03 
  41424.6134     0.14028E+03 
  41456.8756     0.14041E+03 
  41489.1378     0.14053E+03 
  41521.3999     0.14065E+03 
  41553.6621     0.14077E+03 
  41585.9242     0.14088E+03 
  41618.1864     0.14098E+03 
  41650.4486     0.14108E+03 
  41682.7107     0.14118E+03 
  41714.9729     0.14127E+03 
  41747.2350     0.14136E+03 
  41779.4972     0.14145E+03 
  41811.7594     0.14153E+03 
  41844.0215     0.14160E+03 
  41876.2837     0.14167E+03 
  41908.5458     0.14174E+03 
  41940.8080     0.14180E+03 
  41973.0702     0.14186E+03 
  42005.3323     0.14192E+03 
  42037.5945     0.14197E+03 
  42069.8566     0.14201E+03 
  42102.1188     0.14205E+03 
  42134.3810     0.14209E+03 
  42166.6431     0.14212E+03 
  42198.9053     0.14215E+03 
  42231.1674     0.14218E+03 
  42263.4296     0.14220E+03 
  42295.6918     0.14221E+03 
  42327.9539     0.14223E+03 
  42360.2161     0.14223E+03 
  42392.4782     0.14224E+03 
  42424.7404     0.14224E+03 
  42457.0026     0.14223E+03 
  42489.2647     0.14222E+03 
  42521.5269     0.14221E+03 
  42553.7890     0.14219E+03 
  42586.0512     0.14217E+03 
  42618.3134     0.14214E+03 
  42650.5755     0.14211E+03 
  42682.8377     0.14208E+03 
  42715.0998     0.14204E+03 
  42747.3620     0.14200E+03 
  42779.6242     0.14195E+03 
  42811.8863     0.14190E+03 
  42844.1485     0.14185E+03 
  42876.4106     0.14179E+03 
  42908.6728     0.14172E+03 
  42940.9350     0.14166E+03 
  42973.1971     0.14159E+03 
  43005.4593     0.14151E+03 
  43037.7214     0.14143E+03 
  43069.9836     0.14135E+03 
  43102.2458     0.14126E+03 
  43134.5079     0.14117E+03 
  43166.7701     0.14108E+03 
  43199.0322     0.14098E+03 
  43231.2944     0.14087E+03 
  43263.5566     0.14077E+03 
  43295.8187     0.14066E+03 
  43328.0809     0.14054E+03 
  43360.3430     0.14042E+03 
  43392.6052     0.14030E+03 
  43424.8674     0.14018E+03 
  43457.1295     0.14005E+03 
  43489.3917     0.13991E+03 
  43521.6538     0.13978E+03 
  43553.9160     0.13964E+03 
  43586.1782     0.13949E+03 
  43618.4403     0.13934E+03 
  43650.7025     0.13919E+03 
  43682.9646     0.13904E+03 
  43715.2268     0.13888E+03 
  43747.4890     0.13871E+03 
  43779.7511     0.13855E+03 
  43812.0133     0.13838E+03 
  43844.2754     0.13820E+03 
  43876.5376     0.13803E+03 
  43908.7998     0.13784E+03 
  43941.0619     0.13766E+03 
  43973.3241     0.13747E+03 
  44005.5862     0.13728E+03 
  44037.8484     0.13709E+03 
  44070.1106     0.13689E+03 
  44102.3727     0.13669E+03 
  44134.6349     0.13648E+03 
  44166.8970     0.13627E+03 
  44199.1592     0.13606E+03 
  44231.4214     0.13585E+03 
  44263.6835     0.13563E+03 
  44295.9457     0.13541E+03 
  44328.2078     0.13518E+03 
  44360.4700     0.13496E+03 
  44392.7322     0.13472E+03 
  44424.9943     0.13449E+03 
  44457.2565     0.13425E+03 
  44489.5186     0.13401E+03 
  44521.7808     0.13377E+03 
  44554.0430     0.13352E+03 
  44586.3051     0.13327E+03 
  44618.5673     0.13302E+03 
  44650.8294     0.13277E+03 
  44683.0916     0.13251E+03 
  44715.3538     0.13225E+03 
  44747.6159     0.13198E+03 
  44779.8781     0.13171E+03 
  44812.1402     0.13144E+03 
  44844.4024     0.13117E+03 
  44876.6646     0.13089E+03 
  44908.9267     0.13062E+03 
  44941.1889     0.13033E+03 
  44973.4510     0.13005E+03 
  45005.7132     0.12976E+03 
  45037.9754     0.12947E+03 
  45070.2375     0.12918E+03 
  45102.4997     0.12889E+03 
  45134.7618     0.12859E+03 
  45167.0240     0.12829E+03 
  45199.2862     0.12799E+03 
  45231.5483     0.12768E+03 
  45263.8105     0.12737E+03 
  45296.0726     0.12706E+03 
  45328.3348     0.12675E+03 
  45360.5970     0.12644E+03 
  45392.8591     0.12612E+03 
  45425.1213     0.12580E+03 
  45457.3834     0.12548E+03 
  45489.6456     0.12515E+03 
  45521.9078     0.12483E+03 
  45554.1699     0.12450E+03 
  45586.4321     0.12417E+03 
  45618.6942     0.12383E+03 
  45650.9564     0.12350E+03 
  45683.2186     0.12316E+03 
  45715.4807     0.12282E+03 
  45747.7429     0.12248E+03 
  45780.0050     0.12214E+03 
  45812.2672     0.12179E+03 
  45844.5294     0.12144E+03 
  45876.7915     0.12109E+03 
  45909.0537     0.12074E+03 
  45941.3158     0.12039E+03 
  45973.5780     0.12003E+03 
  46005.8402     0.11967E+03 
  46038.1023     0.11931E+03 
  46070.3645     0.11895E+03 
  46102.6266     0.11859E+03 
  46134.8888     0.11823E+03 
  46167.1510     0.11786E+03 
  46199.4131     0.11749E+03 
  46231.6753     0.11712E+03 
  46263.9374     0.11675E+03 
  46296.1996     0.11638E+03 
  46328.4618     0.11600E+03 
  46360.7239     0.11563E+03 
  46392.9861     0.11525E+03 
  46425.2482     0.11487E+03 
  46457.5104     0.11449E+03 
  46489.7726     0.11411E+03 
  46522.0347     0.11372E+03 
  46554.2969     0.11334E+03 
  46586.5590     0.11295E+03 
  46618.8212     0.11256E+03 
  46651.0834     0.11218E+03 
  46683.3455     0.11179E+03 
  46715.6077     0.11139E+03 
  46747.8698     0.11100E+03 
  46780.1320     0.11061E+03 
  46812.3942     0.11021E+03 
  46844.6563     0.10982E+03 
  46876.9185     0.10942E+03 
  46909.1806     0.10902E+03 
  46941.4428     0.10862E+03 
  46973.7050     0.10822E+03 
  47005.9671     0.10782E+03 
  47038.2293     0.10741E+03 
  47070.4914     0.10701E+03 
  47102.7536     0.10661E+03 
  47135.0158     0.10620E+03 
  47167.2779     0.10579E+03 
  47199.5401     0.10539E+03 
  47231.8022     0.10498E+03 
  47264.0644     0.10457E+03 
  47296.3266     0.10416E+03 
  47328.5887     0.10375E+03 
  47360.8509     0.10334E+03 
  47393.1130     0.10292E+03 
  47425.3752     0.10251E+03 
  47457.6374     0.10210E+03 
  47489.8995     0.10168E+03 
  47522.1617     0.10127E+03 
  47554.4238     0.10085E+03 
  47586.6860     0.10044E+03 
  47618.9482     0.10002E+03 
  47651.2103     0.99605E+02 
  47683.4725     0.99187E+02 
  47715.7346     0.98769E+02 
  47747.9968     0.98351E+02 
  47780.2590     0.97932E+02 
  47812.5211     0.97512E+02 
  47844.7833     0.97093E+02 
  47877.0454     0.96673E+02 
  47909.3076     0.96252E+02 
  47941.5698     0.95832E+02 
  47973.8319     0.95411E+02 
  48006.0941     0.94989E+02 
  48038.3562     0.94568E+02 
  48070.6184     0.94146E+02 
  48102.8806     0.93724E+02 
  48135.1427     0.93302E+02 
  48167.4049     0.92880E+02 
  48199.6670     0.92457E+02 
  48231.9292     0.92035E+02 
  48264.1914     0.91612E+02 
  48296.4535     0.91190E+02 
  48328.7157     0.90767E+02 
  48360.9778     0.90344E+02 
  48393.2400     0.89921E+02 
  48425.5022     0.89498E+02 
  48457.7643     0.89076E+02 
  48490.0265     0.88653E+02 
  48522.2886     0.88230E+02 
  48554.5508     0.87808E+02 
  48586.8130     0.87385E+02 
  48619.0751     0.86963E+02 
  48651.3373     0.86541E+02 
  48683.5994     0.86119E+02 
  48715.8616     0.85697E+02 
  48748.1238     0.85276E+02 
  48780.3859     0.84854E+02 
  48812.6481     0.84433E+02 
  48844.9102     0.84012E+02 
  48877.1724     0.83592E+02 
  48909.4346     0.83172E+02 
  48941.6967     0.82752E+02 
  48973.9589     0.82332E+02 
  49006.2210     0.81913E+02 
  49038.4832     0.81494E+02 
  49070.7454     0.81075E+02 
  49103.0075     0.80657E+02 
  49135.2697     0.80240E+02 
  49167.5318     0.79823E+02 
  49199.7940     0.79406E+02 
  49232.0562     0.78990E+02 
  49264.3183     0.78574E+02 
  49296.5805     0.78159E+02 
  49328.8426     0.77744E+02 
  49361.1048     0.77330E+02 
  49393.3670     0.76916E+02 
  49425.6291     0.76503E+02 
  49457.8913     0.76091E+02 
  49490.1534     0.75679E+02 
  49522.4156     0.75268E+02 
  49554.6778     0.74857E+02 
  49586.9399     0.74447E+02 
  49619.2021     0.74038E+02 
  49651.4642     0.73629E+02 
  49683.7264     0.73222E+02 
  49715.9886     0.72814E+02 
  49748.2507     0.72408E+02 
  49780.5129     0.72002E+02 
  49812.7750     0.71597E+02 
  49845.0372     0.71193E+02 
  49877.2994     0.70790E+02 
  49909.5615     0.70387E+02 
  49941.8237     0.69985E+02 
  49974.0858     0.69584E+02 
  50006.3480     0.69184E+02 
  50038.6102     0.68785E+02 
  50070.8723     0.68386E+02 
  50103.1345     0.67989E+02 
  50135.3966     0.67592E+02 
  50167.6588     0.67196E+02 
  50199.9210     0.66801E+02 
  50232.1831     0.66407E+02 
  50264.4453     0.66014E+02 
  50296.7074     0.65622E+02 
  50328.9696     0.65231E+02 
  50361.2318     0.64841E+02 
  50393.4939     0.64451E+02 
  50425.7561     0.64063E+02 
  50458.0182     0.63676E+02 
  50490.2804     0.63290E+02 
  50522.5426     0.62904E+02 
  50554.8047     0.62520E+02 
  50587.0669     0.62137E+02 
  50619.3290     0.61755E+02 
  50651.5912     0.61374E+02 
  50683.8534     0.60994E+02 
  50716.1155     0.60615E+02 
  50748.3777     0.60237E+02 
  50780.6398     0.59860E+02 
  50812.9020     0.59484E+02 
  50845.1642     0.59110E+02 
  50877.4263     0.58736E+02 
  50909.6885     0.58364E+02 
  50941.9506     0.57993E+02 
  50974.2128     0.57623E+02 
  51006.4750     0.57254E+02 
  51038.7371     0.56886E+02 
  51070.9993     0.56520E+02 
  51103.2614     0.56154E+02 
  51135.5236     0.55790E+02 
  51167.7858     0.55427E+02 
  51200.0479     0.55065E+02 
  51232.3101     0.54704E+02 
  51264.5722     0.54345E+02 
  51296.8344     0.53987E+02 
  51329.0966     0.53630E+02 
  51361.3587     0.53274E+02 
  51393.6209     0.52920E+02 
  51425.8830     0.52566E+02 
  51458.1452     0.52214E+02 
  51490.4074     0.51863E+02 
  51522.6695     0.51514E+02 
  51554.9317     0.51165E+02 
  51587.1938     0.50818E+02 
  51619.4560     0.50473E+02 
  51651.7182     0.50128E+02 
  51683.9803     0.49785E+02 
  51716.2425     0.49443E+02 
  51748.5046     0.49103E+02 
  51780.7668     0.48763E+02 
  51813.0290     0.48425E+02 
  51845.2911     0.48089E+02 
  51877.5533     0.47753E+02 
  51909.8154     0.47419E+02 
  51942.0776     0.47086E+02 
  51974.3398     0.46755E+02 
  52006.6019     0.46425E+02 
  52038.8641     0.46096E+02 
  52071.1262     0.45769E+02 
  52103.3884     0.45442E+02 
  52135.6506     0.45118E+02 
  52167.9127     0.44794E+02 
  52200.1749     0.44472E+02 
  52232.4370     0.44151E+02 
  52264.6992     0.43832E+02 
  52296.9614     0.43514E+02 
  52329.2235     0.43197E+02 
  52361.4857     0.42882E+02 
  52393.7478     0.42568E+02 
  52426.0100     0.42255E+02 
  52458.2722     0.41944E+02 
  52490.5343     0.41634E+02 
  52522.7965     0.41326E+02 
  52555.0586     0.41019E+02 
  52587.3208     0.40713E+02 
  52619.5830     0.40409E+02 
  52651.8451     0.40106E+02 
  52684.1073     0.39804E+02 
  52716.3694     0.39504E+02 
  52748.6316     0.39205E+02 
  52780.8938     0.38907E+02 
  52813.1559     0.38611E+02 
  52845.4181     0.38317E+02 
  52877.6802     0.38023E+02 
  52909.9424     0.37731E+02 
  52942.2046     0.37441E+02 
  52974.4667     0.37152E+02 
  53006.7289     0.36864E+02 
  53038.9910     0.36577E+02 
  53071.2532     0.36292E+02 
  53103.5154     0.36009E+02 
  53135.7775     0.35726E+02 
  53168.0397     0.35445E+02 
  53200.3018     0.35166E+02 
  53232.5640     0.34888E+02 
  53264.8262     0.34611E+02 
  53297.0883     0.34336E+02 
  53329.3505     0.34062E+02 
  53361.6126     0.33789E+02 
  53393.8748     0.33518E+02 
  53426.1370     0.33248E+02 
  53458.3991     0.32980E+02 
  53490.6613     0.32713E+02 
  53522.9234     0.32447E+02 
  53555.1856     0.32183E+02 
  53587.4478     0.31920E+02 
  53619.7099     0.31658E+02 
  53651.9721     0.31398E+02 
  53684.2342     0.31139E+02 
  53716.4964     0.30882E+02 
  53748.7586     0.30626E+02 
  53781.0207     0.30371E+02 
  53813.2829     0.30117E+02 
  53845.5450     0.29865E+02 
  53877.8072     0.29615E+02 
  53910.0694     0.29366E+02 
  53942.3315     0.29118E+02 
  53974.5937     0.28871E+02 
  54006.8558     0.28626E+02 
  54039.1180     0.28382E+02 
  54071.3802     0.28140E+02 
  54103.6423     0.27898E+02 
  54135.9045     0.27659E+02 
  54168.1666     0.27420E+02 
  54200.4288     0.27183E+02 
  54232.6910     0.26947E+02 
  54264.9531     0.26713E+02 
  54297.2153     0.26480E+02 
  54329.4774     0.26248E+02 
  54361.7396     0.26017E+02 
  54394.0018     0.25788E+02 
  54426.2639     0.25560E+02 
  54458.5261     0.25334E+02 
  54490.7882     0.25109E+02 
  54523.0504     0.24885E+02 
  54555.3126     0.24662E+02 
  54587.5747     0.24441E+02 
  54619.8369     0.24221E+02 
  54652.0990     0.24002E+02 
  54684.3612     0.23785E+02 
  54716.6234     0.23569E+02 
  54748.8855     0.23354E+02 
  54781.1477     0.23141E+02 
  54813.4098     0.22928E+02 
  54845.6720     0.22717E+02 
  54877.9342     0.22508E+02 
  54910.1963     0.22299E+02 
  54942.4585     0.22092E+02 
  54974.7206     0.21886E+02 
  55006.9828     0.21682E+02 
  55039.2450     0.21478E+02 
  55071.5071     0.21276E+02 
  55103.7693     0.21076E+02 
  55136.0314     0.20876E+02 
  55168.2936     0.20678E+02 
  55200.5558     0.20481E+02 
  55232.8179     0.20285E+02 
  55265.0801     0.20090E+02 
  55297.3422     0.19897E+02 
  55329.6044     0.19704E+02 
  55361.8666     0.19513E+02 
  55394.1287     0.19324E+02 
  55426.3909     0.19135E+02 
  55458.6530     0.18948E+02 
  55490.9152     0.18762E+02 
  55523.1774     0.18577E+02 
  55555.4395     0.18393E+02 
  55587.7017     0.18211E+02 
  55619.9638     0.18029E+02 
  55652.2260     0.17849E+02 
  55684.4882     0.17670E+02 
  55716.7503     0.17492E+02 
  55749.0125     0.17316E+02 
  55781.2746     0.17140E+02 
  55813.5368     0.16966E+02 
  55845.7990     0.16793E+02 
  55878.0611     0.16621E+02 
  55910.3233     0.16450E+02 
  55942.5854     0.16280E+02 
  55974.8476     0.16112E+02 
  56007.1098     0.15944E+02 
  56039.3719     0.15778E+02 
  56071.6341     0.15613E+02 
  56103.8962     0.15449E+02 
  56136.1584     0.15286E+02 
  56168.4206     0.15124E+02 
  56200.6827     0.14963E+02 
  56232.9449     0.14804E+02 
  56265.2070     0.14645E+02 
  56297.4692     0.14488E+02 
  56329.7314     0.14332E+02 
  56361.9935     0.14176E+02 
  56394.2557     0.14022E+02 
  56426.5178     0.13869E+02 
  56458.7800     0.13717E+02 
  56491.0422     0.13566E+02 
  56523.3043     0.13417E+02 
  56555.5665     0.13268E+02 
  56587.8286     0.13120E+02 
  56620.0908     0.12973E+02 
  56652.3530     0.12828E+02 
  56684.6151     0.12683E+02 
  56716.8773     0.12540E+02 
  56749.1394     0.12397E+02 
  56781.4016     0.12256E+02 
  56813.6638     0.12115E+02 
  56845.9259     0.11976E+02 
  56878.1881     0.11837E+02 
  56910.4502     0.11700E+02 
  56942.7124     0.11564E+02 
  56974.9746     0.11428E+02 
  57007.2367     0.11294E+02 
  57039.4989     0.11161E+02 
  57071.7610     0.11028E+02 
  57104.0232     0.10897E+02 
  57136.2854     0.10766E+02 
  57168.5475     0.10637E+02 
  57200.8097     0.10508E+02 
  57233.0718     0.10381E+02 
  57265.3340     0.10254E+02 
  57297.5962     0.10129E+02 
  57329.8583     0.10004E+02 
  57362.1205     0.98805E+01 
  57394.3826     0.97578E+01 
  57426.6448     0.96360E+01 
  57458.9070     0.95151E+01 
  57491.1691     0.93952E+01 
  57523.4313     0.92763E+01 
  57555.6934     0.91582E+01 
  57587.9556     0.90411E+01 
  57620.2178     0.89248E+01 
  57652.4799     0.88095E+01 
  57684.7421     0.86952E+01 
  57717.0042     0.85817E+01 
  57749.2664     0.84691E+01 
  57781.5286     0.83574E+01 
  57813.7907     0.82466E+01 
  57846.0529     0.81367E+01 
  57878.3150     0.80277E+01 
  57910.5772     0.79195E+01 
  57942.8394     0.78122E+01 
  57975.1015     0.77058E+01 
  58007.3637     0.76003E+01 
  58039.6258     0.74957E+01 
  58071.8880     0.73919E+01 
  58104.1502     0.72889E+01 
  58136.4123     0.71868E+01 
  58168.6745     0.70856E+01 
  58200.9366     0.69852E+01 
  58233.1988     0.68856E+01 
  58265.4610     0.67869E+01 
  58297.7231     0.66890E+01 
  58329.9853     0.65920E+01 
  58362.2474     0.64957E+01 
  58394.5096     0.64003E+01 
  58426.7718     0.63058E+01 
  58459.0339     0.62120E+01 
  58491.2961     0.61190E+01 
  58523.5582     0.60269E+01 
  58555.8204     0.59356E+01 
  58588.0826     0.58450E+01 
  58620.3447     0.57553E+01 
  58652.6069     0.56663E+01 
  58684.8690     0.55782E+01 
  58717.1312     0.54908E+01 
  58749.3934     0.54042E+01 
  58781.6555     0.53184E+01 
  58813.9177     0.52334E+01 
  58846.1798     0.51492E+01 
  58878.4420     0.50657E+01 
  58910.7042     0.49830E+01 
  58942.9663     0.49011E+01 
  58975.2285     0.48199E+01 
  59007.4906     0.47395E+01 
  59039.7528     0.46599E+01 
  59072.0150     0.45810E+01 
  59104.2771     0.45028E+01 
  59136.5393     0.44254E+01 
  59168.8014     0.43488E+01 
  59201.0636     0.42729E+01 
  59233.3258     0.41977E+01 
  59265.5879     0.41233E+01 
  59297.8501     0.40496E+01 
  59330.1122     0.39766E+01 
  59362.3744     0.39044E+01 
  59394.6366     0.38329E+01 
  59426.8987     0.37621E+01 
  59459.1609     0.36921E+01 
  59491.4230     0.36227E+01 
  59523.6852     0.35541E+01 
  59555.9474     0.34862E+01 
  59588.2095     0.34190E+01 
  59620.4717     0.33526E+01 
  59652.7338     0.32868E+01 
  59684.9960     0.32217E+01 
  59717.2582     0.31574E+01 
  59749.5203     0.30937E+01 
  59781.7825     0.30308E+01 
  59814.0446     0.29686E+01 
  59846.3068     0.29070E+01 
  59878.5690     0.28462E+01 
  59910.8311     0.27860E+01 
  59943.0933     0.27266E+01 
  59975.3554     0.26678E+01 
  60007.6176     0.26097E+01 
  60039.8798     0.25523E+01 
  60072.1419     0.24957E+01 
  60104.4041     0.24396E+01 
  60136.6662     0.23843E+01 
  60168.9284     0.23297E+01 
  60201.1906     0.22757E+01 
  60233.4527     0.22225E+01 
  60265.7149     0.21699E+01 
  60297.9770     0.21180E+01 
  60330.2392     0.20667E+01 
  60362.5014     0.20162E+01 
  60394.7635     0.19663E+01 
  60427.0257     0.19171E+01 
  60459.2878     0.18686E+01 
  60491.5500     0.18207E+01 
  60523.8122     0.17736E+01 
  60556.0743     0.17271E+01 
  60588.3365     0.16813E+01 
  60620.5986     0.16361E+01 
  60652.8608     0.15917E+01 
  60685.1230     0.15479E+01 
  60717.3851     0.15048E+01 
  60749.6473     0.14624E+01 
  60781.9094     0.14206E+01 
  60814.1716     0.13795E+01 
  60846.4338     0.13392E+01 
  60878.6959     0.12994E+01 
  60910.9581     0.12604E+01 
  60943.2202     0.12220E+01 
  60975.4824     0.11844E+01 
  61007.7446     0.11474E+01 
  61040.0067     0.11110E+01 
  61072.2689     0.10754E+01 
  61104.5310     0.10405E+01 
  61136.7932     0.10062E+01 
  61169.0554     0.97264E+00 
  61201.3175     0.93976E+00 
  61233.5797     0.90758E+00 
  61265.8418     0.87608E+00 
  61298.1040     0.84528E+00 
  61330.3662     0.81518E+00 
  61362.6283     0.78577E+00 
  61394.8905     0.75707E+00 
  61427.1526     0.72908E+00 
  61459.4148     0.70178E+00 
  61491.6770     0.67520E+00 
  61523.9391     0.64933E+00 
  61556.2013     0.62418E+00 
  61588.4634     0.59974E+00 
  61620.7256     0.57603E+00 
  61652.9878     0.55303E+00 
  61685.2499     0.53077E+00 
  61717.5121     0.50924E+00 
  61749.7742     0.48844E+00 
  61782.0364     0.46838E+00 
  61814.2986     0.44907E+00 
  61846.5607     0.43050E+00 
  61878.8229     0.41269E+00 
  61911.0850     0.39563E+00 
  61943.3472     0.37933E+00 
  61975.6094     0.36380E+00 
  62007.8715     0.34903E+00 
  62040.1337     0.33505E+00 
  62072.3958     0.32184E+00 
  62104.6580     0.30942E+00 
  62136.9202     0.29780E+00 
  62169.1823     0.28697E+00 
  62201.4445     0.27694E+00 
  62233.7066     0.26773E+00 
  62265.9688     0.25933E+00 
  62298.2310     0.25176E+00 
  62330.4931     0.24501E+00 
  62362.7553     0.23910E+00 
  62395.0174     0.23404E+00 
  62427.2796     0.22983E+00 
  62459.5418     0.22648E+00 
  62491.8039     0.22400E+00 
  62524.0661     0.22239E+00 
  62556.3282     0.22166E+00 
  62588.5904     0.22183E+00 
  62620.8526     0.22290E+00 
  62653.1147     0.22488E+00 
  62685.3769     0.22778E+00 
  62717.6390     0.23160E+00 
  62749.9012     0.23637E+00 
  62782.1634     0.24208E+00 
  62814.4255     0.24875E+00 
  62846.6877     0.25640E+00 
  62878.9498     0.26502E+00 
  62911.2120     0.27463E+00 
  62943.4742     0.28525E+00 
  62975.7363     0.29688E+00 
  63007.9985     0.30953E+00 
  63040.2606     0.32323E+00 
  63072.5228     0.33797E+00 
  63104.7850     0.35378E+00 
  63137.0471     0.37067E+00 
  63169.3093     0.38865E+00 
  63201.5714     0.40773E+00 
  63233.8336     0.42793E+00 
  63266.0958     0.44926E+00 
  63298.3579     0.47174E+00 
  63330.6201     0.49538E+00 
  63362.8822     0.52020E+00 
  63395.1444     0.54621E+00 
  63427.4066     0.57344E+00 
  63459.6687     0.60189E+00 
  63491.9309     0.63158E+00 
  63524.1930     0.66254E+00 
  63556.4552     0.69477E+00 
  63588.7174     0.72830E+00 
  63620.9795     0.76315E+00 
  63653.2417     0.79933E+00 
  63685.5038     0.83687E+00 
  63717.7660     0.87578E+00 
  63750.0282     0.91608E+00 
  63782.2903     0.95780E+00 
  63814.5525     0.10010E+01 
  63846.8146     0.10456E+01 
  63879.0768     0.10917E+01 
  63911.3390     0.11392E+01 
  63943.6011     0.11884E+01 
  63975.8633     0.12390E+01 
  64008.1254     0.12913E+01 
  64040.3876     0.13451E+01 
  64072.6498     0.14006E+01 
  64104.9119     0.14577E+01 
  64137.1741     0.15165E+01 
  64169.4362     0.15769E+01 
  64201.6984     0.16391E+01 
  64233.9606     0.17031E+01 
  64266.2227     0.17689E+01 
  64298.4849     0.18364E+01 
  64330.7470     0.19058E+01 
  64363.0092     0.19771E+01 
  64395.2714     0.20503E+01 
  64427.5335     0.21254E+01 
  64459.7957     0.22025E+01 
  64492.0578     0.22816E+01 
  64524.3200     0.23627E+01 
  64556.5822     0.24458E+01 
  64588.8443     0.25311E+01 
  64621.1065     0.26185E+01 
  64653.3686     0.27081E+01 
  64685.6308     0.27999E+01 
  64717.8930     0.28940E+01 
  64750.1551     0.29903E+01 
  64782.4173     0.30889E+01 
  64814.6794     0.31899E+01 
  64846.9416     0.32934E+01 
  64879.2038     0.33992E+01 
  64911.4659     0.35075E+01 
  64943.7281     0.36184E+01 
  64975.9902     0.37319E+01 
  65008.2524     0.38479E+01 
  65040.5146     0.39666E+01 
  65072.7767     0.40881E+01 
  65105.0389     0.42122E+01 
  65137.3010     0.43392E+01 
  65169.5632     0.44690E+01 
  65201.8254     0.46018E+01 
  65234.0875     0.47374E+01 
  65266.3497     0.48761E+01 
  65298.6118     0.50178E+01 
  65330.8740     0.51627E+01 
  65363.1362     0.53106E+01 
  65395.3983     0.54618E+01 
  65427.6605     0.56163E+01 
  65459.9226     0.57741E+01 
  65492.1848     0.59353E+01 
  65524.4470     0.60999E+01 
  65556.7091     0.62680E+01 
  65588.9713     0.64397E+01 
  65621.2334     0.66151E+01 
  65653.4956     0.67941E+01 
  65685.7578     0.69768E+01 
  65718.0199     0.71634E+01 
  65750.2821     0.73538E+01 
  65782.5442     0.75482E+01 
  65814.8064     0.77467E+01 
  65847.0686     0.79492E+01 
  65879.3307     0.81559E+01 
  65911.5929     0.83668E+01 
  65943.8550     0.85820E+01 
  65976.1172     0.88016E+01 
  66008.3794     0.90256E+01 
  66040.6415     0.92542E+01 
  66072.9037     0.94874E+01 
  66105.1658     0.97252E+01 
  66137.4280     0.99679E+01 
  66169.6902     0.10215E+02 
  66201.9523     0.10468E+02 
  66234.2145     0.10725E+02 
  66266.4766     0.10988E+02 
  66298.7388     0.11255E+02 
  66331.0010     0.11528E+02 
  66363.2631     0.11807E+02 
  66395.5253     0.12091E+02 
  66427.7874     0.12380E+02 
  66460.0496     0.12675E+02 
  66492.3118     0.12976E+02 
  66524.5739     0.13282E+02 
  66556.8361     0.13595E+02 
  66589.0982     0.13913E+02 
  66621.3604     0.14238E+02 
  66653.6226     0.14569E+02 
  66685.8847     0.14906E+02 
  66718.1469     0.15250E+02 
  66750.4090     0.15600E+02 
  66782.6712     0.15957E+02 
  66814.9334     0.16320E+02 
  66847.1955     0.16691E+02 
  66879.4577     0.17068E+02 
  66911.7198     0.17453E+02 
  66943.9820     0.17845E+02 
  66976.2442     0.18244E+02 
  67008.5063     0.18651E+02 
  67040.7685     0.19065E+02 
  67073.0306     0.19487E+02 
  67105.2928     0.19916E+02 
  67137.5550     0.20354E+02 
  67169.8171     0.20800E+02 
  67202.0793     0.21253E+02 
  67234.3414     0.21716E+02 
  67266.6036     0.22186E+02 
  67298.8658     0.22665E+02 
  67331.1279     0.23153E+02 
  67363.3901     0.23650E+02 
  67395.6522     0.24156E+02 
  67427.9144     0.24671E+02 
  67460.1766     0.25195E+02 
  67492.4387     0.25729E+02 
  67524.7009     0.26272E+02 
  67556.9630     0.26825E+02 
  67589.2252     0.27388E+02 
  67621.4874     0.27961E+02 
  67653.7495     0.28543E+02 
  67686.0117     0.29137E+02 
  67718.2738     0.29740E+02 
  67750.5360     0.30355E+02 
  67782.7982     0.30980E+02 
  67815.0603     0.31616E+02 
  67847.3225     0.32263E+02 
  67879.5846     0.32922E+02 
  67911.8468     0.33591E+02 
  67944.1090     0.34273E+02 
  67976.3711     0.34966E+02 
  68008.6333     0.35671E+02 
  68040.8954     0.36388E+02 
  68073.1576     0.37118E+02 
  68105.4198     0.37860E+02 
  68137.6819     0.38615E+02 
  68169.9441     0.39382E+02 
  68202.2062     0.40162E+02 
  68234.4684     0.40956E+02 
  68266.7306     0.41763E+02 
  68298.9927     0.42583E+02 
  68331.2549     0.43418E+02 
  68363.5170     0.44266E+02 
  68395.7792     0.45128E+02 
  68428.0414     0.46004E+02 
  68460.3035     0.46895E+02 
  68492.5657     0.47801E+02 
  68524.8278     0.48722E+02 
  68557.0900     0.49657E+02 
  68589.3522     0.50608E+02 
  68621.6143     0.51575E+02 
  68653.8765     0.52557E+02 
  68686.1386     0.53555E+02 
  68718.4008     0.54569E+02 
  68750.6630     0.55599E+02 
  68782.9251     0.56646E+02 
  68815.1873     0.57710E+02 
  68847.4494     0.58790E+02 
  68879.7116     0.59888E+02 
  68911.9738     0.61003E+02 
  68944.2359     0.62136E+02 
  68976.4981     0.63286E+02 
  69008.7602     0.64454E+02 
  69041.0224     0.65641E+02 
  69073.2846     0.66846E+02 
  69105.5467     0.68070E+02 
  69137.8089     0.69313E+02 
  69170.0710     0.70574E+02 
  69202.3332     0.71856E+02 
  69234.5954     0.73156E+02 
  69266.8575     0.74477E+02 
  69299.1197     0.75818E+02 
  69331.3818     0.77179E+02 
  69363.6440     0.78560E+02 
  69395.9062     0.79962E+02 
  69428.1683     0.81385E+02 
  69460.4305     0.82830E+02 
  69492.6926     0.84296E+02 
  69524.9548     0.85783E+02 
  69557.2170     0.87293E+02 
  69589.4791     0.88824E+02 
  69621.7413     0.90378E+02 
  69654.0034     0.91955E+02 
  69686.2656     0.93554E+02 
  69718.5278     0.95177E+02 
  69750.7899     0.96823E+02 
  69783.0521     0.98493E+02 
  69815.3142     0.10019E+03 
  69847.5764     0.10190E+03 
  69879.8386     0.10365E+03 
  69912.1007     0.10541E+03 
  69944.3629     0.10720E+03 
  69976.6250     0.10902E+03 
  70008.8872     0.11086E+03 
  70041.1494     0.11273E+03 
  70073.4115     0.11463E+03 
  70105.6737     0.11654E+03 
  70137.9358     0.11849E+03 
  70170.1980     0.12046E+03 
  70202.4602     0.12246E+03 
  70234.7223     0.12449E+03 
  70266.9845     0.12654E+03 
  70299.2466     0.12863E+03 
  70331.5088     0.13073E+03 
  70363.7710     0.13287E+03 
  70396.0331     0.13504E+03 
  70428.2953     0.13723E+03 
  70460.5574     0.13946E+03 
  70492.8196     0.14171E+03 
  70525.0818     0.14399E+03 
  70557.3439     0.14630E+03 
  70589.6061     0.14864E+03 
  70621.8682     0.15102E+03 
  70654.1304     0.15342E+03 
  70686.3926     0.15585E+03 
  70718.6547     0.15831E+03 
  70750.9169     0.16081E+03 
  70783.1790     0.16333E+03 
  70815.4412     0.16589E+03 
  70847.7034     0.16848E+03 
  70879.9655     0.17110E+03 
  70912.2277     0.17376E+03 
  70944.4898     0.17644E+03 
  70976.7520     0.17916E+03 
  71009.0142     0.18191E+03 
  71041.2763     0.18470E+03 
  71073.5385     0.18752E+03 
  71105.8006     0.19037E+03 
  71138.0628     0.19326E+03 
  71170.3250     0.19618E+03 
  71202.5871     0.19913E+03 
  71234.8493     0.20212E+03 
  71267.1114     0.20515E+03 
  71299.3736     0.20821E+03 
  71331.6358     0.21130E+03 
  71363.8979     0.21443E+03 
  71396.1601     0.21760E+03 
  71428.4222     0.22080E+03 
  71460.6844     0.22404E+03 
  71492.9466     0.22732E+03 
  71525.2087     0.23063E+03 
  71557.4709     0.23398E+03 
  71589.7330     0.23736E+03 
  71621.9952     0.24079E+03 
  71654.2574     0.24425E+03 
  71686.5195     0.24774E+03 
  71718.7817     0.25128E+03 
  71751.0438     0.25486E+03 
  71783.3060     0.25847E+03 
  71815.5682     0.26212E+03 
  71847.8303     0.26581E+03 
  71880.0925     0.26954E+03 
  71912.3546     0.27330E+03 
  71944.6168     0.27711E+03 
  71976.8790     0.28095E+03 
  72009.1411     0.28484E+03 
  72041.4033     0.28876E+03 
  72073.6654     0.29273E+03 
  72105.9276     0.29673E+03 
  72138.1898     0.30078E+03 
  72170.4519     0.30486E+03 
  72202.7141     0.30899E+03 
  72234.9762     0.31315E+03 
  72267.2384     0.31736E+03 
  72299.5006     0.32161E+03 
  72331.7627     0.32590E+03 
  72364.0249     0.33023E+03 
  72396.2870     0.33460E+03 
  72428.5492     0.33901E+03 
  72460.8114     0.34346E+03 
  72493.0735     0.34796E+03 
  72525.3357     0.35250E+03 
  72557.5978     0.35707E+03 
  72589.8600     0.36169E+03 
