  32262.1600     0.41811E+02 
  32294.4222     0.42381E+02 
  32326.6843     0.42956E+02 
  32358.9465     0.43538E+02 
  32391.2086     0.44124E+02 
  32423.4708     0.44717E+02 
  32455.7330     0.45315E+02 
  32487.9951     0.45919E+02 
  32520.2573     0.46528E+02 
  32552.5194     0.47143E+02 
  32584.7816     0.47764E+02 
  32617.0438     0.48391E+02 
  32649.3059     0.49023E+02 
  32681.5681     0.49661E+02 
  32713.8302     0.50305E+02 
  32746.0924     0.50955E+02 
  32778.3546     0.51610E+02 
  32810.6167     0.52271E+02 
  32842.8789     0.52938E+02 
  32875.1410     0.53611E+02 
  32907.4032     0.54289E+02 
  32939.6654     0.54973E+02 
  32971.9275     0.55663E+02 
  33004.1897     0.56359E+02 
  33036.4518     0.57061E+02 
  33068.7140     0.57768E+02 
  33100.9762     0.58482E+02 
  33133.2383     0.59201E+02 
  33165.5005     0.59926E+02 
  33197.7626     0.60657E+02 
  33230.0248     0.61393E+02 
  33262.2870     0.62135E+02 
  33294.5491     0.62884E+02 
  33326.8113     0.63638E+02 
  33359.0734     0.64397E+02 
  33391.3356     0.65163E+02 
  33423.5978     0.65934E+02 
  33455.8599     0.66711E+02 
  33488.1221     0.67494E+02 
  33520.3842     0.68283E+02 
  33552.6464     0.69077E+02 
  33584.9086     0.69877E+02 
  33617.1707     0.70683E+02 
  33649.4329     0.71494E+02 
  33681.6950     0.72312E+02 
  33713.9572     0.73134E+02 
  33746.2194     0.73963E+02 
  33778.4815     0.74797E+02 
  33810.7437     0.75637E+02 
  33843.0058     0.76482E+02 
  33875.2680     0.77333E+02 
  33907.5302     0.78190E+02 
  33939.7923     0.79052E+02 
  33972.0545     0.79919E+02 
  34004.3166     0.80792E+02 
  34036.5788     0.81671E+02 
  34068.8410     0.82555E+02 
  34101.1031     0.83444E+02 
  34133.3653     0.84339E+02 
  34165.6274     0.85239E+02 
  34197.8896     0.86144E+02 
  34230.1518     0.87055E+02 
  34262.4139     0.87971E+02 
  34294.6761     0.88892E+02 
  34326.9382     0.89819E+02 
  34359.2004     0.90750E+02 
  34391.4626     0.91687E+02 
  34423.7247     0.92629E+02 
  34455.9869     0.93576E+02 
  34488.2490     0.94528E+02 
  34520.5112     0.95484E+02 
  34552.7734     0.96446E+02 
  34585.0355     0.97413E+02 
  34617.2977     0.98385E+02 
  34649.5598     0.99361E+02 
  34681.8220     0.10034E+03 
  34714.0842     0.10133E+03 
  34746.3463     0.10232E+03 
  34778.6085     0.10331E+03 
  34810.8706     0.10431E+03 
  34843.1328     0.10532E+03 
  34875.3950     0.10633E+03 
  34907.6571     0.10734E+03 
  34939.9193     0.10836E+03 
  34972.1814     0.10938E+03 
  35004.4436     0.11041E+03 
  35036.7058     0.11144E+03 
  35068.9679     0.11247E+03 
  35101.2301     0.11351E+03 
  35133.4922     0.11455E+03 
  35165.7544     0.11560E+03 
  35198.0166     0.11665E+03 
  35230.2787     0.11770E+03 
  35262.5409     0.11876E+03 
  35294.8030     0.11982E+03 
  35327.0652     0.12089E+03 
  35359.3274     0.12196E+03 
  35391.5895     0.12303E+03 
  35423.8517     0.12411E+03 
  35456.1138     0.12519E+03 
  35488.3760     0.12627E+03 
  35520.6382     0.12736E+03 
  35552.9003     0.12845E+03 
  35585.1625     0.12954E+03 
  35617.4246     0.13064E+03 
  35649.6868     0.13174E+03 
  35681.9490     0.13284E+03 
  35714.2111     0.13394E+03 
  35746.4733     0.13505E+03 
  35778.7354     0.13616E+03 
  35810.9976     0.13727E+03 
  35843.2598     0.13839E+03 
  35875.5219     0.13951E+03 
  35907.7841     0.14063E+03 
  35940.0462     0.14175E+03 
  35972.3084     0.14288E+03 
  36004.5706     0.14400E+03 
  36036.8327     0.14513E+03 
  36069.0949     0.14626E+03 
  36101.3570     0.14740E+03 
  36133.6192     0.14853E+03 
  36165.8814     0.14967E+03 
  36198.1435     0.15081E+03 
  36230.4057     0.15195E+03 
  36262.6678     0.15309E+03 
  36294.9300     0.15423E+03 
  36327.1922     0.15538E+03 
  36359.4543     0.15652E+03 
  36391.7165     0.15767E+03 
  36423.9786     0.15882E+03 
  36456.2408     0.15997E+03 
  36488.5030     0.16112E+03 
  36520.7651     0.16227E+03 
  36553.0273     0.16342E+03 
  36585.2894     0.16457E+03 
  36617.5516     0.16572E+03 
  36649.8138     0.16688E+03 
  36682.0759     0.16803E+03 
  36714.3381     0.16918E+03 
  36746.6002     0.17034E+03 
  36778.8624     0.17149E+03 
  36811.1246     0.17264E+03 
  36843.3867     0.17380E+03 
  36875.6489     0.17495E+03 
  36907.9110     0.17610E+03 
  36940.1732     0.17726E+03 
  36972.4354     0.17841E+03 
  37004.6975     0.17956E+03 
  37036.9597     0.18071E+03 
  37069.2218     0.18186E+03 
  37101.4840     0.18301E+03 
  37133.7462     0.18416E+03 
  37166.0083     0.18531E+03 
  37198.2705     0.18645E+03 
  37230.5326     0.18760E+03 
  37262.7948     0.18874E+03 
  37295.0570     0.18988E+03 
  37327.3191     0.19103E+03 
  37359.5813     0.19216E+03 
  37391.8434     0.19330E+03 
  37424.1056     0.19444E+03 
  37456.3678     0.19557E+03 
  37488.6299     0.19670E+03 
  37520.8921     0.19783E+03 
  37553.1542     0.19896E+03 
  37585.4164     0.20008E+03 
  37617.6786     0.20121E+03 
  37649.9407     0.20233E+03 
  37682.2029     0.20344E+03 
  37714.4650     0.20456E+03 
  37746.7272     0.20567E+03 
  37778.9894     0.20678E+03 
  37811.2515     0.20788E+03 
  37843.5137     0.20899E+03 
  37875.7758     0.21009E+03 
  37908.0380     0.21118E+03 
  37940.3002     0.21227E+03 
  37972.5623     0.21336E+03 
  38004.8245     0.21445E+03 
  38037.0866     0.21553E+03 
  38069.3488     0.21661E+03 
  38101.6110     0.21768E+03 
  38133.8731     0.21875E+03 
  38166.1353     0.21982E+03 
  38198.3974     0.22088E+03 
  38230.6596     0.22194E+03 
  38262.9218     0.22299E+03 
  38295.1839     0.22404E+03 
  38327.4461     0.22509E+03 
  38359.7082     0.22613E+03 
  38391.9704     0.22716E+03 
  38424.2326     0.22819E+03 
  38456.4947     0.22922E+03 
  38488.7569     0.23024E+03 
  38521.0190     0.23125E+03 
  38553.2812     0.23226E+03 
  38585.5434     0.23327E+03 
  38617.8055     0.23427E+03 
  38650.0677     0.23526E+03 
  38682.3298     0.23625E+03 
  38714.5920     0.23723E+03 
  38746.8542     0.23821E+03 
  38779.1163     0.23918E+03 
  38811.3785     0.24015E+03 
  38843.6406     0.24111E+03 
  38875.9028     0.24206E+03 
  38908.1650     0.24301E+03 
  38940.4271     0.24395E+03 
  38972.6893     0.24488E+03 
  39004.9514     0.24581E+03 
  39037.2136     0.24673E+03 
  39069.4758     0.24765E+03 
  39101.7379     0.24856E+03 
  39134.0001     0.24946E+03 
  39166.2622     0.25035E+03 
  39198.5244     0.25124E+03 
  39230.7866     0.25212E+03 
  39263.0487     0.25300E+03 
  39295.3109     0.25386E+03 
  39327.5730     0.25472E+03 
  39359.8352     0.25558E+03 
  39392.0974     0.25642E+03 
  39424.3595     0.25726E+03 
  39456.6217     0.25809E+03 
  39488.8838     0.25891E+03 
  39521.1460     0.25973E+03 
  39553.4082     0.26054E+03 
  39585.6703     0.26134E+03 
  39617.9325     0.26213E+03 
  39650.1946     0.26291E+03 
  39682.4568     0.26369E+03 
  39714.7190     0.26446E+03 
  39746.9811     0.26522E+03 
  39779.2433     0.26597E+03 
  39811.5054     0.26671E+03 
  39843.7676     0.26745E+03 
  39876.0298     0.26818E+03 
  39908.2919     0.26890E+03 
  39940.5541     0.26961E+03 
  39972.8162     0.27031E+03 
  40005.0784     0.27100E+03 
  40037.3406     0.27169E+03 
  40069.6027     0.27236E+03 
  40101.8649     0.27303E+03 
  40134.1270     0.27369E+03 
  40166.3892     0.27434E+03 
  40198.6514     0.27498E+03 
  40230.9135     0.27561E+03 
  40263.1757     0.27624E+03 
  40295.4378     0.27685E+03 
  40327.7000     0.27745E+03 
  40359.9622     0.27805E+03 
  40392.2243     0.27864E+03 
  40424.4865     0.27921E+03 
  40456.7486     0.27978E+03 
  40489.0108     0.28034E+03 
  40521.2730     0.28089E+03 
  40553.5351     0.28143E+03 
  40585.7973     0.28196E+03 
  40618.0594     0.28248E+03 
  40650.3216     0.28300E+03 
  40682.5838     0.28350E+03 
  40714.8459     0.28399E+03 
  40747.1081     0.28448E+03 
  40779.3702     0.28495E+03 
  40811.6324     0.28541E+03 
  40843.8946     0.28587E+03 
  40876.1567     0.28631E+03 
  40908.4189     0.28675E+03 
  40940.6810     0.28717E+03 
  40972.9432     0.28759E+03 
  41005.2054     0.28800E+03 
  41037.4675     0.28839E+03 
  41069.7297     0.28878E+03 
  41101.9918     0.28915E+03 
  41134.2540     0.28952E+03 
  41166.5162     0.28988E+03 
  41198.7783     0.29022E+03 
  41231.0405     0.29056E+03 
  41263.3026     0.29089E+03 
  41295.5648     0.29121E+03 
  41327.8270     0.29151E+03 
  41360.0891     0.29181E+03 
  41392.3513     0.29210E+03 
  41424.6134     0.29237E+03 
  41456.8756     0.29264E+03 
  41489.1378     0.29290E+03 
  41521.3999     0.29314E+03 
  41553.6621     0.29338E+03 
  41585.9242     0.29361E+03 
  41618.1864     0.29383E+03 
  41650.4486     0.29403E+03 
  41682.7107     0.29423E+03 
  41714.9729     0.29442E+03 
  41747.2350     0.29459E+03 
  41779.4972     0.29476E+03 
  41811.7594     0.29492E+03 
  41844.0215     0.29506E+03 
  41876.2837     0.29520E+03 
  41908.5458     0.29533E+03 
  41940.8080     0.29544E+03 
  41973.0702     0.29555E+03 
  42005.3323     0.29565E+03 
  42037.5945     0.29573E+03 
  42069.8566     0.29581E+03 
  42102.1188     0.29588E+03 
  42134.3810     0.29594E+03 
  42166.6431     0.29598E+03 
  42198.9053     0.29602E+03 
  42231.1674     0.29605E+03 
  42263.4296     0.29606E+03 
  42295.6918     0.29607E+03 
  42327.9539     0.29607E+03 
  42360.2161     0.29606E+03 
  42392.4782     0.29604E+03 
  42424.7404     0.29600E+03 
  42457.0026     0.29596E+03 
  42489.2647     0.29591E+03 
  42521.5269     0.29585E+03 
  42553.7890     0.29578E+03 
  42586.0512     0.29570E+03 
  42618.3134     0.29561E+03 
  42650.5755     0.29551E+03 
  42682.8377     0.29540E+03 
  42715.0998     0.29528E+03 
  42747.3620     0.29516E+03 
  42779.6242     0.29502E+03 
  42811.8863     0.29487E+03 
  42844.1485     0.29472E+03 
  42876.4106     0.29455E+03 
  42908.6728     0.29437E+03 
  42940.9350     0.29419E+03 
  42973.1971     0.29400E+03 
  43005.4593     0.29379E+03 
  43037.7214     0.29358E+03 
  43069.9836     0.29336E+03 
  43102.2458     0.29313E+03 
  43134.5079     0.29289E+03 
  43166.7701     0.29264E+03 
  43199.0322     0.29239E+03 
  43231.2944     0.29212E+03 
  43263.5566     0.29185E+03 
  43295.8187     0.29156E+03 
  43328.0809     0.29127E+03 
  43360.3430     0.29097E+03 
  43392.6052     0.29066E+03 
  43424.8674     0.29034E+03 
  43457.1295     0.29001E+03 
  43489.3917     0.28968E+03 
  43521.6538     0.28933E+03 
  43553.9160     0.28898E+03 
  43586.1782     0.28862E+03 
  43618.4403     0.28825E+03 
  43650.7025     0.28787E+03 
  43682.9646     0.28748E+03 
  43715.2268     0.28709E+03 
  43747.4890     0.28669E+03 
  43779.7511     0.28627E+03 
  43812.0133     0.28586E+03 
  43844.2754     0.28543E+03 
  43876.5376     0.28499E+03 
  43908.7998     0.28455E+03 
  43941.0619     0.28410E+03 
  43973.3241     0.28364E+03 
  44005.5862     0.28318E+03 
  44037.8484     0.28270E+03 
  44070.1106     0.28222E+03 
  44102.3727     0.28173E+03 
  44134.6349     0.28124E+03 
  44166.8970     0.28073E+03 
  44199.1592     0.28022E+03 
  44231.4214     0.27970E+03 
  44263.6835     0.27918E+03 
  44295.9457     0.27864E+03 
  44328.2078     0.27810E+03 
  44360.4700     0.27756E+03 
  44392.7322     0.27700E+03 
  44424.9943     0.27644E+03 
  44457.2565     0.27587E+03 
  44489.5186     0.27530E+03 
  44521.7808     0.27472E+03 
  44554.0430     0.27413E+03 
  44586.3051     0.27353E+03 
  44618.5673     0.27293E+03 
  44650.8294     0.27233E+03 
  44683.0916     0.27171E+03 
  44715.3538     0.27109E+03 
  44747.6159     0.27046E+03 
  44779.8781     0.26983E+03 
  44812.1402     0.26919E+03 
  44844.4024     0.26855E+03 
  44876.6646     0.26789E+03 
  44908.9267     0.26724E+03 
  44941.1889     0.26657E+03 
  44973.4510     0.26590E+03 
  45005.7132     0.26523E+03 
  45037.9754     0.26455E+03 
  45070.2375     0.26386E+03 
  45102.4997     0.26317E+03 
  45134.7618     0.26247E+03 
  45167.0240     0.26177E+03 
  45199.2862     0.26106E+03 
  45231.5483     0.26035E+03 
  45263.8105     0.25963E+03 
  45296.0726     0.25891E+03 
  45328.3348     0.25818E+03 
  45360.5970     0.25744E+03 
  45392.8591     0.25671E+03 
  45425.1213     0.25596E+03 
  45457.3834     0.25521E+03 
  45489.6456     0.25446E+03 
  45521.9078     0.25370E+03 
  45554.1699     0.25294E+03 
  45586.4321     0.25217E+03 
  45618.6942     0.25140E+03 
  45650.9564     0.25063E+03 
  45683.2186     0.24985E+03 
  45715.4807     0.24906E+03 
  45747.7429     0.24827E+03 
  45780.0050     0.24748E+03 
  45812.2672     0.24668E+03 
  45844.5294     0.24588E+03 
  45876.7915     0.24508E+03 
  45909.0537     0.24427E+03 
  45941.3158     0.24346E+03 
  45973.5780     0.24264E+03 
  46005.8402     0.24182E+03 
  46038.1023     0.24100E+03 
  46070.3645     0.24017E+03 
  46102.6266     0.23934E+03 
  46134.8888     0.23851E+03 
  46167.1510     0.23767E+03 
  46199.4131     0.23683E+03 
  46231.6753     0.23598E+03 
  46263.9374     0.23514E+03 
  46296.1996     0.23429E+03 
  46328.4618     0.23344E+03 
  46360.7239     0.23258E+03 
  46392.9861     0.23172E+03 
  46425.2482     0.23086E+03 
  46457.5104     0.23000E+03 
  46489.7726     0.22913E+03 
  46522.0347     0.22826E+03 
  46554.2969     0.22739E+03 
  46586.5590     0.22651E+03 
  46618.8212     0.22564E+03 
  46651.0834     0.22476E+03 
  46683.3455     0.22388E+03 
  46715.6077     0.22299E+03 
  46747.8698     0.22211E+03 
  46780.1320     0.22122E+03 
  46812.3942     0.22033E+03 
  46844.6563     0.21944E+03 
  46876.9185     0.21855E+03 
  46909.1806     0.21765E+03 
  46941.4428     0.21676E+03 
  46973.7050     0.21586E+03 
  47005.9671     0.21496E+03 
  47038.2293     0.21405E+03 
  47070.4914     0.21315E+03 
  47102.7536     0.21225E+03 
  47135.0158     0.21134E+03 
  47167.2779     0.21043E+03 
  47199.5401     0.20952E+03 
  47231.8022     0.20861E+03 
  47264.0644     0.20770E+03 
  47296.3266     0.20679E+03 
  47328.5887     0.20588E+03 
  47360.8509     0.20496E+03 
  47393.1130     0.20405E+03 
  47425.3752     0.20313E+03 
  47457.6374     0.20221E+03 
  47489.8995     0.20130E+03 
  47522.1617     0.20038E+03 
  47554.4238     0.19946E+03 
  47586.6860     0.19854E+03 
  47618.9482     0.19762E+03 
  47651.2103     0.19670E+03 
  47683.4725     0.19578E+03 
  47715.7346     0.19486E+03 
  47747.9968     0.19393E+03 
  47780.2590     0.19301E+03 
  47812.5211     0.19209E+03 
  47844.7833     0.19117E+03 
  47877.0454     0.19025E+03 
  47909.3076     0.18932E+03 
  47941.5698     0.18840E+03 
  47973.8319     0.18748E+03 
  48006.0941     0.18656E+03 
  48038.3562     0.18563E+03 
  48070.6184     0.18471E+03 
  48102.8806     0.18379E+03 
  48135.1427     0.18287E+03 
  48167.4049     0.18195E+03 
  48199.6670     0.18103E+03 
  48231.9292     0.18011E+03 
  48264.1914     0.17919E+03 
  48296.4535     0.17827E+03 
  48328.7157     0.17735E+03 
  48360.9778     0.17643E+03 
  48393.2400     0.17551E+03 
  48425.5022     0.17460E+03 
  48457.7643     0.17368E+03 
  48490.0265     0.17277E+03 
  48522.2886     0.17185E+03 
  48554.5508     0.17094E+03 
  48586.8130     0.17003E+03 
  48619.0751     0.16912E+03 
  48651.3373     0.16821E+03 
  48683.5994     0.16730E+03 
  48715.8616     0.16639E+03 
  48748.1238     0.16548E+03 
  48780.3859     0.16457E+03 
  48812.6481     0.16367E+03 
  48844.9102     0.16277E+03 
  48877.1724     0.16186E+03 
  48909.4346     0.16096E+03 
  48941.6967     0.16006E+03 
  48973.9589     0.15917E+03 
  49006.2210     0.15827E+03 
  49038.4832     0.15738E+03 
  49070.7454     0.15648E+03 
  49103.0075     0.15559E+03 
  49135.2697     0.15470E+03 
  49167.5318     0.15381E+03 
  49199.7940     0.15292E+03 
  49232.0562     0.15204E+03 
  49264.3183     0.15116E+03 
  49296.5805     0.15027E+03 
  49328.8426     0.14939E+03 
  49361.1048     0.14852E+03 
  49393.3670     0.14764E+03 
  49425.6291     0.14677E+03 
  49457.8913     0.14589E+03 
  49490.1534     0.14502E+03 
  49522.4156     0.14415E+03 
  49554.6778     0.14329E+03 
  49586.9399     0.14242E+03 
  49619.2021     0.14156E+03 
  49651.4642     0.14070E+03 
  49683.7264     0.13984E+03 
  49715.9886     0.13899E+03 
  49748.2507     0.13813E+03 
  49780.5129     0.13728E+03 
  49812.7750     0.13643E+03 
  49845.0372     0.13559E+03 
  49877.2994     0.13474E+03 
  49909.5615     0.13390E+03 
  49941.8237     0.13306E+03 
  49974.0858     0.13222E+03 
  50006.3480     0.13139E+03 
  50038.6102     0.13055E+03 
  50070.8723     0.12972E+03 
  50103.1345     0.12889E+03 
  50135.3966     0.12807E+03 
  50167.6588     0.12725E+03 
  50199.9210     0.12643E+03 
  50232.1831     0.12561E+03 
  50264.4453     0.12479E+03 
  50296.7074     0.12398E+03 
  50328.9696     0.12317E+03 
  50361.2318     0.12236E+03 
  50393.4939     0.12156E+03 
  50425.7561     0.12076E+03 
  50458.0182     0.11996E+03 
  50490.2804     0.11916E+03 
  50522.5426     0.11837E+03 
  50554.8047     0.11757E+03 
  50587.0669     0.11679E+03 
  50619.3290     0.11600E+03 
  50651.5912     0.11522E+03 
  50683.8534     0.11444E+03 
  50716.1155     0.11366E+03 
  50748.3777     0.11289E+03 
  50780.6398     0.11211E+03 
  50812.9020     0.11135E+03 
  50845.1642     0.11058E+03 
  50877.4263     0.10982E+03 
  50909.6885     0.10906E+03 
  50941.9506     0.10830E+03 
  50974.2128     0.10755E+03 
  51006.4750     0.10680E+03 
  51038.7371     0.10605E+03 
  51070.9993     0.10530E+03 
  51103.2614     0.10456E+03 
  51135.5236     0.10382E+03 
  51167.7858     0.10308E+03 
  51200.0479     0.10235E+03 
  51232.3101     0.10162E+03 
  51264.5722     0.10089E+03 
  51296.8344     0.10017E+03 
  51329.0966     0.99448E+02 
  51361.3587     0.98730E+02 
  51393.6209     0.98015E+02 
  51425.8830     0.97303E+02 
  51458.1452     0.96594E+02 
  51490.4074     0.95889E+02 
  51522.6695     0.95186E+02 
  51554.9317     0.94487E+02 
  51587.1938     0.93790E+02 
  51619.4560     0.93097E+02 
  51651.7182     0.92407E+02 
  51683.9803     0.91720E+02 
  51716.2425     0.91036E+02 
  51748.5046     0.90355E+02 
  51780.7668     0.89678E+02 
  51813.0290     0.89003E+02 
  51845.2911     0.88332E+02 
  51877.5533     0.87664E+02 
  51909.8154     0.86999E+02 
  51942.0776     0.86337E+02 
  51974.3398     0.85678E+02 
  52006.6019     0.85023E+02 
  52038.8641     0.84371E+02 
  52071.1262     0.83721E+02 
  52103.3884     0.83076E+02 
  52135.6506     0.82433E+02 
  52167.9127     0.81793E+02 
  52200.1749     0.81157E+02 
  52232.4370     0.80524E+02 
  52264.6992     0.79894E+02 
  52296.9614     0.79267E+02 
  52329.2235     0.78643E+02 
  52361.4857     0.78022E+02 
  52393.7478     0.77405E+02 
  52426.0100     0.76791E+02 
  52458.2722     0.76180E+02 
  52490.5343     0.75572E+02 
  52522.7965     0.74968E+02 
  52555.0586     0.74366E+02 
  52587.3208     0.73768E+02 
  52619.5830     0.73173E+02 
  52651.8451     0.72581E+02 
  52684.1073     0.71992E+02 
  52716.3694     0.71407E+02 
  52748.6316     0.70825E+02 
  52780.8938     0.70245E+02 
  52813.1559     0.69669E+02 
  52845.4181     0.69096E+02 
  52877.6802     0.68527E+02 
  52909.9424     0.67960E+02 
  52942.2046     0.67397E+02 
  52974.4667     0.66836E+02 
  53006.7289     0.66279E+02 
  53038.9910     0.65725E+02 
  53071.2532     0.65174E+02 
  53103.5154     0.64627E+02 
  53135.7775     0.64082E+02 
  53168.0397     0.63540E+02 
  53200.3018     0.63002E+02 
  53232.5640     0.62467E+02 
  53264.8262     0.61934E+02 
  53297.0883     0.61405E+02 
  53329.3505     0.60879E+02 
  53361.6126     0.60356E+02 
  53393.8748     0.59836E+02 
  53426.1370     0.59320E+02 
  53458.3991     0.58806E+02 
  53490.6613     0.58295E+02 
  53522.9234     0.57788E+02 
  53555.1856     0.57283E+02 
  53587.4478     0.56781E+02 
  53619.7099     0.56283E+02 
  53651.9721     0.55787E+02 
  53684.2342     0.55295E+02 
  53716.4964     0.54805E+02 
  53748.7586     0.54319E+02 
  53781.0207     0.53835E+02 
  53813.2829     0.53355E+02 
  53845.5450     0.52877E+02 
  53877.8072     0.52403E+02 
  53910.0694     0.51931E+02 
  53942.3315     0.51463E+02 
  53974.5937     0.50997E+02 
  54006.8558     0.50534E+02 
  54039.1180     0.50074E+02 
  54071.3802     0.49617E+02 
  54103.6423     0.49163E+02 
  54135.9045     0.48712E+02 
  54168.1666     0.48264E+02 
  54200.4288     0.47819E+02 
  54232.6910     0.47376E+02 
  54264.9531     0.46936E+02 
  54297.2153     0.46500E+02 
  54329.4774     0.46066E+02 
  54361.7396     0.45635E+02 
  54394.0018     0.45206E+02 
  54426.2639     0.44781E+02 
  54458.5261     0.44358E+02 
  54490.7882     0.43938E+02 
  54523.0504     0.43521E+02 
  54555.3126     0.43107E+02 
  54587.5747     0.42695E+02 
  54619.8369     0.42287E+02 
  54652.0990     0.41881E+02 
  54684.3612     0.41477E+02 
  54716.6234     0.41077E+02 
  54748.8855     0.40679E+02 
  54781.1477     0.40284E+02 
  54813.4098     0.39891E+02 
  54845.6720     0.39501E+02 
  54877.9342     0.39114E+02 
  54910.1963     0.38730E+02 
  54942.4585     0.38348E+02 
  54974.7206     0.37969E+02 
  55006.9828     0.37592E+02 
  55039.2450     0.37218E+02 
  55071.5071     0.36847E+02 
  55103.7693     0.36478E+02 
  55136.0314     0.36112E+02 
  55168.2936     0.35749E+02 
  55200.5558     0.35387E+02 
  55232.8179     0.35029E+02 
  55265.0801     0.34673E+02 
  55297.3422     0.34320E+02 
  55329.6044     0.33969E+02 
  55361.8666     0.33620E+02 
  55394.1287     0.33275E+02 
  55426.3909     0.32931E+02 
  55458.6530     0.32590E+02 
  55490.9152     0.32252E+02 
  55523.1774     0.31916E+02 
  55555.4395     0.31582E+02 
  55587.7017     0.31251E+02 
  55619.9638     0.30922E+02 
  55652.2260     0.30596E+02 
  55684.4882     0.30272E+02 
  55716.7503     0.29950E+02 
  55749.0125     0.29631E+02 
  55781.2746     0.29314E+02 
  55813.5368     0.29000E+02 
  55845.7990     0.28688E+02 
  55878.0611     0.28378E+02 
  55910.3233     0.28070E+02 
  55942.5854     0.27765E+02 
  55974.8476     0.27462E+02 
  56007.1098     0.27161E+02 
  56039.3719     0.26863E+02 
  56071.6341     0.26567E+02 
  56103.8962     0.26273E+02 
  56136.1584     0.25981E+02 
  56168.4206     0.25692E+02 
  56200.6827     0.25405E+02 
  56232.9449     0.25120E+02 
  56265.2070     0.24837E+02 
  56297.4692     0.24556E+02 
  56329.7314     0.24278E+02 
  56361.9935     0.24001E+02 
  56394.2557     0.23727E+02 
  56426.5178     0.23455E+02 
  56458.7800     0.23185E+02 
  56491.0422     0.22917E+02 
  56523.3043     0.22651E+02 
  56555.5665     0.22388E+02 
  56587.8286     0.22126E+02 
  56620.0908     0.21867E+02 
  56652.3530     0.21609E+02 
  56684.6151     0.21354E+02 
  56716.8773     0.21100E+02 
  56749.1394     0.20849E+02 
  56781.4016     0.20599E+02 
  56813.6638     0.20352E+02 
  56845.9259     0.20107E+02 
  56878.1881     0.19863E+02 
  56910.4502     0.19622E+02 
  56942.7124     0.19382E+02 
  56974.9746     0.19145E+02 
  57007.2367     0.18909E+02 
  57039.4989     0.18675E+02 
  57071.7610     0.18443E+02 
  57104.0232     0.18213E+02 
  57136.2854     0.17985E+02 
  57168.5475     0.17759E+02 
  57200.8097     0.17535E+02 
  57233.0718     0.17312E+02 
  57265.3340     0.17092E+02 
  57297.5962     0.16873E+02 
  57329.8583     0.16656E+02 
  57362.1205     0.16441E+02 
  57394.3826     0.16228E+02 
  57426.6448     0.16016E+02 
  57458.9070     0.15806E+02 
  57491.1691     0.15598E+02 
  57523.4313     0.15392E+02 
  57555.6934     0.15188E+02 
  57587.9556     0.14985E+02 
  57620.2178     0.14784E+02 
  57652.4799     0.14585E+02 
  57684.7421     0.14387E+02 
  57717.0042     0.14191E+02 
  57749.2664     0.13997E+02 
  57781.5286     0.13805E+02 
  57813.7907     0.13614E+02 
  57846.0529     0.13425E+02 
  57878.3150     0.13237E+02 
  57910.5772     0.13052E+02 
  57942.8394     0.12867E+02 
  57975.1015     0.12685E+02 
  58007.3637     0.12504E+02 
  58039.6258     0.12325E+02 
  58071.8880     0.12147E+02 
  58104.1502     0.11971E+02 
  58136.4123     0.11796E+02 
  58168.6745     0.11623E+02 
  58200.9366     0.11452E+02 
  58233.1988     0.11282E+02 
  58265.4610     0.11114E+02 
  58297.7231     0.10947E+02 
  58329.9853     0.10782E+02 
  58362.2474     0.10618E+02 
  58394.5096     0.10456E+02 
  58426.7718     0.10295E+02 
  58459.0339     0.10136E+02 
  58491.2961     0.99782E+01 
  58523.5582     0.98219E+01 
  58555.8204     0.96672E+01 
  58588.0826     0.95139E+01 
  58620.3447     0.93620E+01 
  58652.6069     0.92116E+01 
  58684.8690     0.90627E+01 
  58717.1312     0.89151E+01 
  58749.3934     0.87690E+01 
  58781.6555     0.86244E+01 
  58813.9177     0.84811E+01 
  58846.1798     0.83392E+01 
  58878.4420     0.81988E+01 
  58910.7042     0.80597E+01 
  58942.9663     0.79220E+01 
  58975.2285     0.77857E+01 
  59007.4906     0.76507E+01 
  59039.7528     0.75171E+01 
  59072.0150     0.73849E+01 
  59104.2771     0.72540E+01 
  59136.5393     0.71244E+01 
  59168.8014     0.69962E+01 
  59201.0636     0.68693E+01 
  59233.3258     0.67437E+01 
  59265.5879     0.66194E+01 
  59297.8501     0.64965E+01 
  59330.1122     0.63748E+01 
  59362.3744     0.62545E+01 
  59394.6366     0.61354E+01 
  59426.8987     0.60177E+01 
  59459.1609     0.59012E+01 
  59491.4230     0.57859E+01 
  59523.6852     0.56720E+01 
  59555.9474     0.55593E+01 
  59588.2095     0.54479E+01 
  59620.4717     0.53377E+01 
  59652.7338     0.52288E+01 
  59684.9960     0.51211E+01 
  59717.2582     0.50146E+01 
  59749.5203     0.49094E+01 
  59781.7825     0.48054E+01 
  59814.0446     0.47026E+01 
  59846.3068     0.46011E+01 
  59878.5690     0.45008E+01 
  59910.8311     0.44016E+01 
  59943.0933     0.43037E+01 
  59975.3554     0.42070E+01 
  60007.6176     0.41115E+01 
  60039.8798     0.40172E+01 
  60072.1419     0.39240E+01 
  60104.4041     0.38321E+01 
  60136.6662     0.37414E+01 
  60168.9284     0.36518E+01 
  60201.1906     0.35634E+01 
  60233.4527     0.34762E+01 
  60265.7149     0.33901E+01 
  60297.9770     0.33052E+01 
  60330.2392     0.32215E+01 
  60362.5014     0.31390E+01 
  60394.7635     0.30576E+01 
  60427.0257     0.29773E+01 
  60459.2878     0.28983E+01 
  60491.5500     0.28203E+01 
  60523.8122     0.27436E+01 
  60556.0743     0.26680E+01 
  60588.3365     0.25935E+01 
  60620.5986     0.25202E+01 
  60652.8608     0.24480E+01 
  60685.1230     0.23770E+01 
  60717.3851     0.23071E+01 
  60749.6473     0.22384E+01 
  60781.9094     0.21708E+01 
  60814.1716     0.21043E+01 
  60846.4338     0.20390E+01 
  60878.6959     0.19748E+01 
  60910.9581     0.19118E+01 
  60943.2202     0.18499E+01 
  60975.4824     0.17892E+01 
  61007.7446     0.17296E+01 
  61040.0067     0.16711E+01 
  61072.2689     0.16138E+01 
  61104.5310     0.15576E+01 
  61136.7932     0.15026E+01 
  61169.0554     0.14487E+01 
  61201.3175     0.13960E+01 
  61233.5797     0.13444E+01 
  61265.8418     0.12939E+01 
  61298.1040     0.12447E+01 
  61330.3662     0.11965E+01 
  61362.6283     0.11496E+01 
  61394.8905     0.11037E+01 
  61427.1526     0.10591E+01 
  61459.4148     0.10156E+01 
  61491.6770     0.97327E+00 
  61523.9391     0.93212E+00 
  61556.2013     0.89214E+00 
  61588.4634     0.85334E+00 
  61620.7256     0.81572E+00 
  61652.9878     0.77929E+00 
  61685.2499     0.74405E+00 
  61717.5121     0.71000E+00 
  61749.7742     0.67716E+00 
  61782.0364     0.64551E+00 
  61814.2986     0.61508E+00 
  61846.5607     0.58586E+00 
  61878.8229     0.55787E+00 
  61911.0850     0.53110E+00 
  61943.3472     0.50556E+00 
  61975.6094     0.48126E+00 
  62007.8715     0.45821E+00 
  62040.1337     0.43641E+00 
  62072.3958     0.41587E+00 
  62104.6580     0.39660E+00 
  62136.9202     0.37861E+00 
  62169.1823     0.36190E+00 
  62201.4445     0.34648E+00 
  62233.7066     0.33236E+00 
  62265.9688     0.31954E+00 
  62298.2310     0.30805E+00 
  62330.4931     0.29789E+00 
  62362.7553     0.28906E+00 
  62395.0174     0.28158E+00 
  62427.2796     0.27546E+00 
  62459.5418     0.27071E+00 
  62491.8039     0.26734E+00 
  62524.0661     0.26536E+00 
  62556.3282     0.26478E+00 
  62588.5904     0.26562E+00 
  62620.8526     0.26789E+00 
  62653.1147     0.27159E+00 
  62685.3769     0.27675E+00 
  62717.6390     0.28338E+00 
  62749.9012     0.29149E+00 
  62782.1634     0.30109E+00 
  62814.4255     0.31221E+00 
  62846.6877     0.32485E+00 
  62878.9498     0.33903E+00 
  62911.2120     0.35476E+00 
  62943.4742     0.37207E+00 
  62975.7363     0.39097E+00 
  63007.9985     0.41147E+00 
  63040.2606     0.43360E+00 
  63072.5228     0.45737E+00 
  63104.7850     0.48280E+00 
  63137.0471     0.50991E+00 
  63169.3093     0.53872E+00 
  63201.5714     0.56925E+00 
  63233.8336     0.60152E+00 
  63266.0958     0.63555E+00 
  63298.3579     0.67136E+00 
  63330.6201     0.70898E+00 
  63362.8822     0.74842E+00 
  63395.1444     0.78970E+00 
  63427.4066     0.83287E+00 
  63459.6687     0.87792E+00 
  63491.9309     0.92490E+00 
  63524.1930     0.97383E+00 
  63556.4552     0.10247E+01 
  63588.7174     0.10776E+01 
  63620.9795     0.11325E+01 
  63653.2417     0.11895E+01 
  63685.5038     0.12486E+01 
  63717.7660     0.13097E+01 
  63750.0282     0.13730E+01 
  63782.2903     0.14385E+01 
  63814.5525     0.15062E+01 
  63846.8146     0.15761E+01 
  63879.0768     0.16483E+01 
  63911.3390     0.17228E+01 
  63943.6011     0.17996E+01 
  63975.8633     0.18787E+01 
  64008.1254     0.19603E+01 
  64040.3876     0.20443E+01 
  64072.6498     0.21308E+01 
  64104.9119     0.22198E+01 
  64137.1741     0.23113E+01 
  64169.4362     0.24054E+01 
  64201.6984     0.25022E+01 
  64233.9606     0.26016E+01 
  64266.2227     0.27037E+01 
  64298.4849     0.28086E+01 
  64330.7470     0.29163E+01 
  64363.0092     0.30268E+01 
  64395.2714     0.31402E+01 
  64427.5335     0.32565E+01 
  64459.7957     0.33758E+01 
  64492.0578     0.34982E+01 
  64524.3200     0.36236E+01 
  64556.5822     0.37521E+01 
  64588.8443     0.38838E+01 
  64621.1065     0.40188E+01 
  64653.3686     0.41570E+01 
  64685.6308     0.42985E+01 
  64717.8930     0.44435E+01 
  64750.1551     0.45919E+01 
  64782.4173     0.47438E+01 
  64814.6794     0.48992E+01 
  64846.9416     0.50583E+01 
  64879.2038     0.52211E+01 
  64911.4659     0.53876E+01 
  64943.7281     0.55579E+01 
  64975.9902     0.57321E+01 
  65008.2524     0.59102E+01 
  65040.5146     0.60923E+01 
  65072.7767     0.62785E+01 
  65105.0389     0.64689E+01 
  65137.3010     0.66634E+01 
  65169.5632     0.68623E+01 
  65201.8254     0.70655E+01 
  65234.0875     0.72731E+01 
  65266.3497     0.74853E+01 
  65298.6118     0.77020E+01 
  65330.8740     0.79235E+01 
  65363.1362     0.81496E+01 
  65395.3983     0.83806E+01 
  65427.6605     0.86165E+01 
  65459.9226     0.88574E+01 
  65492.1848     0.91034E+01 
  65524.4470     0.93546E+01 
  65556.7091     0.96111E+01 
  65588.9713     0.98729E+01 
  65621.2334     0.10140E+02 
  65653.4956     0.10413E+02 
  65685.7578     0.10691E+02 
  65718.0199     0.10976E+02 
  65750.2821     0.11266E+02 
  65782.5442     0.11562E+02 
  65814.8064     0.11864E+02 
  65847.0686     0.12172E+02 
  65879.3307     0.12486E+02 
  65911.5929     0.12807E+02 
  65943.8550     0.13134E+02 
  65976.1172     0.13468E+02 
  66008.3794     0.13809E+02 
  66040.6415     0.14157E+02 
  66072.9037     0.14511E+02 
  66105.1658     0.14872E+02 
  66137.4280     0.15241E+02 
  66169.6902     0.15617E+02 
  66201.9523     0.16001E+02 
  66234.2145     0.16392E+02 
  66266.4766     0.16790E+02 
  66298.7388     0.17197E+02 
  66331.0010     0.17612E+02 
  66363.2631     0.18034E+02 
  66395.5253     0.18465E+02 
  66427.7874     0.18905E+02 
  66460.0496     0.19353E+02 
  66492.3118     0.19809E+02 
  66524.5739     0.20275E+02 
  66556.8361     0.20749E+02 
  66589.0982     0.21233E+02 
  66621.3604     0.21726E+02 
  66653.6226     0.22229E+02 
  66685.8847     0.22741E+02 
  66718.1469     0.23263E+02 
  66750.4090     0.23795E+02 
  66782.6712     0.24337E+02 
  66814.9334     0.24889E+02 
  66847.1955     0.25452E+02 
  66879.4577     0.26026E+02 
  66911.7198     0.26610E+02 
  66943.9820     0.27206E+02 
  66976.2442     0.27812E+02 
  67008.5063     0.28431E+02 
  67040.7685     0.29060E+02 
  67073.0306     0.29702E+02 
  67105.2928     0.30356E+02 
  67137.5550     0.31021E+02 
  67169.8171     0.31700E+02 
  67202.0793     0.32391E+02 
  67234.3414     0.33094E+02 
  67266.6036     0.33811E+02 
  67298.8658     0.34541E+02 
  67331.1279     0.35285E+02 
  67363.3901     0.36042E+02 
  67395.6522     0.36813E+02 
  67427.9144     0.37599E+02 
  67460.1766     0.38399E+02 
  67492.4387     0.39213E+02 
  67524.7009     0.40042E+02 
  67556.9630     0.40887E+02 
  67589.2252     0.41747E+02 
  67621.4874     0.42622E+02 
  67653.7495     0.43514E+02 
  67686.0117     0.44421E+02 
  67718.2738     0.45345E+02 
  67750.5360     0.46286E+02 
  67782.7982     0.47243E+02 
  67815.0603     0.48218E+02 
  67847.3225     0.49210E+02 
  67879.5846     0.50220E+02 
  67911.8468     0.51248E+02 
  67944.1090     0.52294E+02 
  67976.3711     0.53359E+02 
  68008.6333     0.54442E+02 
  68040.8954     0.55545E+02 
  68073.1576     0.56668E+02 
  68105.4198     0.57810E+02 
  68137.6819     0.58972E+02 
  68169.9441     0.60155E+02 
  68202.2062     0.61358E+02 
  68234.4684     0.62583E+02 
  68266.7306     0.63829E+02 
  68298.9927     0.65096E+02 
  68331.2549     0.66386E+02 
  68363.5170     0.67698E+02 
  68395.7792     0.69032E+02 
  68428.0414     0.70390E+02 
  68460.3035     0.71771E+02 
  68492.5657     0.73175E+02 
  68524.8278     0.74604E+02 
  68557.0900     0.76057E+02 
  68589.3522     0.77535E+02 
  68621.6143     0.79038E+02 
  68653.8765     0.80567E+02 
  68686.1386     0.82121E+02 
  68718.4008     0.83702E+02 
  68750.6630     0.85309E+02 
  68782.9251     0.86944E+02 
  68815.1873     0.88605E+02 
  68847.4494     0.90295E+02 
  68879.7116     0.92013E+02 
  68911.9738     0.93759E+02 
  68944.2359     0.95534E+02 
  68976.4981     0.97339E+02 
  69008.7602     0.99174E+02 
  69041.0224     0.10104E+03 
  69073.2846     0.10293E+03 
  69105.5467     0.10486E+03 
  69137.8089     0.10682E+03 
  69170.0710     0.10881E+03 
  69202.3332     0.11083E+03 
  69234.5954     0.11289E+03 
  69266.8575     0.11497E+03 
  69299.1197     0.11710E+03 
  69331.3818     0.11925E+03 
  69363.6440     0.12144E+03 
  69395.9062     0.12367E+03 
  69428.1683     0.12593E+03 
  69460.4305     0.12823E+03 
  69492.6926     0.13056E+03 
  69524.9548     0.13293E+03 
  69557.2170     0.13534E+03 
  69589.4791     0.13778E+03 
  69621.7413     0.14027E+03 
  69654.0034     0.14279E+03 
  69686.2656     0.14535E+03 
  69718.5278     0.14795E+03 
  69750.7899     0.15059E+03 
  69783.0521     0.15328E+03 
  69815.3142     0.15600E+03 
  69847.5764     0.15877E+03 
  69879.8386     0.16157E+03 
  69912.1007     0.16442E+03 
  69944.3629     0.16732E+03 
  69976.6250     0.17026E+03 
  70008.8872     0.17324E+03 
  70041.1494     0.17626E+03 
  70073.4115     0.17934E+03 
  70105.6737     0.18245E+03 
  70137.9358     0.18562E+03 
  70170.1980     0.18883E+03 
  70202.4602     0.19209E+03 
  70234.7223     0.19540E+03 
  70266.9845     0.19875E+03 
  70299.2466     0.20216E+03 
  70331.5088     0.20561E+03 
  70363.7710     0.20911E+03 
  70396.0331     0.21267E+03 
  70428.2953     0.21628E+03 
  70460.5574     0.21993E+03 
  70492.8196     0.22364E+03 
  70525.0818     0.22741E+03 
  70557.3439     0.23123E+03 
  70589.6061     0.23510E+03 
  70621.8682     0.23902E+03 
  70654.1304     0.24300E+03 
  70686.3926     0.24704E+03 
  70718.6547     0.25113E+03 
  70750.9169     0.25528E+03 
  70783.1790     0.25949E+03 
  70815.4412     0.26375E+03 
  70847.7034     0.26808E+03 
  70879.9655     0.27246E+03 
  70912.2277     0.27690E+03 
  70944.4898     0.28141E+03 
  70976.7520     0.28597E+03 
  71009.0142     0.29060E+03 
  71041.2763     0.29528E+03 
  71073.5385     0.30003E+03 
  71105.8006     0.30485E+03 
  71138.0628     0.30972E+03 
  71170.3250     0.31467E+03 
  71202.5871     0.31967E+03 
  71234.8493     0.32474E+03 
  71267.1114     0.32988E+03 
  71299.3736     0.33508E+03 
  71331.6358     0.34036E+03 
  71363.8979     0.34569E+03 
  71396.1601     0.35110E+03 
  71428.4222     0.35658E+03 
  71460.6844     0.36212E+03 
  71492.9466     0.36774E+03 
  71525.2087     0.37343E+03 
  71557.4709     0.37918E+03 
  71589.7330     0.38501E+03 
  71621.9952     0.39091E+03 
  71654.2574     0.39689E+03 
  71686.5195     0.40293E+03 
  71718.7817     0.40906E+03 
  71751.0438     0.41525E+03 
  71783.3060     0.42152E+03 
  71815.5682     0.42787E+03 
  71847.8303     0.43429E+03 
  71880.0925     0.44079E+03 
  71912.3546     0.44736E+03 
  71944.6168     0.45402E+03 
  71976.8790     0.46075E+03 
  72009.1411     0.46756E+03 
  72041.4033     0.47445E+03 
  72073.6654     0.48142E+03 
  72105.9276     0.48847E+03 
  72138.1898     0.49560E+03 
  72170.4519     0.50281E+03 
  72202.7141     0.51010E+03 
  72234.9762     0.51748E+03 
  72267.2384     0.52494E+03 
  72299.5006     0.53248E+03 
  72331.7627     0.54010E+03 
  72364.0249     0.54781E+03 
  72396.2870     0.55561E+03 
  72428.5492     0.56349E+03 
  72460.8114     0.57145E+03 
  72493.0735     0.57950E+03 
  72525.3357     0.58764E+03 
  72557.5978     0.59586E+03 
  72589.8600     0.60417E+03 
