  32262.1600     0.18450E-03 
  32294.4222     0.18671E-03 
  32326.6843     0.18893E-03 
  32358.9465     0.19116E-03 
  32391.2086     0.19342E-03 
  32423.4708     0.19569E-03 
  32455.7330     0.19798E-03 
  32487.9951     0.20029E-03 
  32520.2573     0.20262E-03 
  32552.5194     0.20497E-03 
  32584.7816     0.20733E-03 
  32617.0438     0.20972E-03 
  32649.3059     0.21212E-03 
  32681.5681     0.21454E-03 
  32713.8302     0.21698E-03 
  32746.0924     0.21943E-03 
  32778.3546     0.22191E-03 
  32810.6167     0.22440E-03 
  32842.8789     0.22691E-03 
  32875.1410     0.22944E-03 
  32907.4032     0.23199E-03 
  32939.6654     0.23456E-03 
  32971.9275     0.23714E-03 
  33004.1897     0.23974E-03 
  33036.4518     0.24236E-03 
  33068.7140     0.24500E-03 
  33100.9762     0.24766E-03 
  33133.2383     0.25033E-03 
  33165.5005     0.25303E-03 
  33197.7626     0.25574E-03 
  33230.0248     0.25847E-03 
  33262.2870     0.26122E-03 
  33294.5491     0.26398E-03 
  33326.8113     0.26677E-03 
  33359.0734     0.26957E-03 
  33391.3356     0.27239E-03 
  33423.5978     0.27523E-03 
  33455.8599     0.27808E-03 
  33488.1221     0.28096E-03 
  33520.3842     0.28385E-03 
  33552.6464     0.28676E-03 
  33584.9086     0.28968E-03 
  33617.1707     0.29263E-03 
  33649.4329     0.29559E-03 
  33681.6950     0.29857E-03 
  33713.9572     0.30157E-03 
  33746.2194     0.30458E-03 
  33778.4815     0.30761E-03 
  33810.7437     0.31066E-03 
  33843.0058     0.31373E-03 
  33875.2680     0.31681E-03 
  33907.5302     0.31991E-03 
  33939.7923     0.32303E-03 
  33972.0545     0.32617E-03 
  34004.3166     0.32932E-03 
  34036.5788     0.33248E-03 
  34068.8410     0.33567E-03 
  34101.1031     0.33887E-03 
  34133.3653     0.34209E-03 
  34165.6274     0.34532E-03 
  34197.8896     0.34857E-03 
  34230.1518     0.35184E-03 
  34262.4139     0.35512E-03 
  34294.6761     0.35842E-03 
  34326.9382     0.36173E-03 
  34359.2004     0.36506E-03 
  34391.4626     0.36841E-03 
  34423.7247     0.37177E-03 
  34455.9869     0.37515E-03 
  34488.2490     0.37854E-03 
  34520.5112     0.38194E-03 
  34552.7734     0.38537E-03 
  34585.0355     0.38880E-03 
  34617.2977     0.39225E-03 
  34649.5598     0.39572E-03 
  34681.8220     0.39920E-03 
  34714.0842     0.40270E-03 
  34746.3463     0.40621E-03 
  34778.6085     0.40973E-03 
  34810.8706     0.41327E-03 
  34843.1328     0.41682E-03 
  34875.3950     0.42038E-03 
  34907.6571     0.42396E-03 
  34939.9193     0.42755E-03 
  34972.1814     0.43116E-03 
  35004.4436     0.43478E-03 
  35036.7058     0.43841E-03 
  35068.9679     0.44205E-03 
  35101.2301     0.44571E-03 
  35133.4922     0.44937E-03 
  35165.7544     0.45306E-03 
  35198.0166     0.45675E-03 
  35230.2787     0.46045E-03 
  35262.5409     0.46417E-03 
  35294.8030     0.46790E-03 
  35327.0652     0.47164E-03 
  35359.3274     0.47539E-03 
  35391.5895     0.47915E-03 
  35423.8517     0.48292E-03 
  35456.1138     0.48670E-03 
  35488.3760     0.49050E-03 
  35520.6382     0.49430E-03 
  35552.9003     0.49811E-03 
  35585.1625     0.50194E-03 
  35617.4246     0.50577E-03 
  35649.6868     0.50961E-03 
  35681.9490     0.51346E-03 
  35714.2111     0.51732E-03 
  35746.4733     0.52119E-03 
  35778.7354     0.52507E-03 
  35810.9976     0.52895E-03 
  35843.2598     0.53285E-03 
  35875.5219     0.53675E-03 
  35907.7841     0.54066E-03 
  35940.0462     0.54458E-03 
  35972.3084     0.54850E-03 
  36004.5706     0.55243E-03 
  36036.8327     0.55637E-03 
  36069.0949     0.56032E-03 
  36101.3570     0.56427E-03 
  36133.6192     0.56823E-03 
  36165.8814     0.57219E-03 
  36198.1435     0.57616E-03 
  36230.4057     0.58013E-03 
  36262.6678     0.58411E-03 
  36294.9300     0.58810E-03 
  36327.1922     0.59208E-03 
  36359.4543     0.59608E-03 
  36391.7165     0.60008E-03 
  36423.9786     0.60408E-03 
  36456.2408     0.60808E-03 
  36488.5030     0.61209E-03 
  36520.7651     0.61610E-03 
  36553.0273     0.62012E-03 
  36585.2894     0.62414E-03 
  36617.5516     0.62816E-03 
  36649.8138     0.63218E-03 
  36682.0759     0.63620E-03 
  36714.3381     0.64023E-03 
  36746.6002     0.64426E-03 
  36778.8624     0.64829E-03 
  36811.1246     0.65232E-03 
  36843.3867     0.65635E-03 
  36875.6489     0.66038E-03 
  36907.9110     0.66441E-03 
  36940.1732     0.66844E-03 
  36972.4354     0.67247E-03 
  37004.6975     0.67650E-03 
  37036.9597     0.68053E-03 
  37069.2218     0.68455E-03 
  37101.4840     0.68858E-03 
  37133.7462     0.69260E-03 
  37166.0083     0.69662E-03 
  37198.2705     0.70064E-03 
  37230.5326     0.70466E-03 
  37262.7948     0.70868E-03 
  37295.0570     0.71269E-03 
  37327.3191     0.71669E-03 
  37359.5813     0.72070E-03 
  37391.8434     0.72470E-03 
  37424.1056     0.72869E-03 
  37456.3678     0.73268E-03 
  37488.6299     0.73667E-03 
  37520.8921     0.74065E-03 
  37553.1542     0.74463E-03 
  37585.4164     0.74860E-03 
  37617.6786     0.75256E-03 
  37649.9407     0.75652E-03 
  37682.2029     0.76047E-03 
  37714.4650     0.76441E-03 
  37746.7272     0.76835E-03 
  37778.9894     0.77228E-03 
  37811.2515     0.77620E-03 
  37843.5137     0.78012E-03 
  37875.7758     0.78403E-03 
  37908.0380     0.78792E-03 
  37940.3002     0.79181E-03 
  37972.5623     0.79569E-03 
  38004.8245     0.79956E-03 
  38037.0866     0.80343E-03 
  38069.3488     0.80728E-03 
  38101.6110     0.81112E-03 
  38133.8731     0.81495E-03 
  38166.1353     0.81877E-03 
  38198.3974     0.82258E-03 
  38230.6596     0.82638E-03 
  38262.9218     0.83016E-03 
  38295.1839     0.83394E-03 
  38327.4461     0.83770E-03 
  38359.7082     0.84145E-03 
  38391.9704     0.84519E-03 
  38424.2326     0.84891E-03 
  38456.4947     0.85262E-03 
  38488.7569     0.85632E-03 
  38521.0190     0.86001E-03 
  38553.2812     0.86368E-03 
  38585.5434     0.86733E-03 
  38617.8055     0.87097E-03 
  38650.0677     0.87460E-03 
  38682.3298     0.87821E-03 
  38714.5920     0.88181E-03 
  38746.8542     0.88539E-03 
  38779.1163     0.88895E-03 
  38811.3785     0.89250E-03 
  38843.6406     0.89603E-03 
  38875.9028     0.89955E-03 
  38908.1650     0.90305E-03 
  38940.4271     0.90653E-03 
  38972.6893     0.90999E-03 
  39004.9514     0.91344E-03 
  39037.2136     0.91687E-03 
  39069.4758     0.92028E-03 
  39101.7379     0.92367E-03 
  39134.0001     0.92704E-03 
  39166.2622     0.93039E-03 
  39198.5244     0.93373E-03 
  39230.7866     0.93704E-03 
  39263.0487     0.94034E-03 
  39295.3109     0.94361E-03 
  39327.5730     0.94687E-03 
  39359.8352     0.95010E-03 
  39392.0974     0.95332E-03 
  39424.3595     0.95651E-03 
  39456.6217     0.95968E-03 
  39488.8838     0.96283E-03 
  39521.1460     0.96596E-03 
  39553.4082     0.96907E-03 
  39585.6703     0.97215E-03 
  39617.9325     0.97521E-03 
  39650.1946     0.97825E-03 
  39682.4568     0.98127E-03 
  39714.7190     0.98426E-03 
  39746.9811     0.98723E-03 
  39779.2433     0.99018E-03 
  39811.5054     0.99311E-03 
  39843.7676     0.99600E-03 
  39876.0298     0.99888E-03 
  39908.2919     0.10017E-02 
  39940.5541     0.10046E-02 
  39972.8162     0.10074E-02 
  40005.0784     0.10101E-02 
  40037.3406     0.10129E-02 
  40069.6027     0.10156E-02 
  40101.8649     0.10183E-02 
  40134.1270     0.10210E-02 
  40166.3892     0.10236E-02 
  40198.6514     0.10263E-02 
  40230.9135     0.10289E-02 
  40263.1757     0.10314E-02 
  40295.4378     0.10340E-02 
  40327.7000     0.10365E-02 
  40359.9622     0.10390E-02 
  40392.2243     0.10415E-02 
  40424.4865     0.10439E-02 
  40456.7486     0.10463E-02 
  40489.0108     0.10487E-02 
  40521.2730     0.10510E-02 
  40553.5351     0.10534E-02 
  40585.7973     0.10557E-02 
  40618.0594     0.10579E-02 
  40650.3216     0.10602E-02 
  40682.5838     0.10624E-02 
  40714.8459     0.10646E-02 
  40747.1081     0.10667E-02 
  40779.3702     0.10688E-02 
  40811.6324     0.10709E-02 
  40843.8946     0.10730E-02 
  40876.1567     0.10751E-02 
  40908.4189     0.10771E-02 
  40940.6810     0.10790E-02 
  40972.9432     0.10810E-02 
  41005.2054     0.10829E-02 
  41037.4675     0.10848E-02 
  41069.7297     0.10867E-02 
  41101.9918     0.10885E-02 
  41134.2540     0.10903E-02 
  41166.5162     0.10920E-02 
  41198.7783     0.10938E-02 
  41231.0405     0.10955E-02 
  41263.3026     0.10972E-02 
  41295.5648     0.10988E-02 
  41327.8270     0.11004E-02 
  41360.0891     0.11020E-02 
  41392.3513     0.11036E-02 
  41424.6134     0.11051E-02 
  41456.8756     0.11066E-02 
  41489.1378     0.11080E-02 
  41521.3999     0.11094E-02 
  41553.6621     0.11108E-02 
  41585.9242     0.11122E-02 
  41618.1864     0.11135E-02 
  41650.4486     0.11148E-02 
  41682.7107     0.11161E-02 
  41714.9729     0.11173E-02 
  41747.2350     0.11185E-02 
  41779.4972     0.11197E-02 
  41811.7594     0.11208E-02 
  41844.0215     0.11219E-02 
  41876.2837     0.11230E-02 
  41908.5458     0.11241E-02 
  41940.8080     0.11251E-02 
  41973.0702     0.11260E-02 
  42005.3323     0.11270E-02 
  42037.5945     0.11279E-02 
  42069.8566     0.11288E-02 
  42102.1188     0.11296E-02 
  42134.3810     0.11304E-02 
  42166.6431     0.11312E-02 
  42198.9053     0.11320E-02 
  42231.1674     0.11327E-02 
  42263.4296     0.11334E-02 
  42295.6918     0.11340E-02 
  42327.9539     0.11347E-02 
  42360.2161     0.11352E-02 
  42392.4782     0.11358E-02 
  42424.7404     0.11363E-02 
  42457.0026     0.11368E-02 
  42489.2647     0.11373E-02 
  42521.5269     0.11377E-02 
  42553.7890     0.11381E-02 
  42586.0512     0.11384E-02 
  42618.3134     0.11388E-02 
  42650.5755     0.11391E-02 
  42682.8377     0.11393E-02 
  42715.0998     0.11396E-02 
  42747.3620     0.11398E-02 
  42779.6242     0.11399E-02 
  42811.8863     0.11400E-02 
  42844.1485     0.11401E-02 
  42876.4106     0.11402E-02 
  42908.6728     0.11403E-02 
  42940.9350     0.11403E-02 
  42973.1971     0.11402E-02 
  43005.4593     0.11402E-02 
  43037.7214     0.11401E-02 
  43069.9836     0.11400E-02 
  43102.2458     0.11398E-02 
  43134.5079     0.11396E-02 
  43166.7701     0.11394E-02 
  43199.0322     0.11391E-02 
  43231.2944     0.11389E-02 
  43263.5566     0.11385E-02 
  43295.8187     0.11382E-02 
  43328.0809     0.11378E-02 
  43360.3430     0.11374E-02 
  43392.6052     0.11370E-02 
  43424.8674     0.11365E-02 
  43457.1295     0.11360E-02 
  43489.3917     0.11355E-02 
  43521.6538     0.11349E-02 
  43553.9160     0.11343E-02 
  43586.1782     0.11337E-02 
  43618.4403     0.11330E-02 
  43650.7025     0.11323E-02 
  43682.9646     0.11316E-02 
  43715.2268     0.11309E-02 
  43747.4890     0.11301E-02 
  43779.7511     0.11293E-02 
  43812.0133     0.11284E-02 
  43844.2754     0.11276E-02 
  43876.5376     0.11267E-02 
  43908.7998     0.11257E-02 
  43941.0619     0.11248E-02 
  43973.3241     0.11238E-02 
  44005.5862     0.11228E-02 
  44037.8484     0.11217E-02 
  44070.1106     0.11207E-02 
  44102.3727     0.11196E-02 
  44134.6349     0.11184E-02 
  44166.8970     0.11173E-02 
  44199.1592     0.11161E-02 
  44231.4214     0.11149E-02 
  44263.6835     0.11136E-02 
  44295.9457     0.11124E-02 
  44328.2078     0.11111E-02 
  44360.4700     0.11097E-02 
  44392.7322     0.11084E-02 
  44424.9943     0.11070E-02 
  44457.2565     0.11056E-02 
  44489.5186     0.11041E-02 
  44521.7808     0.11027E-02 
  44554.0430     0.11012E-02 
  44586.3051     0.10997E-02 
  44618.5673     0.10981E-02 
  44650.8294     0.10966E-02 
  44683.0916     0.10950E-02 
  44715.3538     0.10933E-02 
  44747.6159     0.10917E-02 
  44779.8781     0.10900E-02 
  44812.1402     0.10883E-02 
  44844.4024     0.10866E-02 
  44876.6646     0.10848E-02 
  44908.9267     0.10831E-02 
  44941.1889     0.10813E-02 
  44973.4510     0.10794E-02 
  45005.7132     0.10776E-02 
  45037.9754     0.10757E-02 
  45070.2375     0.10738E-02 
  45102.4997     0.10719E-02 
  45134.7618     0.10699E-02 
  45167.0240     0.10680E-02 
  45199.2862     0.10660E-02 
  45231.5483     0.10640E-02 
  45263.8105     0.10619E-02 
  45296.0726     0.10599E-02 
  45328.3348     0.10578E-02 
  45360.5970     0.10557E-02 
  45392.8591     0.10535E-02 
  45425.1213     0.10514E-02 
  45457.3834     0.10492E-02 
  45489.6456     0.10470E-02 
  45521.9078     0.10448E-02 
  45554.1699     0.10425E-02 
  45586.4321     0.10403E-02 
  45618.6942     0.10380E-02 
  45650.9564     0.10357E-02 
  45683.2186     0.10334E-02 
  45715.4807     0.10310E-02 
  45747.7429     0.10287E-02 
  45780.0050     0.10263E-02 
  45812.2672     0.10239E-02 
  45844.5294     0.10215E-02 
  45876.7915     0.10190E-02 
  45909.0537     0.10166E-02 
  45941.3158     0.10141E-02 
  45973.5780     0.10116E-02 
  46005.8402     0.10091E-02 
  46038.1023     0.10065E-02 
  46070.3645     0.10040E-02 
  46102.6266     0.10014E-02 
  46134.8888     0.99880E-03 
  46167.1510     0.99619E-03 
  46199.4131     0.99357E-03 
  46231.6753     0.99093E-03 
  46263.9374     0.98827E-03 
  46296.1996     0.98559E-03 
  46328.4618     0.98290E-03 
  46360.7239     0.98019E-03 
  46392.9861     0.97746E-03 
  46425.2482     0.97472E-03 
  46457.5104     0.97197E-03 
  46489.7726     0.96919E-03 
  46522.0347     0.96641E-03 
  46554.2969     0.96360E-03 
  46586.5590     0.96078E-03 
  46618.8212     0.95795E-03 
  46651.0834     0.95511E-03 
  46683.3455     0.95224E-03 
  46715.6077     0.94937E-03 
  46747.8698     0.94648E-03 
  46780.1320     0.94358E-03 
  46812.3942     0.94066E-03 
  46844.6563     0.93773E-03 
  46876.9185     0.93479E-03 
  46909.1806     0.93183E-03 
  46941.4428     0.92887E-03 
  46973.7050     0.92589E-03 
  47005.9671     0.92289E-03 
  47038.2293     0.91989E-03 
  47070.4914     0.91687E-03 
  47102.7536     0.91385E-03 
  47135.0158     0.91081E-03 
  47167.2779     0.90776E-03 
  47199.5401     0.90470E-03 
  47231.8022     0.90162E-03 
  47264.0644     0.89854E-03 
  47296.3266     0.89545E-03 
  47328.5887     0.89235E-03 
  47360.8509     0.88923E-03 
  47393.1130     0.88611E-03 
  47425.3752     0.88298E-03 
  47457.6374     0.87984E-03 
  47489.8995     0.87669E-03 
  47522.1617     0.87353E-03 
  47554.4238     0.87036E-03 
  47586.6860     0.86718E-03 
  47618.9482     0.86400E-03 
  47651.2103     0.86080E-03 
  47683.4725     0.85760E-03 
  47715.7346     0.85439E-03 
  47747.9968     0.85118E-03 
  47780.2590     0.84795E-03 
  47812.5211     0.84472E-03 
  47844.7833     0.84148E-03 
  47877.0454     0.83824E-03 
  47909.3076     0.83499E-03 
  47941.5698     0.83173E-03 
  47973.8319     0.82847E-03 
  48006.0941     0.82520E-03 
  48038.3562     0.82192E-03 
  48070.6184     0.81864E-03 
  48102.8806     0.81536E-03 
  48135.1427     0.81206E-03 
  48167.4049     0.80877E-03 
  48199.6670     0.80547E-03 
  48231.9292     0.80216E-03 
  48264.1914     0.79885E-03 
  48296.4535     0.79553E-03 
  48328.7157     0.79221E-03 
  48360.9778     0.78889E-03 
  48393.2400     0.78557E-03 
  48425.5022     0.78224E-03 
  48457.7643     0.77890E-03 
  48490.0265     0.77556E-03 
  48522.2886     0.77222E-03 
  48554.5508     0.76888E-03 
  48586.8130     0.76554E-03 
  48619.0751     0.76219E-03 
  48651.3373     0.75884E-03 
  48683.5994     0.75549E-03 
  48715.8616     0.75213E-03 
  48748.1238     0.74878E-03 
  48780.3859     0.74542E-03 
  48812.6481     0.74206E-03 
  48844.9102     0.73870E-03 
  48877.1724     0.73534E-03 
  48909.4346     0.73198E-03 
  48941.6967     0.72861E-03 
  48973.9589     0.72525E-03 
  49006.2210     0.72188E-03 
  49038.4832     0.71852E-03 
  49070.7454     0.71515E-03 
  49103.0075     0.71179E-03 
  49135.2697     0.70843E-03 
  49167.5318     0.70506E-03 
  49199.7940     0.70170E-03 
  49232.0562     0.69833E-03 
  49264.3183     0.69497E-03 
  49296.5805     0.69161E-03 
  49328.8426     0.68825E-03 
  49361.1048     0.68489E-03 
  49393.3670     0.68153E-03 
  49425.6291     0.67818E-03 
  49457.8913     0.67482E-03 
  49490.1534     0.67147E-03 
  49522.4156     0.66812E-03 
  49554.6778     0.66477E-03 
  49586.9399     0.66143E-03 
  49619.2021     0.65808E-03 
  49651.4642     0.65474E-03 
  49683.7264     0.65140E-03 
  49715.9886     0.64807E-03 
  49748.2507     0.64473E-03 
  49780.5129     0.64140E-03 
  49812.7750     0.63808E-03 
  49845.0372     0.63476E-03 
  49877.2994     0.63144E-03 
  49909.5615     0.62812E-03 
  49941.8237     0.62481E-03 
  49974.0858     0.62150E-03 
  50006.3480     0.61820E-03 
  50038.6102     0.61490E-03 
  50070.8723     0.61160E-03 
  50103.1345     0.60831E-03 
  50135.3966     0.60502E-03 
  50167.6588     0.60174E-03 
  50199.9210     0.59846E-03 
  50232.1831     0.59519E-03 
  50264.4453     0.59192E-03 
  50296.7074     0.58866E-03 
  50328.9696     0.58540E-03 
  50361.2318     0.58215E-03 
  50393.4939     0.57891E-03 
  50425.7561     0.57566E-03 
  50458.0182     0.57243E-03 
  50490.2804     0.56920E-03 
  50522.5426     0.56598E-03 
  50554.8047     0.56276E-03 
  50587.0669     0.55955E-03 
  50619.3290     0.55634E-03 
  50651.5912     0.55314E-03 
  50683.8534     0.54995E-03 
  50716.1155     0.54677E-03 
  50748.3777     0.54359E-03 
  50780.6398     0.54041E-03 
  50812.9020     0.53725E-03 
  50845.1642     0.53409E-03 
  50877.4263     0.53094E-03 
  50909.6885     0.52779E-03 
  50941.9506     0.52465E-03 
  50974.2128     0.52152E-03 
  51006.4750     0.51840E-03 
  51038.7371     0.51528E-03 
  51070.9993     0.51218E-03 
  51103.2614     0.50908E-03 
  51135.5236     0.50598E-03 
  51167.7858     0.50290E-03 
  51200.0479     0.49982E-03 
  51232.3101     0.49675E-03 
  51264.5722     0.49369E-03 
  51296.8344     0.49064E-03 
  51329.0966     0.48759E-03 
  51361.3587     0.48455E-03 
  51393.6209     0.48153E-03 
  51425.8830     0.47851E-03 
  51458.1452     0.47549E-03 
  51490.4074     0.47249E-03 
  51522.6695     0.46950E-03 
  51554.9317     0.46651E-03 
  51587.1938     0.46353E-03 
  51619.4560     0.46056E-03 
  51651.7182     0.45761E-03 
  51683.9803     0.45465E-03 
  51716.2425     0.45171E-03 
  51748.5046     0.44878E-03 
  51780.7668     0.44586E-03 
  51813.0290     0.44294E-03 
  51845.2911     0.44004E-03 
  51877.5533     0.43714E-03 
  51909.8154     0.43426E-03 
  51942.0776     0.43138E-03 
  51974.3398     0.42851E-03 
  52006.6019     0.42565E-03 
  52038.8641     0.42280E-03 
  52071.1262     0.41997E-03 
  52103.3884     0.41714E-03 
  52135.6506     0.41432E-03 
  52167.9127     0.41151E-03 
  52200.1749     0.40871E-03 
  52232.4370     0.40592E-03 
  52264.6992     0.40314E-03 
  52296.9614     0.40037E-03 
  52329.2235     0.39761E-03 
  52361.4857     0.39485E-03 
  52393.7478     0.39211E-03 
  52426.0100     0.38938E-03 
  52458.2722     0.38666E-03 
  52490.5343     0.38395E-03 
  52522.7965     0.38125E-03 
  52555.0586     0.37857E-03 
  52587.3208     0.37589E-03 
  52619.5830     0.37322E-03 
  52651.8451     0.37056E-03 
  52684.1073     0.36791E-03 
  52716.3694     0.36527E-03 
  52748.6316     0.36264E-03 
  52780.8938     0.36003E-03 
  52813.1559     0.35742E-03 
  52845.4181     0.35483E-03 
  52877.6802     0.35224E-03 
  52909.9424     0.34967E-03 
  52942.2046     0.34710E-03 
  52974.4667     0.34455E-03 
  53006.7289     0.34200E-03 
  53038.9910     0.33947E-03 
  53071.2532     0.33695E-03 
  53103.5154     0.33444E-03 
  53135.7775     0.33194E-03 
  53168.0397     0.32945E-03 
  53200.3018     0.32697E-03 
  53232.5640     0.32450E-03 
  53264.8262     0.32205E-03 
  53297.0883     0.31960E-03 
  53329.3505     0.31716E-03 
  53361.6126     0.31474E-03 
  53393.8748     0.31232E-03 
  53426.1370     0.30992E-03 
  53458.3991     0.30753E-03 
  53490.6613     0.30515E-03 
  53522.9234     0.30278E-03 
  53555.1856     0.30042E-03 
  53587.4478     0.29807E-03 
  53619.7099     0.29573E-03 
  53651.9721     0.29340E-03 
  53684.2342     0.29109E-03 
  53716.4964     0.28878E-03 
  53748.7586     0.28649E-03 
  53781.0207     0.28420E-03 
  53813.2829     0.28193E-03 
  53845.5450     0.27967E-03 
  53877.8072     0.27742E-03 
  53910.0694     0.27518E-03 
  53942.3315     0.27295E-03 
  53974.5937     0.27073E-03 
  54006.8558     0.26853E-03 
  54039.1180     0.26633E-03 
  54071.3802     0.26414E-03 
  54103.6423     0.26197E-03 
  54135.9045     0.25981E-03 
  54168.1666     0.25765E-03 
  54200.4288     0.25551E-03 
  54232.6910     0.25338E-03 
  54264.9531     0.25126E-03 
  54297.2153     0.24915E-03 
  54329.4774     0.24705E-03 
  54361.7396     0.24497E-03 
  54394.0018     0.24289E-03 
  54426.2639     0.24082E-03 
  54458.5261     0.23877E-03 
  54490.7882     0.23673E-03 
  54523.0504     0.23469E-03 
  54555.3126     0.23267E-03 
  54587.5747     0.23066E-03 
  54619.8369     0.22866E-03 
  54652.0990     0.22667E-03 
  54684.3612     0.22469E-03 
  54716.6234     0.22272E-03 
  54748.8855     0.22076E-03 
  54781.1477     0.21881E-03 
  54813.4098     0.21688E-03 
  54845.6720     0.21495E-03 
  54877.9342     0.21303E-03 
  54910.1963     0.21113E-03 
  54942.4585     0.20924E-03 
  54974.7206     0.20735E-03 
  55006.9828     0.20548E-03 
  55039.2450     0.20362E-03 
  55071.5071     0.20176E-03 
  55103.7693     0.19992E-03 
  55136.0314     0.19809E-03 
  55168.2936     0.19627E-03 
  55200.5558     0.19446E-03 
  55232.8179     0.19266E-03 
  55265.0801     0.19087E-03 
  55297.3422     0.18909E-03 
  55329.6044     0.18733E-03 
  55361.8666     0.18557E-03 
  55394.1287     0.18382E-03 
  55426.3909     0.18208E-03 
  55458.6530     0.18036E-03 
  55490.9152     0.17864E-03 
  55523.1774     0.17693E-03 
  55555.4395     0.17523E-03 
  55587.7017     0.17355E-03 
  55619.9638     0.17187E-03 
  55652.2260     0.17021E-03 
  55684.4882     0.16855E-03 
  55716.7503     0.16690E-03 
  55749.0125     0.16527E-03 
  55781.2746     0.16364E-03 
  55813.5368     0.16203E-03 
  55845.7990     0.16042E-03 
  55878.0611     0.15882E-03 
  55910.3233     0.15724E-03 
  55942.5854     0.15566E-03 
  55974.8476     0.15409E-03 
  56007.1098     0.15254E-03 
  56039.3719     0.15099E-03 
  56071.6341     0.14945E-03 
  56103.8962     0.14793E-03 
  56136.1584     0.14641E-03 
  56168.4206     0.14490E-03 
  56200.6827     0.14340E-03 
  56232.9449     0.14191E-03 
  56265.2070     0.14043E-03 
  56297.4692     0.13896E-03 
  56329.7314     0.13750E-03 
  56361.9935     0.13605E-03 
  56394.2557     0.13461E-03 
  56426.5178     0.13318E-03 
  56458.7800     0.13176E-03 
  56491.0422     0.13035E-03 
  56523.3043     0.12894E-03 
  56555.5665     0.12755E-03 
  56587.8286     0.12616E-03 
  56620.0908     0.12479E-03 
  56652.3530     0.12342E-03 
  56684.6151     0.12206E-03 
  56716.8773     0.12071E-03 
  56749.1394     0.11938E-03 
  56781.4016     0.11805E-03 
  56813.6638     0.11672E-03 
  56845.9259     0.11541E-03 
  56878.1881     0.11411E-03 
  56910.4502     0.11282E-03 
  56942.7124     0.11153E-03 
  56974.9746     0.11025E-03 
  57007.2367     0.10899E-03 
  57039.4989     0.10773E-03 
  57071.7610     0.10648E-03 
  57104.0232     0.10524E-03 
  57136.2854     0.10401E-03 
  57168.5475     0.10278E-03 
  57200.8097     0.10157E-03 
  57233.0718     0.10036E-03 
  57265.3340     0.99163E-04 
  57297.5962     0.97975E-04 
  57329.8583     0.96794E-04 
  57362.1205     0.95622E-04 
  57394.3826     0.94459E-04 
  57426.6448     0.93304E-04 
  57458.9070     0.92157E-04 
  57491.1691     0.91019E-04 
  57523.4313     0.89889E-04 
  57555.6934     0.88768E-04 
  57587.9556     0.87655E-04 
  57620.2178     0.86550E-04 
  57652.4799     0.85453E-04 
  57684.7421     0.84364E-04 
  57717.0042     0.83284E-04 
  57749.2664     0.82212E-04 
  57781.5286     0.81148E-04 
  57813.7907     0.80092E-04 
  57846.0529     0.79044E-04 
  57878.3150     0.78004E-04 
  57910.5772     0.76972E-04 
  57942.8394     0.75948E-04 
  57975.1015     0.74932E-04 
  58007.3637     0.73924E-04 
  58039.6258     0.72924E-04 
  58071.8880     0.71931E-04 
  58104.1502     0.70946E-04 
  58136.4123     0.69970E-04 
  58168.6745     0.69001E-04 
  58200.9366     0.68039E-04 
  58233.1988     0.67085E-04 
  58265.4610     0.66139E-04 
  58297.7231     0.65201E-04 
  58329.9853     0.64270E-04 
  58362.2474     0.63347E-04 
  58394.5096     0.62431E-04 
  58426.7718     0.61523E-04 
  58459.0339     0.60623E-04 
  58491.2961     0.59730E-04 
  58523.5582     0.58844E-04 
  58555.8204     0.57966E-04 
  58588.0826     0.57095E-04 
  58620.3447     0.56231E-04 
  58652.6069     0.55375E-04 
  58684.8690     0.54526E-04 
  58717.1312     0.53685E-04 
  58749.3934     0.52851E-04 
  58781.6555     0.52024E-04 
  58813.9177     0.51204E-04 
  58846.1798     0.50391E-04 
  58878.4420     0.49586E-04 
  58910.7042     0.48788E-04 
  58942.9663     0.47996E-04 
  58975.2285     0.47212E-04 
  59007.4906     0.46436E-04 
  59039.7528     0.45666E-04 
  59072.0150     0.44903E-04 
  59104.2771     0.44147E-04 
  59136.5393     0.43398E-04 
  59168.8014     0.42657E-04 
  59201.0636     0.41922E-04 
  59233.3258     0.41194E-04 
  59265.5879     0.40473E-04 
  59297.8501     0.39759E-04 
  59330.1122     0.39052E-04 
  59362.3744     0.38352E-04 
  59394.6366     0.37658E-04 
  59426.8987     0.36972E-04 
  59459.1609     0.36292E-04 
  59491.4230     0.35619E-04 
  59523.6852     0.34953E-04 
  59555.9474     0.34294E-04 
  59588.2095     0.33641E-04 
  59620.4717     0.32995E-04 
  59652.7338     0.32356E-04 
  59684.9960     0.31724E-04 
  59717.2582     0.31098E-04 
  59749.5203     0.30479E-04 
  59781.7825     0.29867E-04 
  59814.0446     0.29262E-04 
  59846.3068     0.28663E-04 
  59878.5690     0.28071E-04 
  59910.8311     0.27485E-04 
  59943.0933     0.26906E-04 
  59975.3554     0.26334E-04 
  60007.6176     0.25769E-04 
  60039.8798     0.25210E-04 
  60072.1419     0.24657E-04 
  60104.4041     0.24112E-04 
  60136.6662     0.23572E-04 
  60168.9284     0.23040E-04 
  60201.1906     0.22514E-04 
  60233.4527     0.21995E-04 
  60265.7149     0.21482E-04 
  60297.9770     0.20976E-04 
  60330.2392     0.20477E-04 
  60362.5014     0.19984E-04 
  60394.7635     0.19498E-04 
  60427.0257     0.19018E-04 
  60459.2878     0.18545E-04 
  60491.5500     0.18079E-04 
  60523.8122     0.17619E-04 
  60556.0743     0.17166E-04 
  60588.3365     0.16719E-04 
  60620.5986     0.16280E-04 
  60652.8608     0.15846E-04 
  60685.1230     0.15420E-04 
  60717.3851     0.15000E-04 
  60749.6473     0.14587E-04 
  60781.9094     0.14180E-04 
  60814.1716     0.13781E-04 
  60846.4338     0.13388E-04 
  60878.6959     0.13001E-04 
  60910.9581     0.12622E-04 
  60943.2202     0.12249E-04 
  60975.4824     0.11883E-04 
  61007.7446     0.11524E-04 
  61040.0067     0.11171E-04 
  61072.2689     0.10826E-04 
  61104.5310     0.10487E-04 
  61136.7932     0.10156E-04 
  61169.0554     0.98308E-05 
  61201.3175     0.95129E-05 
  61233.5797     0.92020E-05 
  61265.8418     0.88981E-05 
  61298.1040     0.86012E-05 
  61330.3662     0.83113E-05 
  61362.6283     0.80286E-05 
  61394.8905     0.77530E-05 
  61427.1526     0.74845E-05 
  61459.4148     0.72232E-05 
  61491.6770     0.69692E-05 
  61523.9391     0.67224E-05 
  61556.2013     0.64829E-05 
  61588.4634     0.62508E-05 
  61620.7256     0.60260E-05 
  61652.9878     0.58087E-05 
  61685.2499     0.55988E-05 
  61717.5121     0.53965E-05 
  61749.7742     0.52018E-05 
  61782.0364     0.50146E-05 
  61814.2986     0.48352E-05 
  61846.5607     0.46635E-05 
  61878.8229     0.44995E-05 
  61911.0850     0.43434E-05 
  61943.3472     0.41952E-05 
  61975.6094     0.40549E-05 
  62007.8715     0.39226E-05 
  62040.1337     0.37984E-05 
  62072.3958     0.36824E-05 
  62104.6580     0.35745E-05 
  62136.9202     0.34750E-05 
  62169.1823     0.33838E-05 
  62201.4445     0.33010E-05 
  62233.7066     0.32266E-05 
  62265.9688     0.31609E-05 
  62298.2310     0.31038E-05 
  62330.4931     0.30554E-05 
  62362.7553     0.30158E-05 
  62395.0174     0.29852E-05 
  62427.2796     0.29634E-05 
  62459.5418     0.29508E-05 
  62491.8039     0.29473E-05 
  62524.0661     0.29531E-05 
  62556.3282     0.29682E-05 
  62588.5904     0.29927E-05 
  62620.8526     0.30268E-05 
  62653.1147     0.30705E-05 
  62685.3769     0.31239E-05 
  62717.6390     0.31872E-05 
  62749.9012     0.32605E-05 
  62782.1634     0.33438E-05 
  62814.4255     0.34373E-05 
  62846.6877     0.35411E-05 
  62878.9498     0.36553E-05 
  62911.2120     0.37801E-05 
  62943.4742     0.39155E-05 
  62975.7363     0.40617E-05 
  63007.9985     0.42188E-05 
  63040.2606     0.43870E-05 
  63072.5228     0.45664E-05 
  63104.7850     0.47571E-05 
  63137.0471     0.49592E-05 
  63169.3093     0.51730E-05 
  63201.5714     0.53986E-05 
  63233.8336     0.56360E-05 
  63266.0958     0.58855E-05 
  63298.3579     0.61472E-05 
  63330.6201     0.64213E-05 
  63362.8822     0.67079E-05 
  63395.1444     0.70073E-05 
  63427.4066     0.73195E-05 
  63459.6687     0.76447E-05 
  63491.9309     0.79832E-05 
  63524.1930     0.83351E-05 
  63556.4552     0.87006E-05 
  63588.7174     0.90798E-05 
  63620.9795     0.94730E-05 
  63653.2417     0.98804E-05 
  63685.5038     0.10302E-04 
  63717.7660     0.10738E-04 
  63750.0282     0.11189E-04 
  63782.2903     0.11655E-04 
  63814.5525     0.12137E-04 
  63846.8146     0.12633E-04 
  63879.0768     0.13145E-04 
  63911.3390     0.13673E-04 
  63943.6011     0.14217E-04 
  63975.8633     0.14778E-04 
  64008.1254     0.15355E-04 
  64040.3876     0.15949E-04 
  64072.6498     0.16559E-04 
  64104.9119     0.17187E-04 
  64137.1741     0.17833E-04 
  64169.4362     0.18496E-04 
  64201.6984     0.19178E-04 
  64233.9606     0.19878E-04 
  64266.2227     0.20596E-04 
  64298.4849     0.21333E-04 
  64330.7470     0.22090E-04 
  64363.0092     0.22865E-04 
  64395.2714     0.23661E-04 
  64427.5335     0.24477E-04 
  64459.7957     0.25313E-04 
  64492.0578     0.26169E-04 
  64524.3200     0.27047E-04 
  64556.5822     0.27946E-04 
  64588.8443     0.28866E-04 
  64621.1065     0.29809E-04 
  64653.3686     0.30773E-04 
  64685.6308     0.31761E-04 
  64717.8930     0.32771E-04 
  64750.1551     0.33805E-04 
  64782.4173     0.34862E-04 
  64814.6794     0.35943E-04 
  64846.9416     0.37049E-04 
  64879.2038     0.38179E-04 
  64911.4659     0.39334E-04 
  64943.7281     0.40515E-04 
  64975.9902     0.41722E-04 
  65008.2524     0.42956E-04 
  65040.5146     0.44216E-04 
  65072.7767     0.45503E-04 
  65105.0389     0.46817E-04 
  65137.3010     0.48160E-04 
  65169.5632     0.49531E-04 
  65201.8254     0.50931E-04 
  65234.0875     0.52360E-04 
  65266.3497     0.53819E-04 
  65298.6118     0.55308E-04 
  65330.8740     0.56827E-04 
  65363.1362     0.58378E-04 
  65395.3983     0.59960E-04 
  65427.6605     0.61575E-04 
  65459.9226     0.63221E-04 
  65492.1848     0.64901E-04 
  65524.4470     0.66615E-04 
  65556.7091     0.68362E-04 
  65588.9713     0.70145E-04 
  65621.2334     0.71962E-04 
  65653.4956     0.73815E-04 
  65685.7578     0.75704E-04 
  65718.0199     0.77630E-04 
  65750.2821     0.79593E-04 
  65782.5442     0.81594E-04 
  65814.8064     0.83633E-04 
  65847.0686     0.85711E-04 
  65879.3307     0.87829E-04 
  65911.5929     0.89987E-04 
  65943.8550     0.92186E-04 
  65976.1172     0.94426E-04 
  66008.3794     0.96708E-04 
  66040.6415     0.99033E-04 
  66072.9037     0.10140E-03 
  66105.1658     0.10381E-03 
  66137.4280     0.10627E-03 
  66169.6902     0.10877E-03 
  66201.9523     0.11132E-03 
  66234.2145     0.11391E-03 
  66266.4766     0.11655E-03 
  66298.7388     0.11924E-03 
  66331.0010     0.12198E-03 
  66363.2631     0.12477E-03 
  66395.5253     0.12761E-03 
  66427.7874     0.13049E-03 
  66460.0496     0.13343E-03 
  66492.3118     0.13642E-03 
  66524.5739     0.13947E-03 
  66556.8361     0.14257E-03 
  66589.0982     0.14572E-03 
  66621.3604     0.14893E-03 
  66653.6226     0.15219E-03 
  66685.8847     0.15552E-03 
  66718.1469     0.15889E-03 
  66750.4090     0.16233E-03 
  66782.6712     0.16583E-03 
  66814.9334     0.16939E-03 
  66847.1955     0.17300E-03 
  66879.4577     0.17668E-03 
  66911.7198     0.18043E-03 
  66943.9820     0.18423E-03 
  66976.2442     0.18810E-03 
  67008.5063     0.19204E-03 
  67040.7685     0.19604E-03 
  67073.0306     0.20011E-03 
  67105.2928     0.20425E-03 
  67137.5550     0.20846E-03 
  67169.8171     0.21274E-03 
  67202.0793     0.21708E-03 
  67234.3414     0.22150E-03 
  67266.6036     0.22600E-03 
  67298.8658     0.23056E-03 
  67331.1279     0.23520E-03 
  67363.3901     0.23992E-03 
  67395.6522     0.24471E-03 
  67427.9144     0.24959E-03 
  67460.1766     0.25454E-03 
  67492.4387     0.25957E-03 
  67524.7009     0.26468E-03 
  67556.9630     0.26987E-03 
  67589.2252     0.27515E-03 
  67621.4874     0.28051E-03 
  67653.7495     0.28595E-03 
  67686.0117     0.29149E-03 
  67718.2738     0.29710E-03 
  67750.5360     0.30281E-03 
  67782.7982     0.30861E-03 
  67815.0603     0.31450E-03 
  67847.3225     0.32048E-03 
  67879.5846     0.32655E-03 
  67911.8468     0.33272E-03 
  67944.1090     0.33898E-03 
  67976.3711     0.34534E-03 
  68008.6333     0.35180E-03 
  68040.8954     0.35835E-03 
  68073.1576     0.36501E-03 
  68105.4198     0.37177E-03 
  68137.6819     0.37863E-03 
  68169.9441     0.38559E-03 
  68202.2062     0.39266E-03 
  68234.4684     0.39983E-03 
  68266.7306     0.40711E-03 
  68298.9927     0.41451E-03 
  68331.2549     0.42201E-03 
  68363.5170     0.42962E-03 
  68395.7792     0.43735E-03 
  68428.0414     0.44518E-03 
  68460.3035     0.45314E-03 
  68492.5657     0.46121E-03 
  68524.8278     0.46940E-03 
  68557.0900     0.47771E-03 
  68589.3522     0.48614E-03 
  68621.6143     0.49469E-03 
  68653.8765     0.50336E-03 
  68686.1386     0.51216E-03 
  68718.4008     0.52108E-03 
  68750.6630     0.53014E-03 
  68782.9251     0.53932E-03 
  68815.1873     0.54863E-03 
  68847.4494     0.55807E-03 
  68879.7116     0.56765E-03 
  68911.9738     0.57736E-03 
  68944.2359     0.58720E-03 
  68976.4981     0.59719E-03 
  69008.7602     0.60731E-03 
  69041.0224     0.61757E-03 
  69073.2846     0.62798E-03 
  69105.5467     0.63852E-03 
  69137.8089     0.64922E-03 
  69170.0710     0.66005E-03 
  69202.3332     0.67104E-03 
  69234.5954     0.68217E-03 
  69266.8575     0.69346E-03 
  69299.1197     0.70490E-03 
  69331.3818     0.71649E-03 
  69363.6440     0.72823E-03 
  69395.9062     0.74013E-03 
  69428.1683     0.75219E-03 
  69460.4305     0.76441E-03 
  69492.6926     0.77680E-03 
  69524.9548     0.78934E-03 
  69557.2170     0.80205E-03 
  69589.4791     0.81492E-03 
  69621.7413     0.82796E-03 
  69654.0034     0.84117E-03 
  69686.2656     0.85455E-03 
  69718.5278     0.86810E-03 
  69750.7899     0.88182E-03 
  69783.0521     0.89572E-03 
  69815.3142     0.90980E-03 
  69847.5764     0.92406E-03 
  69879.8386     0.93849E-03 
  69912.1007     0.95310E-03 
  69944.3629     0.96790E-03 
  69976.6250     0.98289E-03 
  70008.8872     0.99805E-03 
  70041.1494     0.10134E-02 
  70073.4115     0.10290E-02 
  70105.6737     0.10447E-02 
  70137.9358     0.10606E-02 
  70170.1980     0.10767E-02 
  70202.4602     0.10931E-02 
  70234.7223     0.11096E-02 
  70266.9845     0.11263E-02 
  70299.2466     0.11432E-02 
  70331.5088     0.11603E-02 
  70363.7710     0.11776E-02 
  70396.0331     0.11951E-02 
  70428.2953     0.12129E-02 
  70460.5574     0.12308E-02 
  70492.8196     0.12490E-02 
  70525.0818     0.12673E-02 
  70557.3439     0.12859E-02 
  70589.6061     0.13047E-02 
  70621.8682     0.13237E-02 
  70654.1304     0.13429E-02 
  70686.3926     0.13623E-02 
  70718.6547     0.13820E-02 
  70750.9169     0.14018E-02 
  70783.1790     0.14219E-02 
  70815.4412     0.14423E-02 
  70847.7034     0.14628E-02 
  70879.9655     0.14836E-02 
  70912.2277     0.15046E-02 
  70944.4898     0.15258E-02 
  70976.7520     0.15473E-02 
  71009.0142     0.15690E-02 
  71041.2763     0.15909E-02 
  71073.5385     0.16131E-02 
  71105.8006     0.16355E-02 
  71138.0628     0.16582E-02 
  71170.3250     0.16810E-02 
  71202.5871     0.17042E-02 
  71234.8493     0.17276E-02 
  71267.1114     0.17512E-02 
  71299.3736     0.17750E-02 
  71331.6358     0.17992E-02 
  71363.8979     0.18235E-02 
  71396.1601     0.18481E-02 
  71428.4222     0.18730E-02 
  71460.6844     0.18981E-02 
  71492.9466     0.19235E-02 
  71525.2087     0.19491E-02 
  71557.4709     0.19750E-02 
  71589.7330     0.20011E-02 
  71621.9952     0.20275E-02 
  71654.2574     0.20542E-02 
  71686.5195     0.20811E-02 
  71718.7817     0.21083E-02 
  71751.0438     0.21358E-02 
  71783.3060     0.21635E-02 
  71815.5682     0.21915E-02 
  71847.8303     0.22197E-02 
  71880.0925     0.22482E-02 
  71912.3546     0.22770E-02 
  71944.6168     0.23061E-02 
  71976.8790     0.23354E-02 
  72009.1411     0.23650E-02 
  72041.4033     0.23949E-02 
  72073.6654     0.24250E-02 
  72105.9276     0.24555E-02 
  72138.1898     0.24862E-02 
  72170.4519     0.25172E-02 
  72202.7141     0.25484E-02 
  72234.9762     0.25800E-02 
  72267.2384     0.26118E-02 
  72299.5006     0.26439E-02 
  72331.7627     0.26763E-02 
  72364.0249     0.27089E-02 
  72396.2870     0.27419E-02 
  72428.5492     0.27751E-02 
  72460.8114     0.28086E-02 
  72493.0735     0.28424E-02 
  72525.3357     0.28765E-02 
  72557.5978     0.29109E-02 
  72589.8600     0.29456E-02 
