  32262.1600     0.20767E+02 
  32294.4222     0.21038E+02 
  32326.6843     0.21312E+02 
  32358.9465     0.21589E+02 
  32391.2086     0.21867E+02 
  32423.4708     0.22148E+02 
  32455.7330     0.22432E+02 
  32487.9951     0.22718E+02 
  32520.2573     0.23007E+02 
  32552.5194     0.23298E+02 
  32584.7816     0.23591E+02 
  32617.0438     0.23887E+02 
  32649.3059     0.24185E+02 
  32681.5681     0.24486E+02 
  32713.8302     0.24789E+02 
  32746.0924     0.25095E+02 
  32778.3546     0.25403E+02 
  32810.6167     0.25714E+02 
  32842.8789     0.26027E+02 
  32875.1410     0.26342E+02 
  32907.4032     0.26660E+02 
  32939.6654     0.26981E+02 
  32971.9275     0.27304E+02 
  33004.1897     0.27629E+02 
  33036.4518     0.27957E+02 
  33068.7140     0.28287E+02 
  33100.9762     0.28620E+02 
  33133.2383     0.28955E+02 
  33165.5005     0.29292E+02 
  33197.7626     0.29632E+02 
  33230.0248     0.29975E+02 
  33262.2870     0.30319E+02 
  33294.5491     0.30666E+02 
  33326.8113     0.31016E+02 
  33359.0734     0.31368E+02 
  33391.3356     0.31722E+02 
  33423.5978     0.32079E+02 
  33455.8599     0.32438E+02 
  33488.1221     0.32799E+02 
  33520.3842     0.33163E+02 
  33552.6464     0.33529E+02 
  33584.9086     0.33898E+02 
  33617.1707     0.34269E+02 
  33649.4329     0.34642E+02 
  33681.6950     0.35017E+02 
  33713.9572     0.35395E+02 
  33746.2194     0.35775E+02 
  33778.4815     0.36157E+02 
  33810.7437     0.36541E+02 
  33843.0058     0.36928E+02 
  33875.2680     0.37317E+02 
  33907.5302     0.37708E+02 
  33939.7923     0.38102E+02 
  33972.0545     0.38497E+02 
  34004.3166     0.38895E+02 
  34036.5788     0.39295E+02 
  34068.8410     0.39697E+02 
  34101.1031     0.40101E+02 
  34133.3653     0.40507E+02 
  34165.6274     0.40916E+02 
  34197.8896     0.41326E+02 
  34230.1518     0.41739E+02 
  34262.4139     0.42153E+02 
  34294.6761     0.42570E+02 
  34326.9382     0.42988E+02 
  34359.2004     0.43409E+02 
  34391.4626     0.43832E+02 
  34423.7247     0.44256E+02 
  34455.9869     0.44683E+02 
  34488.2490     0.45111E+02 
  34520.5112     0.45541E+02 
  34552.7734     0.45974E+02 
  34585.0355     0.46408E+02 
  34617.2977     0.46843E+02 
  34649.5598     0.47281E+02 
  34681.8220     0.47721E+02 
  34714.0842     0.48162E+02 
  34746.3463     0.48605E+02 
  34778.6085     0.49049E+02 
  34810.8706     0.49496E+02 
  34843.1328     0.49944E+02 
  34875.3950     0.50393E+02 
  34907.6571     0.50845E+02 
  34939.9193     0.51298E+02 
  34972.1814     0.51752E+02 
  35004.4436     0.52208E+02 
  35036.7058     0.52666E+02 
  35068.9679     0.53125E+02 
  35101.2301     0.53585E+02 
  35133.4922     0.54047E+02 
  35165.7544     0.54510E+02 
  35198.0166     0.54975E+02 
  35230.2787     0.55441E+02 
  35262.5409     0.55908E+02 
  35294.8030     0.56377E+02 
  35327.0652     0.56847E+02 
  35359.3274     0.57318E+02 
  35391.5895     0.57791E+02 
  35423.8517     0.58264E+02 
  35456.1138     0.58739E+02 
  35488.3760     0.59215E+02 
  35520.6382     0.59692E+02 
  35552.9003     0.60170E+02 
  35585.1625     0.60649E+02 
  35617.4246     0.61129E+02 
  35649.6868     0.61609E+02 
  35681.9490     0.62091E+02 
  35714.2111     0.62574E+02 
  35746.4733     0.63058E+02 
  35778.7354     0.63542E+02 
  35810.9976     0.64027E+02 
  35843.2598     0.64513E+02 
  35875.5219     0.65000E+02 
  35907.7841     0.65488E+02 
  35940.0462     0.65976E+02 
  35972.3084     0.66464E+02 
  36004.5706     0.66954E+02 
  36036.8327     0.67444E+02 
  36069.0949     0.67934E+02 
  36101.3570     0.68425E+02 
  36133.6192     0.68916E+02 
  36165.8814     0.69408E+02 
  36198.1435     0.69900E+02 
  36230.4057     0.70393E+02 
  36262.6678     0.70885E+02 
  36294.9300     0.71378E+02 
  36327.1922     0.71872E+02 
  36359.4543     0.72365E+02 
  36391.7165     0.72859E+02 
  36423.9786     0.73353E+02 
  36456.2408     0.73846E+02 
  36488.5030     0.74340E+02 
  36520.7651     0.74834E+02 
  36553.0273     0.75328E+02 
  36585.2894     0.75822E+02 
  36617.5516     0.76316E+02 
  36649.8138     0.76809E+02 
  36682.0759     0.77302E+02 
  36714.3381     0.77796E+02 
  36746.6002     0.78289E+02 
  36778.8624     0.78781E+02 
  36811.1246     0.79273E+02 
  36843.3867     0.79765E+02 
  36875.6489     0.80257E+02 
  36907.9110     0.80748E+02 
  36940.1732     0.81238E+02 
  36972.4354     0.81729E+02 
  37004.6975     0.82218E+02 
  37036.9597     0.82707E+02 
  37069.2218     0.83195E+02 
  37101.4840     0.83683E+02 
  37133.7462     0.84169E+02 
  37166.0083     0.84656E+02 
  37198.2705     0.85141E+02 
  37230.5326     0.85625E+02 
  37262.7948     0.86109E+02 
  37295.0570     0.86591E+02 
  37327.3191     0.87073E+02 
  37359.5813     0.87554E+02 
  37391.8434     0.88033E+02 
  37424.1056     0.88512E+02 
  37456.3678     0.88989E+02 
  37488.6299     0.89466E+02 
  37520.8921     0.89941E+02 
  37553.1542     0.90415E+02 
  37585.4164     0.90887E+02 
  37617.6786     0.91359E+02 
  37649.9407     0.91829E+02 
  37682.2029     0.92297E+02 
  37714.4650     0.92764E+02 
  37746.7272     0.93230E+02 
  37778.9894     0.93694E+02 
  37811.2515     0.94157E+02 
  37843.5137     0.94618E+02 
  37875.7758     0.95078E+02 
  37908.0380     0.95536E+02 
  37940.3002     0.95992E+02 
  37972.5623     0.96446E+02 
  38004.8245     0.96899E+02 
  38037.0866     0.97350E+02 
  38069.3488     0.97799E+02 
  38101.6110     0.98246E+02 
  38133.8731     0.98691E+02 
  38166.1353     0.99134E+02 
  38198.3974     0.99576E+02 
  38230.6596     0.10002E+03 
  38262.9218     0.10045E+03 
  38295.1839     0.10089E+03 
  38327.4461     0.10132E+03 
  38359.7082     0.10175E+03 
  38391.9704     0.10218E+03 
  38424.2326     0.10261E+03 
  38456.4947     0.10303E+03 
  38488.7569     0.10345E+03 
  38521.0190     0.10387E+03 
  38553.2812     0.10429E+03 
  38585.5434     0.10470E+03 
  38617.8055     0.10512E+03 
  38650.0677     0.10553E+03 
  38682.3298     0.10593E+03 
  38714.5920     0.10634E+03 
  38746.8542     0.10674E+03 
  38779.1163     0.10714E+03 
  38811.3785     0.10754E+03 
  38843.6406     0.10793E+03 
  38875.9028     0.10832E+03 
  38908.1650     0.10871E+03 
  38940.4271     0.10910E+03 
  38972.6893     0.10948E+03 
  39004.9514     0.10986E+03 
  39037.2136     0.11024E+03 
  39069.4758     0.11061E+03 
  39101.7379     0.11099E+03 
  39134.0001     0.11135E+03 
  39166.2622     0.11172E+03 
  39198.5244     0.11208E+03 
  39230.7866     0.11244E+03 
  39263.0487     0.11280E+03 
  39295.3109     0.11315E+03 
  39327.5730     0.11350E+03 
  39359.8352     0.11385E+03 
  39392.0974     0.11420E+03 
  39424.3595     0.11454E+03 
  39456.6217     0.11487E+03 
  39488.8838     0.11521E+03 
  39521.1460     0.11554E+03 
  39553.4082     0.11587E+03 
  39585.6703     0.11619E+03 
  39617.9325     0.11651E+03 
  39650.1946     0.11683E+03 
  39682.4568     0.11715E+03 
  39714.7190     0.11746E+03 
  39746.9811     0.11776E+03 
  39779.2433     0.11807E+03 
  39811.5054     0.11837E+03 
  39843.7676     0.11867E+03 
  39876.0298     0.11896E+03 
  39908.2919     0.11925E+03 
  39940.5541     0.11954E+03 
  39972.8162     0.11982E+03 
  40005.0784     0.12010E+03 
  40037.3406     0.12037E+03 
  40069.6027     0.12065E+03 
  40101.8649     0.12091E+03 
  40134.1270     0.12118E+03 
  40166.3892     0.12144E+03 
  40198.6514     0.12170E+03 
  40230.9135     0.12195E+03 
  40263.1757     0.12220E+03 
  40295.4378     0.12245E+03 
  40327.7000     0.12269E+03 
  40359.9622     0.12293E+03 
  40392.2243     0.12316E+03 
  40424.4865     0.12339E+03 
  40456.7486     0.12362E+03 
  40489.0108     0.12384E+03 
  40521.2730     0.12406E+03 
  40553.5351     0.12428E+03 
  40585.7973     0.12449E+03 
  40618.0594     0.12469E+03 
  40650.3216     0.12490E+03 
  40682.5838     0.12510E+03 
  40714.8459     0.12529E+03 
  40747.1081     0.12548E+03 
  40779.3702     0.12567E+03 
  40811.6324     0.12585E+03 
  40843.8946     0.12603E+03 
  40876.1567     0.12621E+03 
  40908.4189     0.12638E+03 
  40940.6810     0.12655E+03 
  40972.9432     0.12671E+03 
  41005.2054     0.12687E+03 
  41037.4675     0.12703E+03 
  41069.7297     0.12718E+03 
  41101.9918     0.12732E+03 
  41134.2540     0.12747E+03 
  41166.5162     0.12761E+03 
  41198.7783     0.12774E+03 
  41231.0405     0.12787E+03 
  41263.3026     0.12800E+03 
  41295.5648     0.12812E+03 
  41327.8270     0.12824E+03 
  41360.0891     0.12835E+03 
  41392.3513     0.12847E+03 
  41424.6134     0.12857E+03 
  41456.8756     0.12867E+03 
  41489.1378     0.12877E+03 
  41521.3999     0.12887E+03 
  41553.6621     0.12896E+03 
  41585.9242     0.12904E+03 
  41618.1864     0.12912E+03 
  41650.4486     0.12920E+03 
  41682.7107     0.12927E+03 
  41714.9729     0.12934E+03 
  41747.2350     0.12941E+03 
  41779.4972     0.12947E+03 
  41811.7594     0.12953E+03 
  41844.0215     0.12958E+03 
  41876.2837     0.12963E+03 
  41908.5458     0.12967E+03 
  41940.8080     0.12971E+03 
  41973.0702     0.12975E+03 
  42005.3323     0.12978E+03 
  42037.5945     0.12981E+03 
  42069.8566     0.12984E+03 
  42102.1188     0.12986E+03 
  42134.3810     0.12987E+03 
  42166.6431     0.12989E+03 
  42198.9053     0.12989E+03 
  42231.1674     0.12990E+03 
  42263.4296     0.12990E+03 
  42295.6918     0.12989E+03 
  42327.9539     0.12989E+03 
  42360.2161     0.12987E+03 
  42392.4782     0.12986E+03 
  42424.7404     0.12984E+03 
  42457.0026     0.12982E+03 
  42489.2647     0.12979E+03 
  42521.5269     0.12976E+03 
  42553.7890     0.12972E+03 
  42586.0512     0.12968E+03 
  42618.3134     0.12964E+03 
  42650.5755     0.12959E+03 
  42682.8377     0.12954E+03 
  42715.0998     0.12948E+03 
  42747.3620     0.12942E+03 
  42779.6242     0.12936E+03 
  42811.8863     0.12929E+03 
  42844.1485     0.12922E+03 
  42876.4106     0.12915E+03 
  42908.6728     0.12907E+03 
  42940.9350     0.12899E+03 
  42973.1971     0.12890E+03 
  43005.4593     0.12881E+03 
  43037.7214     0.12872E+03 
  43069.9836     0.12862E+03 
  43102.2458     0.12852E+03 
  43134.5079     0.12842E+03 
  43166.7701     0.12831E+03 
  43199.0322     0.12820E+03 
  43231.2944     0.12809E+03 
  43263.5566     0.12797E+03 
  43295.8187     0.12784E+03 
  43328.0809     0.12772E+03 
  43360.3430     0.12759E+03 
  43392.6052     0.12746E+03 
  43424.8674     0.12732E+03 
  43457.1295     0.12718E+03 
  43489.3917     0.12703E+03 
  43521.6538     0.12689E+03 
  43553.9160     0.12674E+03 
  43586.1782     0.12658E+03 
  43618.4403     0.12643E+03 
  43650.7025     0.12626E+03 
  43682.9646     0.12610E+03 
  43715.2268     0.12593E+03 
  43747.4890     0.12576E+03 
  43779.7511     0.12559E+03 
  43812.0133     0.12541E+03 
  43844.2754     0.12523E+03 
  43876.5376     0.12505E+03 
  43908.7998     0.12486E+03 
  43941.0619     0.12467E+03 
  43973.3241     0.12447E+03 
  44005.5862     0.12428E+03 
  44037.8484     0.12408E+03 
  44070.1106     0.12387E+03 
  44102.3727     0.12367E+03 
  44134.6349     0.12346E+03 
  44166.8970     0.12325E+03 
  44199.1592     0.12303E+03 
  44231.4214     0.12281E+03 
  44263.6835     0.12259E+03 
  44295.9457     0.12237E+03 
  44328.2078     0.12214E+03 
  44360.4700     0.12191E+03 
  44392.7322     0.12168E+03 
  44424.9943     0.12144E+03 
  44457.2565     0.12120E+03 
  44489.5186     0.12096E+03 
  44521.7808     0.12072E+03 
  44554.0430     0.12047E+03 
  44586.3051     0.12022E+03 
  44618.5673     0.11997E+03 
  44650.8294     0.11972E+03 
  44683.0916     0.11946E+03 
  44715.3538     0.11920E+03 
  44747.6159     0.11894E+03 
  44779.8781     0.11867E+03 
  44812.1402     0.11840E+03 
  44844.4024     0.11813E+03 
  44876.6646     0.11786E+03 
  44908.9267     0.11758E+03 
  44941.1889     0.11731E+03 
  44973.4510     0.11703E+03 
  45005.7132     0.11674E+03 
  45037.9754     0.11646E+03 
  45070.2375     0.11617E+03 
  45102.4997     0.11588E+03 
  45134.7618     0.11559E+03 
  45167.0240     0.11529E+03 
  45199.2862     0.11500E+03 
  45231.5483     0.11470E+03 
  45263.8105     0.11440E+03 
  45296.0726     0.11410E+03 
  45328.3348     0.11379E+03 
  45360.5970     0.11348E+03 
  45392.8591     0.11317E+03 
  45425.1213     0.11286E+03 
  45457.3834     0.11255E+03 
  45489.6456     0.11223E+03 
  45521.9078     0.11192E+03 
  45554.1699     0.11160E+03 
  45586.4321     0.11128E+03 
  45618.6942     0.11095E+03 
  45650.9564     0.11063E+03 
  45683.2186     0.11030E+03 
  45715.4807     0.10997E+03 
  45747.7429     0.10964E+03 
  45780.0050     0.10931E+03 
  45812.2672     0.10898E+03 
  45844.5294     0.10864E+03 
  45876.7915     0.10830E+03 
  45909.0537     0.10797E+03 
  45941.3158     0.10762E+03 
  45973.5780     0.10728E+03 
  46005.8402     0.10694E+03 
  46038.1023     0.10659E+03 
  46070.3645     0.10625E+03 
  46102.6266     0.10590E+03 
  46134.8888     0.10555E+03 
  46167.1510     0.10520E+03 
  46199.4131     0.10485E+03 
  46231.6753     0.10449E+03 
  46263.9374     0.10414E+03 
  46296.1996     0.10378E+03 
  46328.4618     0.10342E+03 
  46360.7239     0.10306E+03 
  46392.9861     0.10270E+03 
  46425.2482     0.10234E+03 
  46457.5104     0.10198E+03 
  46489.7726     0.10162E+03 
  46522.0347     0.10125E+03 
  46554.2969     0.10088E+03 
  46586.5590     0.10052E+03 
  46618.8212     0.10015E+03 
  46651.0834     0.99780E+02 
  46683.3455     0.99410E+02 
  46715.6077     0.99038E+02 
  46747.8698     0.98666E+02 
  46780.1320     0.98293E+02 
  46812.3942     0.97919E+02 
  46844.6563     0.97544E+02 
  46876.9185     0.97168E+02 
  46909.1806     0.96791E+02 
  46941.4428     0.96414E+02 
  46973.7050     0.96035E+02 
  47005.9671     0.95656E+02 
  47038.2293     0.95276E+02 
  47070.4914     0.94896E+02 
  47102.7536     0.94514E+02 
  47135.0158     0.94132E+02 
  47167.2779     0.93750E+02 
  47199.5401     0.93367E+02 
  47231.8022     0.92983E+02 
  47264.0644     0.92599E+02 
  47296.3266     0.92214E+02 
  47328.5887     0.91828E+02 
  47360.8509     0.91442E+02 
  47393.1130     0.91056E+02 
  47425.3752     0.90669E+02 
  47457.6374     0.90282E+02 
  47489.8995     0.89894E+02 
  47522.1617     0.89506E+02 
  47554.4238     0.89117E+02 
  47586.6860     0.88728E+02 
  47618.9482     0.88339E+02 
  47651.2103     0.87950E+02 
  47683.4725     0.87560E+02 
  47715.7346     0.87170E+02 
  47747.9968     0.86780E+02 
  47780.2590     0.86389E+02 
  47812.5211     0.85999E+02 
  47844.7833     0.85608E+02 
  47877.0454     0.85217E+02 
  47909.3076     0.84826E+02 
  47941.5698     0.84435E+02 
  47973.8319     0.84044E+02 
  48006.0941     0.83652E+02 
  48038.3562     0.83261E+02 
  48070.6184     0.82869E+02 
  48102.8806     0.82478E+02 
  48135.1427     0.82087E+02 
  48167.4049     0.81695E+02 
  48199.6670     0.81304E+02 
  48231.9292     0.80913E+02 
  48264.1914     0.80522E+02 
  48296.4535     0.80131E+02 
  48328.7157     0.79740E+02 
  48360.9778     0.79349E+02 
  48393.2400     0.78958E+02 
  48425.5022     0.78568E+02 
  48457.7643     0.78178E+02 
  48490.0265     0.77788E+02 
  48522.2886     0.77398E+02 
  48554.5508     0.77009E+02 
  48586.8130     0.76619E+02 
  48619.0751     0.76231E+02 
  48651.3373     0.75842E+02 
  48683.5994     0.75454E+02 
  48715.8616     0.75066E+02 
  48748.1238     0.74678E+02 
  48780.3859     0.74291E+02 
  48812.6481     0.73904E+02 
  48844.9102     0.73518E+02 
  48877.1724     0.73132E+02 
  48909.4346     0.72747E+02 
  48941.6967     0.72362E+02 
  48973.9589     0.71977E+02 
  49006.2210     0.71593E+02 
  49038.4832     0.71210E+02 
  49070.7454     0.70827E+02 
  49103.0075     0.70444E+02 
  49135.2697     0.70062E+02 
  49167.5318     0.69681E+02 
  49199.7940     0.69300E+02 
  49232.0562     0.68920E+02 
  49264.3183     0.68540E+02 
  49296.5805     0.68161E+02 
  49328.8426     0.67783E+02 
  49361.1048     0.67406E+02 
  49393.3670     0.67029E+02 
  49425.6291     0.66652E+02 
  49457.8913     0.66277E+02 
  49490.1534     0.65902E+02 
  49522.4156     0.65528E+02 
  49554.6778     0.65154E+02 
  49586.9399     0.64782E+02 
  49619.2021     0.64410E+02 
  49651.4642     0.64039E+02 
  49683.7264     0.63668E+02 
  49715.9886     0.63299E+02 
  49748.2507     0.62930E+02 
  49780.5129     0.62562E+02 
  49812.7750     0.62195E+02 
  49845.0372     0.61829E+02 
  49877.2994     0.61464E+02 
  49909.5615     0.61099E+02 
  49941.8237     0.60736E+02 
  49974.0858     0.60373E+02 
  50006.3480     0.60011E+02 
  50038.6102     0.59650E+02 
  50070.8723     0.59290E+02 
  50103.1345     0.58931E+02 
  50135.3966     0.58573E+02 
  50167.6588     0.58216E+02 
  50199.9210     0.57859E+02 
  50232.1831     0.57504E+02 
  50264.4453     0.57150E+02 
  50296.7074     0.56797E+02 
  50328.9696     0.56444E+02 
  50361.2318     0.56093E+02 
  50393.4939     0.55743E+02 
  50425.7561     0.55394E+02 
  50458.0182     0.55045E+02 
  50490.2804     0.54698E+02 
  50522.5426     0.54352E+02 
  50554.8047     0.54007E+02 
  50587.0669     0.53663E+02 
  50619.3290     0.53320E+02 
  50651.5912     0.52978E+02 
  50683.8534     0.52637E+02 
  50716.1155     0.52298E+02 
  50748.3777     0.51959E+02 
  50780.6398     0.51622E+02 
  50812.9020     0.51285E+02 
  50845.1642     0.50950E+02 
  50877.4263     0.50616E+02 
  50909.6885     0.50283E+02 
  50941.9506     0.49951E+02 
  50974.2128     0.49621E+02 
  51006.4750     0.49291E+02 
  51038.7371     0.48963E+02 
  51070.9993     0.48636E+02 
  51103.2614     0.48310E+02 
  51135.5236     0.47985E+02 
  51167.7858     0.47661E+02 
  51200.0479     0.47339E+02 
  51232.3101     0.47017E+02 
  51264.5722     0.46697E+02 
  51296.8344     0.46378E+02 
  51329.0966     0.46061E+02 
  51361.3587     0.45744E+02 
  51393.6209     0.45429E+02 
  51425.8830     0.45115E+02 
  51458.1452     0.44802E+02 
  51490.4074     0.44491E+02 
  51522.6695     0.44180E+02 
  51554.9317     0.43871E+02 
  51587.1938     0.43563E+02 
  51619.4560     0.43257E+02 
  51651.7182     0.42951E+02 
  51683.9803     0.42647E+02 
  51716.2425     0.42344E+02 
  51748.5046     0.42043E+02 
  51780.7668     0.41742E+02 
  51813.0290     0.41443E+02 
  51845.2911     0.41145E+02 
  51877.5533     0.40849E+02 
  51909.8154     0.40554E+02 
  51942.0776     0.40260E+02 
  51974.3398     0.39967E+02 
  52006.6019     0.39675E+02 
  52038.8641     0.39385E+02 
  52071.1262     0.39096E+02 
  52103.3884     0.38809E+02 
  52135.6506     0.38522E+02 
  52167.9127     0.38237E+02 
  52200.1749     0.37954E+02 
  52232.4370     0.37671E+02 
  52264.6992     0.37390E+02 
  52296.9614     0.37110E+02 
  52329.2235     0.36832E+02 
  52361.4857     0.36554E+02 
  52393.7478     0.36278E+02 
  52426.0100     0.36004E+02 
  52458.2722     0.35730E+02 
  52490.5343     0.35458E+02 
  52522.7965     0.35187E+02 
  52555.0586     0.34918E+02 
  52587.3208     0.34650E+02 
  52619.5830     0.34383E+02 
  52651.8451     0.34117E+02 
  52684.1073     0.33853E+02 
  52716.3694     0.33590E+02 
  52748.6316     0.33328E+02 
  52780.8938     0.33068E+02 
  52813.1559     0.32809E+02 
  52845.4181     0.32551E+02 
  52877.6802     0.32294E+02 
  52909.9424     0.32039E+02 
  52942.2046     0.31785E+02 
  52974.4667     0.31533E+02 
  53006.7289     0.31281E+02 
  53038.9910     0.31031E+02 
  53071.2532     0.30783E+02 
  53103.5154     0.30535E+02 
  53135.7775     0.30289E+02 
  53168.0397     0.30044E+02 
  53200.3018     0.29801E+02 
  53232.5640     0.29558E+02 
  53264.8262     0.29317E+02 
  53297.0883     0.29078E+02 
  53329.3505     0.28839E+02 
  53361.6126     0.28602E+02 
  53393.8748     0.28366E+02 
  53426.1370     0.28132E+02 
  53458.3991     0.27899E+02 
  53490.6613     0.27667E+02 
  53522.9234     0.27436E+02 
  53555.1856     0.27206E+02 
  53587.4478     0.26978E+02 
  53619.7099     0.26751E+02 
  53651.9721     0.26526E+02 
  53684.2342     0.26301E+02 
  53716.4964     0.26078E+02 
  53748.7586     0.25856E+02 
  53781.0207     0.25636E+02 
  53813.2829     0.25416E+02 
  53845.5450     0.25198E+02 
  53877.8072     0.24981E+02 
  53910.0694     0.24766E+02 
  53942.3315     0.24552E+02 
  53974.5937     0.24338E+02 
  54006.8558     0.24127E+02 
  54039.1180     0.23916E+02 
  54071.3802     0.23707E+02 
  54103.6423     0.23498E+02 
  54135.9045     0.23291E+02 
  54168.1666     0.23086E+02 
  54200.4288     0.22881E+02 
  54232.6910     0.22678E+02 
  54264.9531     0.22476E+02 
  54297.2153     0.22275E+02 
  54329.4774     0.22075E+02 
  54361.7396     0.21877E+02 
  54394.0018     0.21680E+02 
  54426.2639     0.21484E+02 
  54458.5261     0.21289E+02 
  54490.7882     0.21095E+02 
  54523.0504     0.20903E+02 
  54555.3126     0.20712E+02 
  54587.5747     0.20522E+02 
  54619.8369     0.20333E+02 
  54652.0990     0.20145E+02 
  54684.3612     0.19958E+02 
  54716.6234     0.19773E+02 
  54748.8855     0.19589E+02 
  54781.1477     0.19406E+02 
  54813.4098     0.19224E+02 
  54845.6720     0.19043E+02 
  54877.9342     0.18864E+02 
  54910.1963     0.18685E+02 
  54942.4585     0.18508E+02 
  54974.7206     0.18332E+02 
  55006.9828     0.18157E+02 
  55039.2450     0.17983E+02 
  55071.5071     0.17810E+02 
  55103.7693     0.17638E+02 
  55136.0314     0.17468E+02 
  55168.2936     0.17298E+02 
  55200.5558     0.17130E+02 
  55232.8179     0.16963E+02 
  55265.0801     0.16797E+02 
  55297.3422     0.16632E+02 
  55329.6044     0.16468E+02 
  55361.8666     0.16305E+02 
  55394.1287     0.16143E+02 
  55426.3909     0.15983E+02 
  55458.6530     0.15823E+02 
  55490.9152     0.15665E+02 
  55523.1774     0.15507E+02 
  55555.4395     0.15351E+02 
  55587.7017     0.15196E+02 
  55619.9638     0.15041E+02 
  55652.2260     0.14888E+02 
  55684.4882     0.14736E+02 
  55716.7503     0.14585E+02 
  55749.0125     0.14435E+02 
  55781.2746     0.14286E+02 
  55813.5368     0.14138E+02 
  55845.7990     0.13991E+02 
  55878.0611     0.13845E+02 
  55910.3233     0.13700E+02 
  55942.5854     0.13556E+02 
  55974.8476     0.13413E+02 
  56007.1098     0.13271E+02 
  56039.3719     0.13131E+02 
  56071.6341     0.12991E+02 
  56103.8962     0.12852E+02 
  56136.1584     0.12714E+02 
  56168.4206     0.12577E+02 
  56200.6827     0.12441E+02 
  56232.9449     0.12306E+02 
  56265.2070     0.12172E+02 
  56297.4692     0.12039E+02 
  56329.7314     0.11907E+02 
  56361.9935     0.11776E+02 
  56394.2557     0.11645E+02 
  56426.5178     0.11516E+02 
  56458.7800     0.11388E+02 
  56491.0422     0.11261E+02 
  56523.3043     0.11134E+02 
  56555.5665     0.11009E+02 
  56587.8286     0.10884E+02 
  56620.0908     0.10761E+02 
  56652.3530     0.10638E+02 
  56684.6151     0.10516E+02 
  56716.8773     0.10395E+02 
  56749.1394     0.10275E+02 
  56781.4016     0.10156E+02 
  56813.6638     0.10038E+02 
  56845.9259     0.99206E+01 
  56878.1881     0.98042E+01 
  56910.4502     0.96887E+01 
  56942.7124     0.95740E+01 
  56974.9746     0.94602E+01 
  57007.2367     0.93473E+01 
  57039.4989     0.92353E+01 
  57071.7610     0.91241E+01 
  57104.0232     0.90138E+01 
  57136.2854     0.89043E+01 
  57168.5475     0.87957E+01 
  57200.8097     0.86879E+01 
  57233.0718     0.85810E+01 
  57265.3340     0.84749E+01 
  57297.5962     0.83697E+01 
  57329.8583     0.82652E+01 
  57362.1205     0.81616E+01 
  57394.3826     0.80588E+01 
  57426.6448     0.79569E+01 
  57458.9070     0.78557E+01 
  57491.1691     0.77553E+01 
  57523.4313     0.76558E+01 
  57555.6934     0.75571E+01 
  57587.9556     0.74591E+01 
  57620.2178     0.73619E+01 
  57652.4799     0.72656E+01 
  57684.7421     0.71700E+01 
  57717.0042     0.70752E+01 
  57749.2664     0.69811E+01 
  57781.5286     0.68879E+01 
  57813.7907     0.67954E+01 
  57846.0529     0.67037E+01 
  57878.3150     0.66127E+01 
  57910.5772     0.65225E+01 
  57942.8394     0.64330E+01 
  57975.1015     0.63443E+01 
  58007.3637     0.62564E+01 
  58039.6258     0.61691E+01 
  58071.8880     0.60827E+01 
  58104.1502     0.59969E+01 
  58136.4123     0.59119E+01 
  58168.6745     0.58276E+01 
  58200.9366     0.57441E+01 
  58233.1988     0.56612E+01 
  58265.4610     0.55791E+01 
  58297.7231     0.54977E+01 
  58329.9853     0.54170E+01 
  58362.2474     0.53370E+01 
  58394.5096     0.52577E+01 
  58426.7718     0.51791E+01 
  58459.0339     0.51012E+01 
  58491.2961     0.50240E+01 
  58523.5582     0.49475E+01 
  58555.8204     0.48717E+01 
  58588.0826     0.47965E+01 
  58620.3447     0.47220E+01 
  58652.6069     0.46483E+01 
  58684.8690     0.45751E+01 
  58717.1312     0.45027E+01 
  58749.3934     0.44309E+01 
  58781.6555     0.43598E+01 
  58813.9177     0.42894E+01 
  58846.1798     0.42196E+01 
  58878.4420     0.41504E+01 
  58910.7042     0.40819E+01 
  58942.9663     0.40141E+01 
  58975.2285     0.39469E+01 
  59007.4906     0.38804E+01 
  59039.7528     0.38145E+01 
  59072.0150     0.37492E+01 
  59104.2771     0.36846E+01 
  59136.5393     0.36206E+01 
  59168.8014     0.35572E+01 
  59201.0636     0.34945E+01 
  59233.3258     0.34324E+01 
  59265.5879     0.33709E+01 
  59297.8501     0.33100E+01 
  59330.1122     0.32498E+01 
  59362.3744     0.31901E+01 
  59394.6366     0.31311E+01 
  59426.8987     0.30727E+01 
  59459.1609     0.30149E+01 
  59491.4230     0.29577E+01 
  59523.6852     0.29011E+01 
  59555.9474     0.28451E+01 
  59588.2095     0.27897E+01 
  59620.4717     0.27349E+01 
  59652.7338     0.26807E+01 
  59684.9960     0.26271E+01 
  59717.2582     0.25741E+01 
  59749.5203     0.25217E+01 
  59781.7825     0.24699E+01 
  59814.0446     0.24186E+01 
  59846.3068     0.23680E+01 
  59878.5690     0.23179E+01 
  59910.8311     0.22684E+01 
  59943.0933     0.22195E+01 
  59975.3554     0.21711E+01 
  60007.6176     0.21234E+01 
  60039.8798     0.20762E+01 
  60072.1419     0.20296E+01 
  60104.4041     0.19835E+01 
  60136.6662     0.19381E+01 
  60168.9284     0.18932E+01 
  60201.1906     0.18488E+01 
  60233.4527     0.18051E+01 
  60265.7149     0.17619E+01 
  60297.9770     0.17192E+01 
  60330.2392     0.16772E+01 
  60362.5014     0.16357E+01 
  60394.7635     0.15947E+01 
  60427.0257     0.15544E+01 
  60459.2878     0.15146E+01 
  60491.5500     0.14753E+01 
  60523.8122     0.14366E+01 
  60556.0743     0.13985E+01 
  60588.3365     0.13609E+01 
  60620.5986     0.13239E+01 
  60652.8608     0.12875E+01 
  60685.1230     0.12516E+01 
  60717.3851     0.12162E+01 
  60749.6473     0.11815E+01 
  60781.9094     0.11472E+01 
  60814.1716     0.11136E+01 
  60846.4338     0.10805E+01 
  60878.6959     0.10479E+01 
  60910.9581     0.10160E+01 
  60943.2202     0.98453E+00 
  60975.4824     0.95367E+00 
  61007.7446     0.92337E+00 
  61040.0067     0.89363E+00 
  61072.2689     0.86445E+00 
  61104.5310     0.83583E+00 
  61136.7932     0.80777E+00 
  61169.0554     0.78028E+00 
  61201.3175     0.75336E+00 
  61233.5797     0.72700E+00 
  61265.8418     0.70120E+00 
  61298.1040     0.67598E+00 
  61330.3662     0.65133E+00 
  61362.6283     0.62724E+00 
  61394.8905     0.60373E+00 
  61427.1526     0.58080E+00 
  61459.4148     0.55844E+00 
  61491.6770     0.53666E+00 
  61523.9391     0.51546E+00 
  61556.2013     0.49484E+00 
  61588.4634     0.47480E+00 
  61620.7256     0.45535E+00 
  61652.9878     0.43649E+00 
  61685.2499     0.41822E+00 
  61717.5121     0.40055E+00 
  61749.7742     0.38347E+00 
  61782.0364     0.36699E+00 
  61814.2986     0.35111E+00 
  61846.5607     0.33583E+00 
  61878.8229     0.32117E+00 
  61911.0850     0.30711E+00 
  61943.3472     0.29368E+00 
  61975.6094     0.28085E+00 
  62007.8715     0.26866E+00 
  62040.1337     0.25708E+00 
  62072.3958     0.24614E+00 
  62104.6580     0.23583E+00 
  62136.9202     0.22616E+00 
  62169.1823     0.21713E+00 
  62201.4445     0.20875E+00 
  62233.7066     0.20101E+00 
  62265.9688     0.19394E+00 
  62298.2310     0.18752E+00 
  62330.4931     0.18178E+00 
  62362.7553     0.17670E+00 
  62395.0174     0.17230E+00 
  62427.2796     0.16858E+00 
  62459.5418     0.16555E+00 
  62491.8039     0.16321E+00 
  62524.0661     0.16158E+00 
  62556.3282     0.16065E+00 
  62588.5904     0.16043E+00 
  62620.8526     0.16093E+00 
  62653.1147     0.16216E+00 
  62685.3769     0.16412E+00 
  62717.6390     0.16682E+00 
  62749.9012     0.17026E+00 
  62782.1634     0.17447E+00 
  62814.4255     0.17943E+00 
  62846.6877     0.18517E+00 
  62878.9498     0.19168E+00 
  62911.2120     0.19898E+00 
  62943.4742     0.20708E+00 
  62975.7363     0.21598E+00 
  63007.9985     0.22570E+00 
  63040.2606     0.23624E+00 
  63072.5228     0.24761E+00 
  63104.7850     0.25983E+00 
  63137.0471     0.27289E+00 
  63169.3093     0.28682E+00 
  63201.5714     0.30162E+00 
  63233.8336     0.31731E+00 
  63266.0958     0.33389E+00 
  63298.3579     0.35138E+00 
  63330.6201     0.36978E+00 
  63362.8822     0.38912E+00 
  63395.1444     0.40939E+00 
  63427.4066     0.43062E+00 
  63459.6687     0.45282E+00 
  63491.9309     0.47600E+00 
  63524.1930     0.50017E+00 
  63556.4552     0.52534E+00 
  63588.7174     0.55154E+00 
  63620.9795     0.57877E+00 
  63653.2417     0.60705E+00 
  63685.5038     0.63640E+00 
  63717.7660     0.66682E+00 
  63750.0282     0.69834E+00 
  63782.2903     0.73098E+00 
  63814.5525     0.76474E+00 
  63846.8146     0.79964E+00 
  63879.0768     0.83571E+00 
  63911.3390     0.87295E+00 
  63943.6011     0.91139E+00 
  63975.8633     0.95104E+00 
  64008.1254     0.99193E+00 
  64040.3876     0.10341E+01 
  64072.6498     0.10775E+01 
  64104.9119     0.11222E+01 
  64137.1741     0.11682E+01 
  64169.4362     0.12155E+01 
  64201.6984     0.12643E+01 
  64233.9606     0.13143E+01 
  64266.2227     0.13658E+01 
  64298.4849     0.14187E+01 
  64330.7470     0.14730E+01 
  64363.0092     0.15288E+01 
  64395.2714     0.15861E+01 
  64427.5335     0.16449E+01 
  64459.7957     0.17053E+01 
  64492.0578     0.17672E+01 
  64524.3200     0.18307E+01 
  64556.5822     0.18958E+01 
  64588.8443     0.19626E+01 
  64621.1065     0.20310E+01 
  64653.3686     0.21011E+01 
  64685.6308     0.21730E+01 
  64717.8930     0.22466E+01 
  64750.1551     0.23221E+01 
  64782.4173     0.23993E+01 
  64814.6794     0.24784E+01 
  64846.9416     0.25593E+01 
  64879.2038     0.26422E+01 
  64911.4659     0.27270E+01 
  64943.7281     0.28139E+01 
  64975.9902     0.29027E+01 
  65008.2524     0.29936E+01 
  65040.5146     0.30865E+01 
  65072.7767     0.31816E+01 
  65105.0389     0.32788E+01 
  65137.3010     0.33783E+01 
  65169.5632     0.34800E+01 
  65201.8254     0.35839E+01 
  65234.0875     0.36902E+01 
  65266.3497     0.37988E+01 
  65298.6118     0.39098E+01 
  65330.8740     0.40233E+01 
  65363.1362     0.41392E+01 
  65395.3983     0.42577E+01 
  65427.6605     0.43788E+01 
  65459.9226     0.45024E+01 
  65492.1848     0.46288E+01 
  65524.4470     0.47578E+01 
  65556.7091     0.48896E+01 
  65588.9713     0.50242E+01 
  65621.2334     0.51617E+01 
  65653.4956     0.53020E+01 
  65685.7578     0.54454E+01 
  65718.0199     0.55917E+01 
  65750.2821     0.57411E+01 
  65782.5442     0.58937E+01 
  65814.8064     0.60494E+01 
  65847.0686     0.62083E+01 
  65879.3307     0.63706E+01 
  65911.5929     0.65361E+01 
  65943.8550     0.67051E+01 
  65976.1172     0.68776E+01 
  66008.3794     0.70536E+01 
  66040.6415     0.72332E+01 
  66072.9037     0.74164E+01 
  66105.1658     0.76034E+01 
  66137.4280     0.77942E+01 
  66169.6902     0.79888E+01 
  66201.9523     0.81873E+01 
  66234.2145     0.83898E+01 
  66266.4766     0.85964E+01 
  66298.7388     0.88072E+01 
  66331.0010     0.90221E+01 
  66363.2631     0.92413E+01 
  66395.5253     0.94649E+01 
  66427.7874     0.96929E+01 
  66460.0496     0.99254E+01 
  66492.3118     0.10162E+02 
  66524.5739     0.10404E+02 
  66556.8361     0.10651E+02 
  66589.0982     0.10902E+02 
  66621.3604     0.11158E+02 
  66653.6226     0.11420E+02 
  66685.8847     0.11686E+02 
  66718.1469     0.11958E+02 
  66750.4090     0.12234E+02 
  66782.6712     0.12516E+02 
  66814.9334     0.12804E+02 
  66847.1955     0.13097E+02 
  66879.4577     0.13396E+02 
  66911.7198     0.13700E+02 
  66943.9820     0.14011E+02 
  66976.2442     0.14327E+02 
  67008.5063     0.14649E+02 
  67040.7685     0.14978E+02 
  67073.0306     0.15312E+02 
  67105.2928     0.15653E+02 
  67137.5550     0.16001E+02 
  67169.8171     0.16355E+02 
  67202.0793     0.16715E+02 
  67234.3414     0.17083E+02 
  67266.6036     0.17457E+02 
  67298.8658     0.17839E+02 
  67331.1279     0.18227E+02 
  67363.3901     0.18623E+02 
  67395.6522     0.19026E+02 
  67427.9144     0.19436E+02 
  67460.1766     0.19854E+02 
  67492.4387     0.20280E+02 
  67524.7009     0.20714E+02 
  67556.9630     0.21155E+02 
  67589.2252     0.21605E+02 
  67621.4874     0.22063E+02 
  67653.7495     0.22529E+02 
  67686.0117     0.23004E+02 
  67718.2738     0.23487E+02 
  67750.5360     0.23979E+02 
  67782.7982     0.24480E+02 
  67815.0603     0.24990E+02 
  67847.3225     0.25510E+02 
  67879.5846     0.26038E+02 
  67911.8468     0.26576E+02 
  67944.1090     0.27124E+02 
  67976.3711     0.27681E+02 
  68008.6333     0.28249E+02 
  68040.8954     0.28826E+02 
  68073.1576     0.29414E+02 
  68105.4198     0.30012E+02 
  68137.6819     0.30620E+02 
  68169.9441     0.31239E+02 
  68202.2062     0.31870E+02 
  68234.4684     0.32511E+02 
  68266.7306     0.33163E+02 
  68298.9927     0.33827E+02 
  68331.2549     0.34502E+02 
  68363.5170     0.35188E+02 
  68395.7792     0.35887E+02 
  68428.0414     0.36598E+02 
  68460.3035     0.37321E+02 
  68492.5657     0.38056E+02 
  68524.8278     0.38804E+02 
  68557.0900     0.39564E+02 
  68589.3522     0.40338E+02 
  68621.6143     0.41124E+02 
  68653.8765     0.41924E+02 
  68686.1386     0.42737E+02 
  68718.4008     0.43564E+02 
  68750.6630     0.44405E+02 
  68782.9251     0.45260E+02 
  68815.1873     0.46129E+02 
  68847.4494     0.47012E+02 
  68879.7116     0.47910E+02 
  68911.9738     0.48823E+02 
  68944.2359     0.49751E+02 
  68976.4981     0.50694E+02 
  69008.7602     0.51653E+02 
  69041.0224     0.52627E+02 
  69073.2846     0.53617E+02 
  69105.5467     0.54623E+02 
  69137.8089     0.55645E+02 
  69170.0710     0.56684E+02 
  69202.3332     0.57740E+02 
  69234.5954     0.58812E+02 
  69266.8575     0.59901E+02 
  69299.1197     0.61008E+02 
  69331.3818     0.62132E+02 
  69363.6440     0.63274E+02 
  69395.9062     0.64434E+02 
  69428.1683     0.65612E+02 
  69460.4305     0.66809E+02 
  69492.6926     0.68024E+02 
  69524.9548     0.69258E+02 
  69557.2170     0.70511E+02 
  69589.4791     0.71784E+02 
  69621.7413     0.73076E+02 
  69654.0034     0.74388E+02 
  69686.2656     0.75720E+02 
  69718.5278     0.77072E+02 
  69750.7899     0.78444E+02 
  69783.0521     0.79838E+02 
  69815.3142     0.81252E+02 
  69847.5764     0.82688E+02 
  69879.8386     0.84144E+02 
  69912.1007     0.85623E+02 
  69944.3629     0.87124E+02 
  69976.6250     0.88646E+02 
  70008.8872     0.90191E+02 
  70041.1494     0.91759E+02 
  70073.4115     0.93350E+02 
  70105.6737     0.94963E+02 
  70137.9358     0.96600E+02 
  70170.1980     0.98261E+02 
  70202.4602     0.99946E+02 
  70234.7223     0.10165E+03 
  70266.9845     0.10339E+03 
  70299.2466     0.10514E+03 
  70331.5088     0.10693E+03 
  70363.7710     0.10874E+03 
  70396.0331     0.11057E+03 
  70428.2953     0.11243E+03 
  70460.5574     0.11431E+03 
  70492.8196     0.11622E+03 
  70525.0818     0.11816E+03 
  70557.3439     0.12012E+03 
  70589.6061     0.12211E+03 
  70621.8682     0.12413E+03 
  70654.1304     0.12617E+03 
  70686.3926     0.12825E+03 
  70718.6547     0.13035E+03 
  70750.9169     0.13248E+03 
  70783.1790     0.13463E+03 
  70815.4412     0.13682E+03 
  70847.7034     0.13903E+03 
  70879.9655     0.14128E+03 
  70912.2277     0.14355E+03 
  70944.4898     0.14585E+03 
  70976.7520     0.14818E+03 
  71009.0142     0.15054E+03 
  71041.2763     0.15294E+03 
  71073.5385     0.15536E+03 
  71105.8006     0.15781E+03 
  71138.0628     0.16030E+03 
  71170.3250     0.16282E+03 
  71202.5871     0.16536E+03 
  71234.8493     0.16794E+03 
  71267.1114     0.17055E+03 
  71299.3736     0.17320E+03 
  71331.6358     0.17587E+03 
  71363.8979     0.17858E+03 
  71396.1601     0.18133E+03 
  71428.4222     0.18410E+03 
  71460.6844     0.18691E+03 
  71492.9466     0.18975E+03 
  71525.2087     0.19263E+03 
  71557.4709     0.19554E+03 
  71589.7330     0.19848E+03 
  71621.9952     0.20146E+03 
  71654.2574     0.20448E+03 
  71686.5195     0.20753E+03 
  71718.7817     0.21061E+03 
  71751.0438     0.21373E+03 
  71783.3060     0.21689E+03 
  71815.5682     0.22008E+03 
  71847.8303     0.22330E+03 
  71880.0925     0.22657E+03 
  71912.3546     0.22987E+03 
  71944.6168     0.23320E+03 
  71976.8790     0.23658E+03 
  72009.1411     0.23999E+03 
  72041.4033     0.24344E+03 
  72073.6654     0.24692E+03 
  72105.9276     0.25044E+03 
  72138.1898     0.25400E+03 
  72170.4519     0.25760E+03 
  72202.7141     0.26124E+03 
  72234.9762     0.26491E+03 
  72267.2384     0.26863E+03 
  72299.5006     0.27238E+03 
  72331.7627     0.27617E+03 
  72364.0249     0.28000E+03 
  72396.2870     0.28387E+03 
  72428.5492     0.28778E+03 
  72460.8114     0.29173E+03 
  72493.0735     0.29571E+03 
  72525.3357     0.29974E+03 
  72557.5978     0.30381E+03 
  72589.8600     0.30791E+03 
