  32262.1600     0.37669E+01 
  32294.4222     0.38095E+01 
  32326.6843     0.38524E+01 
  32358.9465     0.38957E+01 
  32391.2086     0.39392E+01 
  32423.4708     0.39831E+01 
  32455.7330     0.40274E+01 
  32487.9951     0.40719E+01 
  32520.2573     0.41168E+01 
  32552.5194     0.41621E+01 
  32584.7816     0.42076E+01 
  32617.0438     0.42535E+01 
  32649.3059     0.42997E+01 
  32681.5681     0.43462E+01 
  32713.8302     0.43931E+01 
  32746.0924     0.44403E+01 
  32778.3546     0.44878E+01 
  32810.6167     0.45356E+01 
  32842.8789     0.45838E+01 
  32875.1410     0.46323E+01 
  32907.4032     0.46811E+01 
  32939.6654     0.47303E+01 
  32971.9275     0.47797E+01 
  33004.1897     0.48295E+01 
  33036.4518     0.48797E+01 
  33068.7140     0.49301E+01 
  33100.9762     0.49809E+01 
  33133.2383     0.50320E+01 
  33165.5005     0.50834E+01 
  33197.7626     0.51352E+01 
  33230.0248     0.51873E+01 
  33262.2870     0.52397E+01 
  33294.5491     0.52924E+01 
  33326.8113     0.53454E+01 
  33359.0734     0.53988E+01 
  33391.3356     0.54525E+01 
  33423.5978     0.55065E+01 
  33455.8599     0.55608E+01 
  33488.1221     0.56154E+01 
  33520.3842     0.56704E+01 
  33552.6464     0.57257E+01 
  33584.9086     0.57812E+01 
  33617.1707     0.58371E+01 
  33649.4329     0.58933E+01 
  33681.6950     0.59499E+01 
  33713.9572     0.60067E+01 
  33746.2194     0.60638E+01 
  33778.4815     0.61213E+01 
  33810.7437     0.61790E+01 
  33843.0058     0.62371E+01 
  33875.2680     0.62954E+01 
  33907.5302     0.63541E+01 
  33939.7923     0.64131E+01 
  33972.0545     0.64723E+01 
  34004.3166     0.65319E+01 
  34036.5788     0.65917E+01 
  34068.8410     0.66519E+01 
  34101.1031     0.67123E+01 
  34133.3653     0.67731E+01 
  34165.6274     0.68341E+01 
  34197.8896     0.68954E+01 
  34230.1518     0.69570E+01 
  34262.4139     0.70189E+01 
  34294.6761     0.70810E+01 
  34326.9382     0.71435E+01 
  34359.2004     0.72062E+01 
  34391.4626     0.72692E+01 
  34423.7247     0.73325E+01 
  34455.9869     0.73960E+01 
  34488.2490     0.74598E+01 
  34520.5112     0.75239E+01 
  34552.7734     0.75883E+01 
  34585.0355     0.76529E+01 
  34617.2977     0.77177E+01 
  34649.5598     0.77829E+01 
  34681.8220     0.78483E+01 
  34714.0842     0.79139E+01 
  34746.3463     0.79798E+01 
  34778.6085     0.80459E+01 
  34810.8706     0.81123E+01 
  34843.1328     0.81790E+01 
  34875.3950     0.82458E+01 
  34907.6571     0.83130E+01 
  34939.9193     0.83803E+01 
  34972.1814     0.84479E+01 
  35004.4436     0.85157E+01 
  35036.7058     0.85838E+01 
  35068.9679     0.86520E+01 
  35101.2301     0.87205E+01 
  35133.4922     0.87892E+01 
  35165.7544     0.88581E+01 
  35198.0166     0.89273E+01 
  35230.2787     0.89966E+01 
  35262.5409     0.90662E+01 
  35294.8030     0.91359E+01 
  35327.0652     0.92059E+01 
  35359.3274     0.92761E+01 
  35391.5895     0.93464E+01 
  35423.8517     0.94170E+01 
  35456.1138     0.94877E+01 
  35488.3760     0.95586E+01 
  35520.6382     0.96297E+01 
  35552.9003     0.97010E+01 
  35585.1625     0.97724E+01 
  35617.4246     0.98441E+01 
  35649.6868     0.99159E+01 
  35681.9490     0.99878E+01 
  35714.2111     0.10060E+02 
  35746.4733     0.10132E+02 
  35778.7354     0.10205E+02 
  35810.9976     0.10277E+02 
  35843.2598     0.10350E+02 
  35875.5219     0.10423E+02 
  35907.7841     0.10496E+02 
  35940.0462     0.10569E+02 
  35972.3084     0.10642E+02 
  36004.5706     0.10716E+02 
  36036.8327     0.10789E+02 
  36069.0949     0.10863E+02 
  36101.3570     0.10936E+02 
  36133.6192     0.11010E+02 
  36165.8814     0.11084E+02 
  36198.1435     0.11158E+02 
  36230.4057     0.11233E+02 
  36262.6678     0.11307E+02 
  36294.9300     0.11381E+02 
  36327.1922     0.11456E+02 
  36359.4543     0.11530E+02 
  36391.7165     0.11605E+02 
  36423.9786     0.11679E+02 
  36456.2408     0.11754E+02 
  36488.5030     0.11829E+02 
  36520.7651     0.11904E+02 
  36553.0273     0.11979E+02 
  36585.2894     0.12054E+02 
  36617.5516     0.12129E+02 
  36649.8138     0.12204E+02 
  36682.0759     0.12279E+02 
  36714.3381     0.12354E+02 
  36746.6002     0.12429E+02 
  36778.8624     0.12504E+02 
  36811.1246     0.12580E+02 
  36843.3867     0.12655E+02 
  36875.6489     0.12730E+02 
  36907.9110     0.12805E+02 
  36940.1732     0.12881E+02 
  36972.4354     0.12956E+02 
  37004.6975     0.13031E+02 
  37036.9597     0.13106E+02 
  37069.2218     0.13182E+02 
  37101.4840     0.13257E+02 
  37133.7462     0.13332E+02 
  37166.0083     0.13407E+02 
  37198.2705     0.13482E+02 
  37230.5326     0.13557E+02 
  37262.7948     0.13632E+02 
  37295.0570     0.13707E+02 
  37327.3191     0.13782E+02 
  37359.5813     0.13857E+02 
  37391.8434     0.13932E+02 
  37424.1056     0.14007E+02 
  37456.3678     0.14082E+02 
  37488.6299     0.14156E+02 
  37520.8921     0.14231E+02 
  37553.1542     0.14305E+02 
  37585.4164     0.14379E+02 
  37617.6786     0.14454E+02 
  37649.9407     0.14528E+02 
  37682.2029     0.14602E+02 
  37714.4650     0.14676E+02 
  37746.7272     0.14750E+02 
  37778.9894     0.14823E+02 
  37811.2515     0.14897E+02 
  37843.5137     0.14970E+02 
  37875.7758     0.15044E+02 
  37908.0380     0.15117E+02 
  37940.3002     0.15190E+02 
  37972.5623     0.15263E+02 
  38004.8245     0.15335E+02 
  38037.0866     0.15408E+02 
  38069.3488     0.15480E+02 
  38101.6110     0.15553E+02 
  38133.8731     0.15625E+02 
  38166.1353     0.15697E+02 
  38198.3974     0.15768E+02 
  38230.6596     0.15840E+02 
  38262.9218     0.15911E+02 
  38295.1839     0.15982E+02 
  38327.4461     0.16053E+02 
  38359.7082     0.16124E+02 
  38391.9704     0.16194E+02 
  38424.2326     0.16265E+02 
  38456.4947     0.16335E+02 
  38488.7569     0.16404E+02 
  38521.0190     0.16474E+02 
  38553.2812     0.16543E+02 
  38585.5434     0.16613E+02 
  38617.8055     0.16681E+02 
  38650.0677     0.16750E+02 
  38682.3298     0.16818E+02 
  38714.5920     0.16887E+02 
  38746.8542     0.16954E+02 
  38779.1163     0.17022E+02 
  38811.3785     0.17089E+02 
  38843.6406     0.17156E+02 
  38875.9028     0.17223E+02 
  38908.1650     0.17289E+02 
  38940.4271     0.17356E+02 
  38972.6893     0.17421E+02 
  39004.9514     0.17487E+02 
  39037.2136     0.17552E+02 
  39069.4758     0.17617E+02 
  39101.7379     0.17682E+02 
  39134.0001     0.17746E+02 
  39166.2622     0.17810E+02 
  39198.5244     0.17874E+02 
  39230.7866     0.17937E+02 
  39263.0487     0.18000E+02 
  39295.3109     0.18063E+02 
  39327.5730     0.18125E+02 
  39359.8352     0.18187E+02 
  39392.0974     0.18249E+02 
  39424.3595     0.18310E+02 
  39456.6217     0.18371E+02 
  39488.8838     0.18431E+02 
  39521.1460     0.18492E+02 
  39553.4082     0.18551E+02 
  39585.6703     0.18611E+02 
  39617.9325     0.18670E+02 
  39650.1946     0.18728E+02 
  39682.4568     0.18787E+02 
  39714.7190     0.18844E+02 
  39746.9811     0.18902E+02 
  39779.2433     0.18959E+02 
  39811.5054     0.19015E+02 
  39843.7676     0.19072E+02 
  39876.0298     0.19127E+02 
  39908.2919     0.19183E+02 
  39940.5541     0.19238E+02 
  39972.8162     0.19292E+02 
  40005.0784     0.19346E+02 
  40037.3406     0.19400E+02 
  40069.6027     0.19453E+02 
  40101.8649     0.19506E+02 
  40134.1270     0.19559E+02 
  40166.3892     0.19610E+02 
  40198.6514     0.19662E+02 
  40230.9135     0.19713E+02 
  40263.1757     0.19763E+02 
  40295.4378     0.19813E+02 
  40327.7000     0.19863E+02 
  40359.9622     0.19912E+02 
  40392.2243     0.19961E+02 
  40424.4865     0.20009E+02 
  40456.7486     0.20057E+02 
  40489.0108     0.20104E+02 
  40521.2730     0.20151E+02 
  40553.5351     0.20197E+02 
  40585.7973     0.20243E+02 
  40618.0594     0.20288E+02 
  40650.3216     0.20333E+02 
  40682.5838     0.20377E+02 
  40714.8459     0.20421E+02 
  40747.1081     0.20464E+02 
  40779.3702     0.20507E+02 
  40811.6324     0.20549E+02 
  40843.8946     0.20591E+02 
  40876.1567     0.20632E+02 
  40908.4189     0.20673E+02 
  40940.6810     0.20713E+02 
  40972.9432     0.20753E+02 
  41005.2054     0.20792E+02 
  41037.4675     0.20831E+02 
  41069.7297     0.20869E+02 
  41101.9918     0.20906E+02 
  41134.2540     0.20943E+02 
  41166.5162     0.20980E+02 
  41198.7783     0.21016E+02 
  41231.0405     0.21051E+02 
  41263.3026     0.21086E+02 
  41295.5648     0.21120E+02 
  41327.8270     0.21154E+02 
  41360.0891     0.21187E+02 
  41392.3513     0.21220E+02 
  41424.6134     0.21252E+02 
  41456.8756     0.21284E+02 
  41489.1378     0.21315E+02 
  41521.3999     0.21345E+02 
  41553.6621     0.21375E+02 
  41585.9242     0.21404E+02 
  41618.1864     0.21433E+02 
  41650.4486     0.21461E+02 
  41682.7107     0.21489E+02 
  41714.9729     0.21516E+02 
  41747.2350     0.21543E+02 
  41779.4972     0.21569E+02 
  41811.7594     0.21594E+02 
  41844.0215     0.21619E+02 
  41876.2837     0.21643E+02 
  41908.5458     0.21667E+02 
  41940.8080     0.21690E+02 
  41973.0702     0.21712E+02 
  42005.3323     0.21734E+02 
  42037.5945     0.21755E+02 
  42069.8566     0.21776E+02 
  42102.1188     0.21796E+02 
  42134.3810     0.21816E+02 
  42166.6431     0.21835E+02 
  42198.9053     0.21853E+02 
  42231.1674     0.21871E+02 
  42263.4296     0.21888E+02 
  42295.6918     0.21905E+02 
  42327.9539     0.21921E+02 
  42360.2161     0.21936E+02 
  42392.4782     0.21951E+02 
  42424.7404     0.21966E+02 
  42457.0026     0.21979E+02 
  42489.2647     0.21992E+02 
  42521.5269     0.22005E+02 
  42553.7890     0.22017E+02 
  42586.0512     0.22028E+02 
  42618.3134     0.22039E+02 
  42650.5755     0.22049E+02 
  42682.8377     0.22059E+02 
  42715.0998     0.22068E+02 
  42747.3620     0.22076E+02 
  42779.6242     0.22084E+02 
  42811.8863     0.22091E+02 
  42844.1485     0.22098E+02 
  42876.4106     0.22104E+02 
  42908.6728     0.22109E+02 
  42940.9350     0.22114E+02 
  42973.1971     0.22119E+02 
  43005.4593     0.22122E+02 
  43037.7214     0.22126E+02 
  43069.9836     0.22128E+02 
  43102.2458     0.22130E+02 
  43134.5079     0.22131E+02 
  43166.7701     0.22132E+02 
  43199.0322     0.22132E+02 
  43231.2944     0.22132E+02 
  43263.5566     0.22131E+02 
  43295.8187     0.22130E+02 
  43328.0809     0.22127E+02 
  43360.3430     0.22125E+02 
  43392.6052     0.22121E+02 
  43424.8674     0.22118E+02 
  43457.1295     0.22113E+02 
  43489.3917     0.22108E+02 
  43521.6538     0.22103E+02 
  43553.9160     0.22097E+02 
  43586.1782     0.22090E+02 
  43618.4403     0.22083E+02 
  43650.7025     0.22075E+02 
  43682.9646     0.22066E+02 
  43715.2268     0.22057E+02 
  43747.4890     0.22048E+02 
  43779.7511     0.22038E+02 
  43812.0133     0.22027E+02 
  43844.2754     0.22016E+02 
  43876.5376     0.22004E+02 
  43908.7998     0.21992E+02 
  43941.0619     0.21979E+02 
  43973.3241     0.21965E+02 
  44005.5862     0.21951E+02 
  44037.8484     0.21937E+02 
  44070.1106     0.21922E+02 
  44102.3727     0.21906E+02 
  44134.6349     0.21890E+02 
  44166.8970     0.21873E+02 
  44199.1592     0.21856E+02 
  44231.4214     0.21838E+02 
  44263.6835     0.21820E+02 
  44295.9457     0.21801E+02 
  44328.2078     0.21782E+02 
  44360.4700     0.21762E+02 
  44392.7322     0.21742E+02 
  44424.9943     0.21721E+02 
  44457.2565     0.21699E+02 
  44489.5186     0.21677E+02 
  44521.7808     0.21655E+02 
  44554.0430     0.21632E+02 
  44586.3051     0.21608E+02 
  44618.5673     0.21584E+02 
  44650.8294     0.21559E+02 
  44683.0916     0.21534E+02 
  44715.3538     0.21509E+02 
  44747.6159     0.21483E+02 
  44779.8781     0.21456E+02 
  44812.1402     0.21429E+02 
  44844.4024     0.21402E+02 
  44876.6646     0.21373E+02 
  44908.9267     0.21345E+02 
  44941.1889     0.21316E+02 
  44973.4510     0.21286E+02 
  45005.7132     0.21257E+02 
  45037.9754     0.21226E+02 
  45070.2375     0.21195E+02 
  45102.4997     0.21164E+02 
  45134.7618     0.21132E+02 
  45167.0240     0.21100E+02 
  45199.2862     0.21067E+02 
  45231.5483     0.21034E+02 
  45263.8105     0.21000E+02 
  45296.0726     0.20966E+02 
  45328.3348     0.20931E+02 
  45360.5970     0.20896E+02 
  45392.8591     0.20861E+02 
  45425.1213     0.20825E+02 
  45457.3834     0.20788E+02 
  45489.6456     0.20752E+02 
  45521.9078     0.20714E+02 
  45554.1699     0.20677E+02 
  45586.4321     0.20639E+02 
  45618.6942     0.20600E+02 
  45650.9564     0.20561E+02 
  45683.2186     0.20522E+02 
  45715.4807     0.20482E+02 
  45747.7429     0.20442E+02 
  45780.0050     0.20401E+02 
  45812.2672     0.20360E+02 
  45844.5294     0.20319E+02 
  45876.7915     0.20277E+02 
  45909.0537     0.20235E+02 
  45941.3158     0.20193E+02 
  45973.5780     0.20150E+02 
  46005.8402     0.20107E+02 
  46038.1023     0.20063E+02 
  46070.3645     0.20019E+02 
  46102.6266     0.19974E+02 
  46134.8888     0.19930E+02 
  46167.1510     0.19884E+02 
  46199.4131     0.19839E+02 
  46231.6753     0.19793E+02 
  46263.9374     0.19747E+02 
  46296.1996     0.19700E+02 
  46328.4618     0.19653E+02 
  46360.7239     0.19606E+02 
  46392.9861     0.19559E+02 
  46425.2482     0.19511E+02 
  46457.5104     0.19462E+02 
  46489.7726     0.19414E+02 
  46522.0347     0.19365E+02 
  46554.2969     0.19316E+02 
  46586.5590     0.19266E+02 
  46618.8212     0.19216E+02 
  46651.0834     0.19166E+02 
  46683.3455     0.19115E+02 
  46715.6077     0.19065E+02 
  46747.8698     0.19013E+02 
  46780.1320     0.18962E+02 
  46812.3942     0.18910E+02 
  46844.6563     0.18858E+02 
  46876.9185     0.18806E+02 
  46909.1806     0.18754E+02 
  46941.4428     0.18701E+02 
  46973.7050     0.18648E+02 
  47005.9671     0.18594E+02 
  47038.2293     0.18541E+02 
  47070.4914     0.18487E+02 
  47102.7536     0.18433E+02 
  47135.0158     0.18378E+02 
  47167.2779     0.18323E+02 
  47199.5401     0.18269E+02 
  47231.8022     0.18213E+02 
  47264.0644     0.18158E+02 
  47296.3266     0.18102E+02 
  47328.5887     0.18046E+02 
  47360.8509     0.17990E+02 
  47393.1130     0.17934E+02 
  47425.3752     0.17877E+02 
  47457.6374     0.17821E+02 
  47489.8995     0.17764E+02 
  47522.1617     0.17706E+02 
  47554.4238     0.17649E+02 
  47586.6860     0.17591E+02 
  47618.9482     0.17533E+02 
  47651.2103     0.17475E+02 
  47683.4725     0.17417E+02 
  47715.7346     0.17359E+02 
  47747.9968     0.17300E+02 
  47780.2590     0.17241E+02 
  47812.5211     0.17182E+02 
  47844.7833     0.17123E+02 
  47877.0454     0.17064E+02 
  47909.3076     0.17004E+02 
  47941.5698     0.16945E+02 
  47973.8319     0.16885E+02 
  48006.0941     0.16825E+02 
  48038.3562     0.16765E+02 
  48070.6184     0.16704E+02 
  48102.8806     0.16644E+02 
  48135.1427     0.16583E+02 
  48167.4049     0.16522E+02 
  48199.6670     0.16462E+02 
  48231.9292     0.16401E+02 
  48264.1914     0.16339E+02 
  48296.4535     0.16278E+02 
  48328.7157     0.16217E+02 
  48360.9778     0.16155E+02 
  48393.2400     0.16094E+02 
  48425.5022     0.16032E+02 
  48457.7643     0.15970E+02 
  48490.0265     0.15908E+02 
  48522.2886     0.15846E+02 
  48554.5508     0.15784E+02 
  48586.8130     0.15721E+02 
  48619.0751     0.15659E+02 
  48651.3373     0.15597E+02 
  48683.5994     0.15534E+02 
  48715.8616     0.15471E+02 
  48748.1238     0.15409E+02 
  48780.3859     0.15346E+02 
  48812.6481     0.15283E+02 
  48844.9102     0.15220E+02 
  48877.1724     0.15157E+02 
  48909.4346     0.15094E+02 
  48941.6967     0.15031E+02 
  48973.9589     0.14967E+02 
  49006.2210     0.14904E+02 
  49038.4832     0.14841E+02 
  49070.7454     0.14777E+02 
  49103.0075     0.14714E+02 
  49135.2697     0.14651E+02 
  49167.5318     0.14587E+02 
  49199.7940     0.14524E+02 
  49232.0562     0.14460E+02 
  49264.3183     0.14396E+02 
  49296.5805     0.14333E+02 
  49328.8426     0.14269E+02 
  49361.1048     0.14205E+02 
  49393.3670     0.14142E+02 
  49425.6291     0.14078E+02 
  49457.8913     0.14014E+02 
  49490.1534     0.13950E+02 
  49522.4156     0.13887E+02 
  49554.6778     0.13823E+02 
  49586.9399     0.13759E+02 
  49619.2021     0.13695E+02 
  49651.4642     0.13632E+02 
  49683.7264     0.13568E+02 
  49715.9886     0.13504E+02 
  49748.2507     0.13440E+02 
  49780.5129     0.13377E+02 
  49812.7750     0.13313E+02 
  49845.0372     0.13249E+02 
  49877.2994     0.13186E+02 
  49909.5615     0.13122E+02 
  49941.8237     0.13058E+02 
  49974.0858     0.12995E+02 
  50006.3480     0.12931E+02 
  50038.6102     0.12868E+02 
  50070.8723     0.12804E+02 
  50103.1345     0.12741E+02 
  50135.3966     0.12677E+02 
  50167.6588     0.12614E+02 
  50199.9210     0.12551E+02 
  50232.1831     0.12487E+02 
  50264.4453     0.12424E+02 
  50296.7074     0.12361E+02 
  50328.9696     0.12298E+02 
  50361.2318     0.12235E+02 
  50393.4939     0.12172E+02 
  50425.7561     0.12109E+02 
  50458.0182     0.12046E+02 
  50490.2804     0.11984E+02 
  50522.5426     0.11921E+02 
  50554.8047     0.11858E+02 
  50587.0669     0.11796E+02 
  50619.3290     0.11733E+02 
  50651.5912     0.11671E+02 
  50683.8534     0.11608E+02 
  50716.1155     0.11546E+02 
  50748.3777     0.11484E+02 
  50780.6398     0.11422E+02 
  50812.9020     0.11360E+02 
  50845.1642     0.11298E+02 
  50877.4263     0.11236E+02 
  50909.6885     0.11175E+02 
  50941.9506     0.11113E+02 
  50974.2128     0.11052E+02 
  51006.4750     0.10990E+02 
  51038.7371     0.10929E+02 
  51070.9993     0.10868E+02 
  51103.2614     0.10807E+02 
  51135.5236     0.10746E+02 
  51167.7858     0.10685E+02 
  51200.0479     0.10624E+02 
  51232.3101     0.10564E+02 
  51264.5722     0.10503E+02 
  51296.8344     0.10443E+02 
  51329.0966     0.10383E+02 
  51361.3587     0.10322E+02 
  51393.6209     0.10262E+02 
  51425.8830     0.10203E+02 
  51458.1452     0.10143E+02 
  51490.4074     0.10083E+02 
  51522.6695     0.10024E+02 
  51554.9317     0.99644E+01 
  51587.1938     0.99051E+01 
  51619.4560     0.98460E+01 
  51651.7182     0.97871E+01 
  51683.9803     0.97283E+01 
  51716.2425     0.96696E+01 
  51748.5046     0.96111E+01 
  51780.7668     0.95527E+01 
  51813.0290     0.94944E+01 
  51845.2911     0.94363E+01 
  51877.5533     0.93784E+01 
  51909.8154     0.93206E+01 
  51942.0776     0.92629E+01 
  51974.3398     0.92054E+01 
  52006.6019     0.91480E+01 
  52038.8641     0.90909E+01 
  52071.1262     0.90338E+01 
  52103.3884     0.89769E+01 
  52135.6506     0.89202E+01 
  52167.9127     0.88636E+01 
  52200.1749     0.88072E+01 
  52232.4370     0.87510E+01 
  52264.6992     0.86949E+01 
  52296.9614     0.86389E+01 
  52329.2235     0.85832E+01 
  52361.4857     0.85276E+01 
  52393.7478     0.84722E+01 
  52426.0100     0.84169E+01 
  52458.2722     0.83618E+01 
  52490.5343     0.83069E+01 
  52522.7965     0.82521E+01 
  52555.0586     0.81976E+01 
  52587.3208     0.81432E+01 
  52619.5830     0.80889E+01 
  52651.8451     0.80349E+01 
  52684.1073     0.79810E+01 
  52716.3694     0.79273E+01 
  52748.6316     0.78737E+01 
  52780.8938     0.78204E+01 
  52813.1559     0.77672E+01 
  52845.4181     0.77142E+01 
  52877.6802     0.76614E+01 
  52909.9424     0.76088E+01 
  52942.2046     0.75563E+01 
  52974.4667     0.75041E+01 
  53006.7289     0.74520E+01 
  53038.9910     0.74001E+01 
  53071.2532     0.73484E+01 
  53103.5154     0.72969E+01 
  53135.7775     0.72455E+01 
  53168.0397     0.71944E+01 
  53200.3018     0.71434E+01 
  53232.5640     0.70926E+01 
  53264.8262     0.70420E+01 
  53297.0883     0.69916E+01 
  53329.3505     0.69414E+01 
  53361.6126     0.68914E+01 
  53393.8748     0.68416E+01 
  53426.1370     0.67919E+01 
  53458.3991     0.67425E+01 
  53490.6613     0.66932E+01 
  53522.9234     0.66442E+01 
  53555.1856     0.65953E+01 
  53587.4478     0.65466E+01 
  53619.7099     0.64982E+01 
  53651.9721     0.64499E+01 
  53684.2342     0.64018E+01 
  53716.4964     0.63539E+01 
  53748.7586     0.63062E+01 
  53781.0207     0.62587E+01 
  53813.2829     0.62114E+01 
  53845.5450     0.61643E+01 
  53877.8072     0.61174E+01 
  53910.0694     0.60707E+01 
  53942.3315     0.60242E+01 
  53974.5937     0.59778E+01 
  54006.8558     0.59317E+01 
  54039.1180     0.58858E+01 
  54071.3802     0.58401E+01 
  54103.6423     0.57946E+01 
  54135.9045     0.57492E+01 
  54168.1666     0.57041E+01 
  54200.4288     0.56592E+01 
  54232.6910     0.56145E+01 
  54264.9531     0.55699E+01 
  54297.2153     0.55256E+01 
  54329.4774     0.54815E+01 
  54361.7396     0.54376E+01 
  54394.0018     0.53938E+01 
  54426.2639     0.53503E+01 
  54458.5261     0.53070E+01 
  54490.7882     0.52639E+01 
  54523.0504     0.52209E+01 
  54555.3126     0.51782E+01 
  54587.5747     0.51357E+01 
  54619.8369     0.50934E+01 
  54652.0990     0.50513E+01 
  54684.3612     0.50093E+01 
  54716.6234     0.49676E+01 
  54748.8855     0.49261E+01 
  54781.1477     0.48848E+01 
  54813.4098     0.48437E+01 
  54845.6720     0.48027E+01 
  54877.9342     0.47620E+01 
  54910.1963     0.47215E+01 
  54942.4585     0.46812E+01 
  54974.7206     0.46411E+01 
  55006.9828     0.46011E+01 
  55039.2450     0.45614E+01 
  55071.5071     0.45219E+01 
  55103.7693     0.44826E+01 
  55136.0314     0.44435E+01 
  55168.2936     0.44045E+01 
  55200.5558     0.43658E+01 
  55232.8179     0.43273E+01 
  55265.0801     0.42890E+01 
  55297.3422     0.42509E+01 
  55329.6044     0.42129E+01 
  55361.8666     0.41752E+01 
  55394.1287     0.41377E+01 
  55426.3909     0.41003E+01 
  55458.6530     0.40632E+01 
  55490.9152     0.40263E+01 
  55523.1774     0.39895E+01 
  55555.4395     0.39530E+01 
  55587.7017     0.39166E+01 
  55619.9638     0.38805E+01 
  55652.2260     0.38445E+01 
  55684.4882     0.38087E+01 
  55716.7503     0.37732E+01 
  55749.0125     0.37378E+01 
  55781.2746     0.37026E+01 
  55813.5368     0.36676E+01 
  55845.7990     0.36328E+01 
  55878.0611     0.35983E+01 
  55910.3233     0.35639E+01 
  55942.5854     0.35296E+01 
  55974.8476     0.34956E+01 
  56007.1098     0.34618E+01 
  56039.3719     0.34282E+01 
  56071.6341     0.33947E+01 
  56103.8962     0.33615E+01 
  56136.1584     0.33284E+01 
  56168.4206     0.32956E+01 
  56200.6827     0.32629E+01 
  56232.9449     0.32304E+01 
  56265.2070     0.31981E+01 
  56297.4692     0.31660E+01 
  56329.7314     0.31341E+01 
  56361.9935     0.31023E+01 
  56394.2557     0.30708E+01 
  56426.5178     0.30394E+01 
  56458.7800     0.30082E+01 
  56491.0422     0.29773E+01 
  56523.3043     0.29465E+01 
  56555.5665     0.29159E+01 
  56587.8286     0.28854E+01 
  56620.0908     0.28552E+01 
  56652.3530     0.28251E+01 
  56684.6151     0.27953E+01 
  56716.8773     0.27656E+01 
  56749.1394     0.27361E+01 
  56781.4016     0.27067E+01 
  56813.6638     0.26776E+01 
  56845.9259     0.26486E+01 
  56878.1881     0.26198E+01 
  56910.4502     0.25912E+01 
  56942.7124     0.25628E+01 
  56974.9746     0.25346E+01 
  57007.2367     0.25065E+01 
  57039.4989     0.24786E+01 
  57071.7610     0.24509E+01 
  57104.0232     0.24234E+01 
  57136.2854     0.23961E+01 
  57168.5475     0.23689E+01 
  57200.8097     0.23419E+01 
  57233.0718     0.23151E+01 
  57265.3340     0.22885E+01 
  57297.5962     0.22620E+01 
  57329.8583     0.22357E+01 
  57362.1205     0.22096E+01 
  57394.3826     0.21836E+01 
  57426.6448     0.21579E+01 
  57458.9070     0.21323E+01 
  57491.1691     0.21069E+01 
  57523.4313     0.20816E+01 
  57555.6934     0.20565E+01 
  57587.9556     0.20316E+01 
  57620.2178     0.20069E+01 
  57652.4799     0.19823E+01 
  57684.7421     0.19579E+01 
  57717.0042     0.19337E+01 
  57749.2664     0.19096E+01 
  57781.5286     0.18857E+01 
  57813.7907     0.18620E+01 
  57846.0529     0.18385E+01 
  57878.3150     0.18151E+01 
  57910.5772     0.17918E+01 
  57942.8394     0.17688E+01 
  57975.1015     0.17459E+01 
  58007.3637     0.17232E+01 
  58039.6258     0.17006E+01 
  58071.8880     0.16782E+01 
  58104.1502     0.16560E+01 
  58136.4123     0.16339E+01 
  58168.6745     0.16120E+01 
  58200.9366     0.15903E+01 
  58233.1988     0.15687E+01 
  58265.4610     0.15473E+01 
  58297.7231     0.15260E+01 
  58329.9853     0.15049E+01 
  58362.2474     0.14840E+01 
  58394.5096     0.14632E+01 
  58426.7718     0.14426E+01 
  58459.0339     0.14221E+01 
  58491.2961     0.14018E+01 
  58523.5582     0.13817E+01 
  58555.8204     0.13617E+01 
  58588.0826     0.13419E+01 
  58620.3447     0.13222E+01 
  58652.6069     0.13027E+01 
  58684.8690     0.12834E+01 
  58717.1312     0.12642E+01 
  58749.3934     0.12451E+01 
  58781.6555     0.12262E+01 
  58813.9177     0.12075E+01 
  58846.1798     0.11889E+01 
  58878.4420     0.11705E+01 
  58910.7042     0.11523E+01 
  58942.9663     0.11341E+01 
  58975.2285     0.11162E+01 
  59007.4906     0.10984E+01 
  59039.7528     0.10807E+01 
  59072.0150     0.10632E+01 
  59104.2771     0.10459E+01 
  59136.5393     0.10287E+01 
  59168.8014     0.10117E+01 
  59201.0636     0.99480E+00 
  59233.3258     0.97807E+00 
  59265.5879     0.96149E+00 
  59297.8501     0.94506E+00 
  59330.1122     0.92878E+00 
  59362.3744     0.91266E+00 
  59394.6366     0.89668E+00 
  59426.8987     0.88086E+00 
  59459.1609     0.86519E+00 
  59491.4230     0.84966E+00 
  59523.6852     0.83429E+00 
  59555.9474     0.81907E+00 
  59588.2095     0.80400E+00 
  59620.4717     0.78908E+00 
  59652.7338     0.77431E+00 
  59684.9960     0.75968E+00 
  59717.2582     0.74521E+00 
  59749.5203     0.73089E+00 
  59781.7825     0.71672E+00 
  59814.0446     0.70270E+00 
  59846.3068     0.68883E+00 
  59878.5690     0.67511E+00 
  59910.8311     0.66153E+00 
  59943.0933     0.64811E+00 
  59975.3554     0.63484E+00 
  60007.6176     0.62172E+00 
  60039.8798     0.60874E+00 
  60072.1419     0.59592E+00 
  60104.4041     0.58325E+00 
  60136.6662     0.57073E+00 
  60168.9284     0.55836E+00 
  60201.1906     0.54614E+00 
  60233.4527     0.53407E+00 
  60265.7149     0.52215E+00 
  60297.9770     0.51039E+00 
  60330.2392     0.49877E+00 
  60362.5014     0.48731E+00 
  60394.7635     0.47600E+00 
  60427.0257     0.46484E+00 
  60459.2878     0.45383E+00 
  60491.5500     0.44298E+00 
  60523.8122     0.43228E+00 
  60556.0743     0.42174E+00 
  60588.3365     0.41134E+00 
  60620.5986     0.40111E+00 
  60652.8608     0.39102E+00 
  60685.1230     0.38110E+00 
  60717.3851     0.37133E+00 
  60749.6473     0.36171E+00 
  60781.9094     0.35225E+00 
  60814.1716     0.34295E+00 
  60846.4338     0.33381E+00 
  60878.6959     0.32482E+00 
  60910.9581     0.31600E+00 
  60943.2202     0.30733E+00 
  60975.4824     0.29883E+00 
  61007.7446     0.29048E+00 
  61040.0067     0.28230E+00 
  61072.2689     0.27428E+00 
  61104.5310     0.26642E+00 
  61136.7932     0.25873E+00 
  61169.0554     0.25120E+00 
  61201.3175     0.24384E+00 
  61233.5797     0.23664E+00 
  61265.8418     0.22961E+00 
  61298.1040     0.22275E+00 
  61330.3662     0.21606E+00 
  61362.6283     0.20954E+00 
  61394.8905     0.20319E+00 
  61427.1526     0.19701E+00 
  61459.4148     0.19100E+00 
  61491.6770     0.18517E+00 
  61523.9391     0.17952E+00 
  61556.2013     0.17404E+00 
  61588.4634     0.16874E+00 
  61620.7256     0.16362E+00 
  61652.9878     0.15868E+00 
  61685.2499     0.15392E+00 
  61717.5121     0.14935E+00 
  61749.7742     0.14496E+00 
  61782.0364     0.14075E+00 
  61814.2986     0.13673E+00 
  61846.5607     0.13291E+00 
  61878.8229     0.12927E+00 
  61911.0850     0.12582E+00 
  61943.3472     0.12257E+00 
  61975.6094     0.11951E+00 
  62007.8715     0.11665E+00 
  62040.1337     0.11399E+00 
  62072.3958     0.11152E+00 
  62104.6580     0.10926E+00 
  62136.9202     0.10721E+00 
  62169.1823     0.10536E+00 
  62201.4445     0.10371E+00 
  62233.7066     0.10228E+00 
  62265.9688     0.10106E+00 
  62298.2310     0.10005E+00 
  62330.4931     0.99262E-01 
  62362.7553     0.98689E-01 
  62395.0174     0.98336E-01 
  62427.2796     0.98206E-01 
  62459.5418     0.98301E-01 
  62491.8039     0.98624E-01 
  62524.0661     0.99176E-01 
  62556.3282     0.99960E-01 
  62588.5904     0.10098E+00 
  62620.8526     0.10223E+00 
  62653.1147     0.10373E+00 
  62685.3769     0.10547E+00 
  62717.6390     0.10745E+00 
  62749.9012     0.10968E+00 
  62782.1634     0.11217E+00 
  62814.4255     0.11490E+00 
  62846.6877     0.11790E+00 
  62878.9498     0.12115E+00 
  62911.2120     0.12467E+00 
  62943.4742     0.12845E+00 
  62975.7363     0.13250E+00 
  63007.9985     0.13682E+00 
  63040.2606     0.14142E+00 
  63072.5228     0.14630E+00 
  63104.7850     0.15146E+00 
  63137.0471     0.15691E+00 
  63169.3093     0.16265E+00 
  63201.5714     0.16868E+00 
  63233.8336     0.17500E+00 
  63266.0958     0.18163E+00 
  63298.3579     0.18857E+00 
  63330.6201     0.19581E+00 
  63362.8822     0.20336E+00 
  63395.1444     0.21123E+00 
  63427.4066     0.21942E+00 
  63459.6687     0.22794E+00 
  63491.9309     0.23679E+00 
  63524.1930     0.24596E+00 
  63556.4552     0.25548E+00 
  63588.7174     0.26534E+00 
  63620.9795     0.27555E+00 
  63653.2417     0.28611E+00 
  63685.5038     0.29702E+00 
  63717.7660     0.30830E+00 
  63750.0282     0.31995E+00 
  63782.2903     0.33196E+00 
  63814.5525     0.34435E+00 
  63846.8146     0.35712E+00 
  63879.0768     0.37028E+00 
  63911.3390     0.38384E+00 
  63943.6011     0.39779E+00 
  63975.8633     0.41214E+00 
  64008.1254     0.42690E+00 
  64040.3876     0.44208E+00 
  64072.6498     0.45767E+00 
  64104.9119     0.47369E+00 
  64137.1741     0.49015E+00 
  64169.4362     0.50704E+00 
  64201.6984     0.52437E+00 
  64233.9606     0.54216E+00 
  64266.2227     0.56041E+00 
  64298.4849     0.57911E+00 
  64330.7470     0.59829E+00 
  64363.0092     0.61794E+00 
  64395.2714     0.63808E+00 
  64427.5335     0.65870E+00 
  64459.7957     0.67983E+00 
  64492.0578     0.70145E+00 
  64524.3200     0.72359E+00 
  64556.5822     0.74625E+00 
  64588.8443     0.76943E+00 
  64621.1065     0.79315E+00 
  64653.3686     0.81741E+00 
  64685.6308     0.84221E+00 
  64717.8930     0.86757E+00 
  64750.1551     0.89350E+00 
  64782.4173     0.92000E+00 
  64814.6794     0.94708E+00 
  64846.9416     0.97475E+00 
  64879.2038     0.10030E+01 
  64911.4659     0.10319E+01 
  64943.7281     0.10614E+01 
  64975.9902     0.10915E+01 
  65008.2524     0.11222E+01 
  65040.5146     0.11536E+01 
  65072.7767     0.11856E+01 
  65105.0389     0.12183E+01 
  65137.3010     0.12517E+01 
  65169.5632     0.12857E+01 
  65201.8254     0.13204E+01 
  65234.0875     0.13559E+01 
  65266.3497     0.13920E+01 
  65298.6118     0.14288E+01 
  65330.8740     0.14664E+01 
  65363.1362     0.15047E+01 
  65395.3983     0.15438E+01 
  65427.6605     0.15836E+01 
  65459.9226     0.16242E+01 
  65492.1848     0.16655E+01 
  65524.4470     0.17077E+01 
  65556.7091     0.17506E+01 
  65588.9713     0.17944E+01 
  65621.2334     0.18390E+01 
  65653.4956     0.18844E+01 
  65685.7578     0.19307E+01 
  65718.0199     0.19778E+01 
  65750.2821     0.20258E+01 
  65782.5442     0.20747E+01 
  65814.8064     0.21245E+01 
  65847.0686     0.21752E+01 
  65879.3307     0.22268E+01 
  65911.5929     0.22793E+01 
  65943.8550     0.23328E+01 
  65976.1172     0.23873E+01 
  66008.3794     0.24427E+01 
  66040.6415     0.24991E+01 
  66072.9037     0.25565E+01 
  66105.1658     0.26149E+01 
  66137.4280     0.26743E+01 
  66169.6902     0.27347E+01 
  66201.9523     0.27963E+01 
  66234.2145     0.28588E+01 
  66266.4766     0.29225E+01 
  66298.7388     0.29872E+01 
  66331.0010     0.30531E+01 
  66363.2631     0.31201E+01 
  66395.5253     0.31882E+01 
  66427.7874     0.32575E+01 
  66460.0496     0.33279E+01 
  66492.3118     0.33996E+01 
  66524.5739     0.34724E+01 
  66556.8361     0.35464E+01 
  66589.0982     0.36217E+01 
  66621.3604     0.36982E+01 
  66653.6226     0.37760E+01 
  66685.8847     0.38550E+01 
  66718.1469     0.39354E+01 
  66750.4090     0.40170E+01 
  66782.6712     0.41000E+01 
  66814.9334     0.41844E+01 
  66847.1955     0.42701E+01 
  66879.4577     0.43571E+01 
  66911.7198     0.44456E+01 
  66943.9820     0.45355E+01 
  66976.2442     0.46268E+01 
  67008.5063     0.47195E+01 
  67040.7685     0.48138E+01 
  67073.0306     0.49095E+01 
  67105.2928     0.50067E+01 
  67137.5550     0.51054E+01 
  67169.8171     0.52057E+01 
  67202.0793     0.53075E+01 
  67234.3414     0.54109E+01 
  67266.6036     0.55159E+01 
  67298.8658     0.56225E+01 
  67331.1279     0.57308E+01 
  67363.3901     0.58407E+01 
  67395.6522     0.59522E+01 
  67427.9144     0.60655E+01 
  67460.1766     0.61805E+01 
  67492.4387     0.62972E+01 
  67524.7009     0.64156E+01 
  67556.9630     0.65359E+01 
  67589.2252     0.66579E+01 
  67621.4874     0.67818E+01 
  67653.7495     0.69074E+01 
  67686.0117     0.70350E+01 
  67718.2738     0.71644E+01 
  67750.5360     0.72957E+01 
  67782.7982     0.74289E+01 
  67815.0603     0.75641E+01 
  67847.3225     0.77012E+01 
  67879.5846     0.78403E+01 
  67911.8468     0.79815E+01 
  67944.1090     0.81246E+01 
  67976.3711     0.82698E+01 
  68008.6333     0.84171E+01 
  68040.8954     0.85665E+01 
  68073.1576     0.87180E+01 
  68105.4198     0.88716E+01 
  68137.6819     0.90274E+01 
  68169.9441     0.91854E+01 
  68202.2062     0.93455E+01 
  68234.4684     0.95080E+01 
  68266.7306     0.96727E+01 
  68298.9927     0.98396E+01 
  68331.2549     0.10009E+02 
  68363.5170     0.10180E+02 
  68395.7792     0.10354E+02 
  68428.0414     0.10531E+02 
  68460.3035     0.10709E+02 
  68492.5657     0.10891E+02 
  68524.8278     0.11074E+02 
  68557.0900     0.11260E+02 
  68589.3522     0.11449E+02 
  68621.6143     0.11640E+02 
  68653.8765     0.11833E+02 
  68686.1386     0.12030E+02 
  68718.4008     0.12228E+02 
  68750.6630     0.12430E+02 
  68782.9251     0.12634E+02 
  68815.1873     0.12841E+02 
  68847.4494     0.13050E+02 
  68879.7116     0.13262E+02 
  68911.9738     0.13477E+02 
  68944.2359     0.13695E+02 
  68976.4981     0.13915E+02 
  69008.7602     0.14138E+02 
  69041.0224     0.14365E+02 
  69073.2846     0.14594E+02 
  69105.5467     0.14826E+02 
  69137.8089     0.15060E+02 
  69170.0710     0.15298E+02 
  69202.3332     0.15539E+02 
  69234.5954     0.15783E+02 
  69266.8575     0.16030E+02 
  69299.1197     0.16279E+02 
  69331.3818     0.16532E+02 
  69363.6440     0.16788E+02 
  69395.9062     0.17048E+02 
  69428.1683     0.17310E+02 
  69460.4305     0.17575E+02 
  69492.6926     0.17844E+02 
  69524.9548     0.18116E+02 
  69557.2170     0.18392E+02 
  69589.4791     0.18670E+02 
  69621.7413     0.18952E+02 
  69654.0034     0.19237E+02 
  69686.2656     0.19526E+02 
  69718.5278     0.19818E+02 
  69750.7899     0.20113E+02 
  69783.0521     0.20412E+02 
  69815.3142     0.20715E+02 
  69847.5764     0.21020E+02 
  69879.8386     0.21330E+02 
  69912.1007     0.21643E+02 
  69944.3629     0.21959E+02 
  69976.6250     0.22279E+02 
  70008.8872     0.22603E+02 
  70041.1494     0.22931E+02 
  70073.4115     0.23262E+02 
  70105.6737     0.23597E+02 
  70137.9358     0.23935E+02 
  70170.1980     0.24278E+02 
  70202.4602     0.24624E+02 
  70234.7223     0.24974E+02 
  70266.9845     0.25328E+02 
  70299.2466     0.25686E+02 
  70331.5088     0.26047E+02 
  70363.7710     0.26413E+02 
  70396.0331     0.26782E+02 
  70428.2953     0.27156E+02 
  70460.5574     0.27533E+02 
  70492.8196     0.27915E+02 
  70525.0818     0.28300E+02 
  70557.3439     0.28690E+02 
  70589.6061     0.29084E+02 
  70621.8682     0.29481E+02 
  70654.1304     0.29883E+02 
  70686.3926     0.30290E+02 
  70718.6547     0.30700E+02 
  70750.9169     0.31114E+02 
  70783.1790     0.31533E+02 
  70815.4412     0.31956E+02 
  70847.7034     0.32384E+02 
  70879.9655     0.32815E+02 
  70912.2277     0.33251E+02 
  70944.4898     0.33692E+02 
  70976.7520     0.34137E+02 
  71009.0142     0.34586E+02 
  71041.2763     0.35040E+02 
  71073.5385     0.35498E+02 
  71105.8006     0.35960E+02 
  71138.0628     0.36427E+02 
  71170.3250     0.36899E+02 
  71202.5871     0.37375E+02 
  71234.8493     0.37856E+02 
  71267.1114     0.38341E+02 
  71299.3736     0.38831E+02 
  71331.6358     0.39325E+02 
  71363.8979     0.39824E+02 
  71396.1601     0.40328E+02 
  71428.4222     0.40836E+02 
  71460.6844     0.41350E+02 
  71492.9466     0.41868E+02 
  71525.2087     0.42390E+02 
  71557.4709     0.42918E+02 
  71589.7330     0.43450E+02 
  71621.9952     0.43987E+02 
  71654.2574     0.44528E+02 
  71686.5195     0.45075E+02 
  71718.7817     0.45627E+02 
  71751.0438     0.46183E+02 
  71783.3060     0.46744E+02 
  71815.5682     0.47310E+02 
  71847.8303     0.47881E+02 
  71880.0925     0.48457E+02 
  71912.3546     0.49038E+02 
  71944.6168     0.49624E+02 
  71976.8790     0.50215E+02 
  72009.1411     0.50810E+02 
  72041.4033     0.51411E+02 
  72073.6654     0.52017E+02 
  72105.9276     0.52628E+02 
  72138.1898     0.53244E+02 
  72170.4519     0.53864E+02 
  72202.7141     0.54490E+02 
  72234.9762     0.55121E+02 
  72267.2384     0.55758E+02 
  72299.5006     0.56399E+02 
  72331.7627     0.57045E+02 
  72364.0249     0.57697E+02 
  72396.2870     0.58353E+02 
  72428.5492     0.59015E+02 
  72460.8114     0.59682E+02 
  72493.0735     0.60353E+02 
  72525.3357     0.61031E+02 
  72557.5978     0.61713E+02 
  72589.8600     0.62400E+02 
