  32262.1600     0.59493E+00 
  32294.4222     0.60242E+00 
  32326.6843     0.60998E+00 
  32358.9465     0.61760E+00 
  32391.2086     0.62529E+00 
  32423.4708     0.63304E+00 
  32455.7330     0.64085E+00 
  32487.9951     0.64873E+00 
  32520.2573     0.65667E+00 
  32552.5194     0.66467E+00 
  32584.7816     0.67274E+00 
  32617.0438     0.68087E+00 
  32649.3059     0.68907E+00 
  32681.5681     0.69733E+00 
  32713.8302     0.70566E+00 
  32746.0924     0.71405E+00 
  32778.3546     0.72250E+00 
  32810.6167     0.73102E+00 
  32842.8789     0.73960E+00 
  32875.1410     0.74824E+00 
  32907.4032     0.75695E+00 
  32939.6654     0.76572E+00 
  32971.9275     0.77455E+00 
  33004.1897     0.78345E+00 
  33036.4518     0.79241E+00 
  33068.7140     0.80144E+00 
  33100.9762     0.81052E+00 
  33133.2383     0.81967E+00 
  33165.5005     0.82889E+00 
  33197.7626     0.83816E+00 
  33230.0248     0.84750E+00 
  33262.2870     0.85690E+00 
  33294.5491     0.86636E+00 
  33326.8113     0.87588E+00 
  33359.0734     0.88547E+00 
  33391.3356     0.89511E+00 
  33423.5978     0.90482E+00 
  33455.8599     0.91459E+00 
  33488.1221     0.92442E+00 
  33520.3842     0.93431E+00 
  33552.6464     0.94426E+00 
  33584.9086     0.95426E+00 
  33617.1707     0.96433E+00 
  33649.4329     0.97446E+00 
  33681.6950     0.98465E+00 
  33713.9572     0.99489E+00 
  33746.2194     0.10052E+01 
  33778.4815     0.10156E+01 
  33810.7437     0.10260E+01 
  33843.0058     0.10365E+01 
  33875.2680     0.10470E+01 
  33907.5302     0.10576E+01 
  33939.7923     0.10682E+01 
  33972.0545     0.10789E+01 
  34004.3166     0.10897E+01 
  34036.5788     0.11005E+01 
  34068.8410     0.11114E+01 
  34101.1031     0.11223E+01 
  34133.3653     0.11333E+01 
  34165.6274     0.11443E+01 
  34197.8896     0.11554E+01 
  34230.1518     0.11665E+01 
  34262.4139     0.11777E+01 
  34294.6761     0.11889E+01 
  34326.9382     0.12002E+01 
  34359.2004     0.12115E+01 
  34391.4626     0.12229E+01 
  34423.7247     0.12344E+01 
  34455.9869     0.12458E+01 
  34488.2490     0.12574E+01 
  34520.5112     0.12690E+01 
  34552.7734     0.12806E+01 
  34585.0355     0.12923E+01 
  34617.2977     0.13040E+01 
  34649.5598     0.13157E+01 
  34681.8220     0.13276E+01 
  34714.0842     0.13394E+01 
  34746.3463     0.13513E+01 
  34778.6085     0.13632E+01 
  34810.8706     0.13752E+01 
  34843.1328     0.13873E+01 
  34875.3950     0.13993E+01 
  34907.6571     0.14114E+01 
  34939.9193     0.14236E+01 
  34972.1814     0.14358E+01 
  35004.4436     0.14480E+01 
  35036.7058     0.14602E+01 
  35068.9679     0.14725E+01 
  35101.2301     0.14849E+01 
  35133.4922     0.14972E+01 
  35165.7544     0.15096E+01 
  35198.0166     0.15221E+01 
  35230.2787     0.15346E+01 
  35262.5409     0.15471E+01 
  35294.8030     0.15596E+01 
  35327.0652     0.15722E+01 
  35359.3274     0.15848E+01 
  35391.5895     0.15974E+01 
  35423.8517     0.16100E+01 
  35456.1138     0.16227E+01 
  35488.3760     0.16354E+01 
  35520.6382     0.16482E+01 
  35552.9003     0.16609E+01 
  35585.1625     0.16737E+01 
  35617.4246     0.16865E+01 
  35649.6868     0.16994E+01 
  35681.9490     0.17122E+01 
  35714.2111     0.17251E+01 
  35746.4733     0.17380E+01 
  35778.7354     0.17509E+01 
  35810.9976     0.17638E+01 
  35843.2598     0.17768E+01 
  35875.5219     0.17898E+01 
  35907.7841     0.18027E+01 
  35940.0462     0.18157E+01 
  35972.3084     0.18288E+01 
  36004.5706     0.18418E+01 
  36036.8327     0.18548E+01 
  36069.0949     0.18679E+01 
  36101.3570     0.18810E+01 
  36133.6192     0.18940E+01 
  36165.8814     0.19071E+01 
  36198.1435     0.19202E+01 
  36230.4057     0.19333E+01 
  36262.6678     0.19464E+01 
  36294.9300     0.19595E+01 
  36327.1922     0.19726E+01 
  36359.4543     0.19857E+01 
  36391.7165     0.19989E+01 
  36423.9786     0.20120E+01 
  36456.2408     0.20251E+01 
  36488.5030     0.20382E+01 
  36520.7651     0.20513E+01 
  36553.0273     0.20645E+01 
  36585.2894     0.20776E+01 
  36617.5516     0.20907E+01 
  36649.8138     0.21038E+01 
  36682.0759     0.21169E+01 
  36714.3381     0.21300E+01 
  36746.6002     0.21430E+01 
  36778.8624     0.21561E+01 
  36811.1246     0.21692E+01 
  36843.3867     0.21822E+01 
  36875.6489     0.21953E+01 
  36907.9110     0.22083E+01 
  36940.1732     0.22213E+01 
  36972.4354     0.22343E+01 
  37004.6975     0.22473E+01 
  37036.9597     0.22602E+01 
  37069.2218     0.22732E+01 
  37101.4840     0.22861E+01 
  37133.7462     0.22990E+01 
  37166.0083     0.23119E+01 
  37198.2705     0.23247E+01 
  37230.5326     0.23376E+01 
  37262.7948     0.23504E+01 
  37295.0570     0.23632E+01 
  37327.3191     0.23759E+01 
  37359.5813     0.23887E+01 
  37391.8434     0.24014E+01 
  37424.1056     0.24141E+01 
  37456.3678     0.24267E+01 
  37488.6299     0.24393E+01 
  37520.8921     0.24519E+01 
  37553.1542     0.24645E+01 
  37585.4164     0.24770E+01 
  37617.6786     0.24895E+01 
  37649.9407     0.25019E+01 
  37682.2029     0.25143E+01 
  37714.4650     0.25267E+01 
  37746.7272     0.25390E+01 
  37778.9894     0.25513E+01 
  37811.2515     0.25635E+01 
  37843.5137     0.25758E+01 
  37875.7758     0.25879E+01 
  37908.0380     0.26000E+01 
  37940.3002     0.26121E+01 
  37972.5623     0.26242E+01 
  38004.8245     0.26361E+01 
  38037.0866     0.26481E+01 
  38069.3488     0.26600E+01 
  38101.6110     0.26718E+01 
  38133.8731     0.26836E+01 
  38166.1353     0.26953E+01 
  38198.3974     0.27070E+01 
  38230.6596     0.27186E+01 
  38262.9218     0.27302E+01 
  38295.1839     0.27418E+01 
  38327.4461     0.27532E+01 
  38359.7082     0.27646E+01 
  38391.9704     0.27760E+01 
  38424.2326     0.27873E+01 
  38456.4947     0.27985E+01 
  38488.7569     0.28097E+01 
  38521.0190     0.28208E+01 
  38553.2812     0.28318E+01 
  38585.5434     0.28428E+01 
  38617.8055     0.28538E+01 
  38650.0677     0.28646E+01 
  38682.3298     0.28754E+01 
  38714.5920     0.28861E+01 
  38746.8542     0.28968E+01 
  38779.1163     0.29074E+01 
  38811.3785     0.29179E+01 
  38843.6406     0.29284E+01 
  38875.9028     0.29388E+01 
  38908.1650     0.29491E+01 
  38940.4271     0.29593E+01 
  38972.6893     0.29695E+01 
  39004.9514     0.29796E+01 
  39037.2136     0.29896E+01 
  39069.4758     0.29995E+01 
  39101.7379     0.30094E+01 
  39134.0001     0.30192E+01 
  39166.2622     0.30289E+01 
  39198.5244     0.30386E+01 
  39230.7866     0.30481E+01 
  39263.0487     0.30576E+01 
  39295.3109     0.30670E+01 
  39327.5730     0.30763E+01 
  39359.8352     0.30855E+01 
  39392.0974     0.30947E+01 
  39424.3595     0.31038E+01 
  39456.6217     0.31128E+01 
  39488.8838     0.31217E+01 
  39521.1460     0.31305E+01 
  39553.4082     0.31392E+01 
  39585.6703     0.31479E+01 
  39617.9325     0.31564E+01 
  39650.1946     0.31649E+01 
  39682.4568     0.31733E+01 
  39714.7190     0.31816E+01 
  39746.9811     0.31898E+01 
  39779.2433     0.31979E+01 
  39811.5054     0.32059E+01 
  39843.7676     0.32138E+01 
  39876.0298     0.32217E+01 
  39908.2919     0.32294E+01 
  39940.5541     0.32371E+01 
  39972.8162     0.32447E+01 
  40005.0784     0.32521E+01 
  40037.3406     0.32595E+01 
  40069.6027     0.32668E+01 
  40101.8649     0.32740E+01 
  40134.1270     0.32811E+01 
  40166.3892     0.32881E+01 
  40198.6514     0.32950E+01 
  40230.9135     0.33018E+01 
  40263.1757     0.33085E+01 
  40295.4378     0.33151E+01 
  40327.7000     0.33216E+01 
  40359.9622     0.33280E+01 
  40392.2243     0.33343E+01 
  40424.4865     0.33406E+01 
  40456.7486     0.33467E+01 
  40489.0108     0.33527E+01 
  40521.2730     0.33586E+01 
  40553.5351     0.33644E+01 
  40585.7973     0.33701E+01 
  40618.0594     0.33757E+01 
  40650.3216     0.33812E+01 
  40682.5838     0.33867E+01 
  40714.8459     0.33920E+01 
  40747.1081     0.33972E+01 
  40779.3702     0.34023E+01 
  40811.6324     0.34073E+01 
  40843.8946     0.34122E+01 
  40876.1567     0.34169E+01 
  40908.4189     0.34216E+01 
  40940.6810     0.34262E+01 
  40972.9432     0.34307E+01 
  41005.2054     0.34351E+01 
  41037.4675     0.34393E+01 
  41069.7297     0.34435E+01 
  41101.9918     0.34476E+01 
  41134.2540     0.34515E+01 
  41166.5162     0.34554E+01 
  41198.7783     0.34591E+01 
  41231.0405     0.34627E+01 
  41263.3026     0.34663E+01 
  41295.5648     0.34697E+01 
  41327.8270     0.34730E+01 
  41360.0891     0.34762E+01 
  41392.3513     0.34793E+01 
  41424.6134     0.34823E+01 
  41456.8756     0.34852E+01 
  41489.1378     0.34880E+01 
  41521.3999     0.34907E+01 
  41553.6621     0.34933E+01 
  41585.9242     0.34958E+01 
  41618.1864     0.34981E+01 
  41650.4486     0.35004E+01 
  41682.7107     0.35025E+01 
  41714.9729     0.35046E+01 
  41747.2350     0.35065E+01 
  41779.4972     0.35083E+01 
  41811.7594     0.35101E+01 
  41844.0215     0.35117E+01 
  41876.2837     0.35132E+01 
  41908.5458     0.35146E+01 
  41940.8080     0.35159E+01 
  41973.0702     0.35171E+01 
  42005.3323     0.35182E+01 
  42037.5945     0.35192E+01 
  42069.8566     0.35201E+01 
  42102.1188     0.35209E+01 
  42134.3810     0.35215E+01 
  42166.6431     0.35221E+01 
  42198.9053     0.35225E+01 
  42231.1674     0.35229E+01 
  42263.4296     0.35232E+01 
  42295.6918     0.35233E+01 
  42327.9539     0.35233E+01 
  42360.2161     0.35233E+01 
  42392.4782     0.35231E+01 
  42424.7404     0.35229E+01 
  42457.0026     0.35225E+01 
  42489.2647     0.35220E+01 
  42521.5269     0.35214E+01 
  42553.7890     0.35207E+01 
  42586.0512     0.35200E+01 
  42618.3134     0.35191E+01 
  42650.5755     0.35181E+01 
  42682.8377     0.35170E+01 
  42715.0998     0.35158E+01 
  42747.3620     0.35145E+01 
  42779.6242     0.35131E+01 
  42811.8863     0.35117E+01 
  42844.1485     0.35101E+01 
  42876.4106     0.35084E+01 
  42908.6728     0.35066E+01 
  42940.9350     0.35047E+01 
  42973.1971     0.35027E+01 
  43005.4593     0.35006E+01 
  43037.7214     0.34985E+01 
  43069.9836     0.34962E+01 
  43102.2458     0.34938E+01 
  43134.5079     0.34913E+01 
  43166.7701     0.34888E+01 
  43199.0322     0.34861E+01 
  43231.2944     0.34833E+01 
  43263.5566     0.34805E+01 
  43295.8187     0.34775E+01 
  43328.0809     0.34745E+01 
  43360.3430     0.34714E+01 
  43392.6052     0.34681E+01 
  43424.8674     0.34648E+01 
  43457.1295     0.34614E+01 
  43489.3917     0.34579E+01 
  43521.6538     0.34543E+01 
  43553.9160     0.34506E+01 
  43586.1782     0.34468E+01 
  43618.4403     0.34430E+01 
  43650.7025     0.34390E+01 
  43682.9646     0.34349E+01 
  43715.2268     0.34308E+01 
  43747.4890     0.34266E+01 
  43779.7511     0.34223E+01 
  43812.0133     0.34179E+01 
  43844.2754     0.34134E+01 
  43876.5376     0.34088E+01 
  43908.7998     0.34042E+01 
  43941.0619     0.33994E+01 
  43973.3241     0.33946E+01 
  44005.5862     0.33897E+01 
  44037.8484     0.33847E+01 
  44070.1106     0.33796E+01 
  44102.3727     0.33745E+01 
  44134.6349     0.33693E+01 
  44166.8970     0.33639E+01 
  44199.1592     0.33585E+01 
  44231.4214     0.33531E+01 
  44263.6835     0.33475E+01 
  44295.9457     0.33419E+01 
  44328.2078     0.33362E+01 
  44360.4700     0.33304E+01 
  44392.7322     0.33245E+01 
  44424.9943     0.33186E+01 
  44457.2565     0.33126E+01 
  44489.5186     0.33065E+01 
  44521.7808     0.33003E+01 
  44554.0430     0.32941E+01 
  44586.3051     0.32877E+01 
  44618.5673     0.32814E+01 
  44650.8294     0.32749E+01 
  44683.0916     0.32684E+01 
  44715.3538     0.32618E+01 
  44747.6159     0.32551E+01 
  44779.8781     0.32484E+01 
  44812.1402     0.32416E+01 
  44844.4024     0.32347E+01 
  44876.6646     0.32278E+01 
  44908.9267     0.32207E+01 
  44941.1889     0.32137E+01 
  44973.4510     0.32065E+01 
  45005.7132     0.31993E+01 
  45037.9754     0.31921E+01 
  45070.2375     0.31847E+01 
  45102.4997     0.31773E+01 
  45134.7618     0.31699E+01 
  45167.0240     0.31624E+01 
  45199.2862     0.31548E+01 
  45231.5483     0.31471E+01 
  45263.8105     0.31394E+01 
  45296.0726     0.31317E+01 
  45328.3348     0.31239E+01 
  45360.5970     0.31160E+01 
  45392.8591     0.31081E+01 
  45425.1213     0.31001E+01 
  45457.3834     0.30921E+01 
  45489.6456     0.30840E+01 
  45521.9078     0.30758E+01 
  45554.1699     0.30676E+01 
  45586.4321     0.30594E+01 
  45618.6942     0.30510E+01 
  45650.9564     0.30427E+01 
  45683.2186     0.30343E+01 
  45715.4807     0.30258E+01 
  45747.7429     0.30173E+01 
  45780.0050     0.30088E+01 
  45812.2672     0.30001E+01 
  45844.5294     0.29915E+01 
  45876.7915     0.29828E+01 
  45909.0537     0.29741E+01 
  45941.3158     0.29653E+01 
  45973.5780     0.29564E+01 
  46005.8402     0.29475E+01 
  46038.1023     0.29386E+01 
  46070.3645     0.29297E+01 
  46102.6266     0.29207E+01 
  46134.8888     0.29116E+01 
  46167.1510     0.29025E+01 
  46199.4131     0.28934E+01 
  46231.6753     0.28842E+01 
  46263.9374     0.28750E+01 
  46296.1996     0.28658E+01 
  46328.4618     0.28565E+01 
  46360.7239     0.28472E+01 
  46392.9861     0.28378E+01 
  46425.2482     0.28284E+01 
  46457.5104     0.28190E+01 
  46489.7726     0.28095E+01 
  46522.0347     0.28000E+01 
  46554.2969     0.27905E+01 
  46586.5590     0.27810E+01 
  46618.8212     0.27714E+01 
  46651.0834     0.27618E+01 
  46683.3455     0.27521E+01 
  46715.6077     0.27424E+01 
  46747.8698     0.27327E+01 
  46780.1320     0.27230E+01 
  46812.3942     0.27132E+01 
  46844.6563     0.27034E+01 
  46876.9185     0.26936E+01 
  46909.1806     0.26838E+01 
  46941.4428     0.26739E+01 
  46973.7050     0.26640E+01 
  47005.9671     0.26541E+01 
  47038.2293     0.26442E+01 
  47070.4914     0.26342E+01 
  47102.7536     0.26243E+01 
  47135.0158     0.26142E+01 
  47167.2779     0.26042E+01 
  47199.5401     0.25942E+01 
  47231.8022     0.25841E+01 
  47264.0644     0.25740E+01 
  47296.3266     0.25639E+01 
  47328.5887     0.25538E+01 
  47360.8509     0.25437E+01 
  47393.1130     0.25336E+01 
  47425.3752     0.25234E+01 
  47457.6374     0.25132E+01 
  47489.8995     0.25030E+01 
  47522.1617     0.24928E+01 
  47554.4238     0.24826E+01 
  47586.6860     0.24724E+01 
  47618.9482     0.24621E+01 
  47651.2103     0.24518E+01 
  47683.4725     0.24416E+01 
  47715.7346     0.24313E+01 
  47747.9968     0.24210E+01 
  47780.2590     0.24107E+01 
  47812.5211     0.24004E+01 
  47844.7833     0.23901E+01 
  47877.0454     0.23798E+01 
  47909.3076     0.23694E+01 
  47941.5698     0.23591E+01 
  47973.8319     0.23488E+01 
  48006.0941     0.23384E+01 
  48038.3562     0.23281E+01 
  48070.6184     0.23177E+01 
  48102.8806     0.23073E+01 
  48135.1427     0.22970E+01 
  48167.4049     0.22866E+01 
  48199.6670     0.22762E+01 
  48231.9292     0.22659E+01 
  48264.1914     0.22555E+01 
  48296.4535     0.22451E+01 
  48328.7157     0.22347E+01 
  48360.9778     0.22244E+01 
  48393.2400     0.22140E+01 
  48425.5022     0.22036E+01 
  48457.7643     0.21933E+01 
  48490.0265     0.21829E+01 
  48522.2886     0.21725E+01 
  48554.5508     0.21622E+01 
  48586.8130     0.21518E+01 
  48619.0751     0.21415E+01 
  48651.3373     0.21311E+01 
  48683.5994     0.21208E+01 
  48715.8616     0.21104E+01 
  48748.1238     0.21001E+01 
  48780.3859     0.20898E+01 
  48812.6481     0.20794E+01 
  48844.9102     0.20691E+01 
  48877.1724     0.20588E+01 
  48909.4346     0.20485E+01 
  48941.6967     0.20382E+01 
  48973.9589     0.20280E+01 
  49006.2210     0.20177E+01 
  49038.4832     0.20074E+01 
  49070.7454     0.19972E+01 
  49103.0075     0.19869E+01 
  49135.2697     0.19767E+01 
  49167.5318     0.19665E+01 
  49199.7940     0.19563E+01 
  49232.0562     0.19461E+01 
  49264.3183     0.19359E+01 
  49296.5805     0.19257E+01 
  49328.8426     0.19156E+01 
  49361.1048     0.19055E+01 
  49393.3670     0.18953E+01 
  49425.6291     0.18852E+01 
  49457.8913     0.18751E+01 
  49490.1534     0.18650E+01 
  49522.4156     0.18550E+01 
  49554.6778     0.18449E+01 
  49586.9399     0.18349E+01 
  49619.2021     0.18249E+01 
  49651.4642     0.18149E+01 
  49683.7264     0.18049E+01 
  49715.9886     0.17949E+01 
  49748.2507     0.17850E+01 
  49780.5129     0.17751E+01 
  49812.7750     0.17652E+01 
  49845.0372     0.17553E+01 
  49877.2994     0.17454E+01 
  49909.5615     0.17356E+01 
  49941.8237     0.17257E+01 
  49974.0858     0.17159E+01 
  50006.3480     0.17061E+01 
  50038.6102     0.16964E+01 
  50070.8723     0.16866E+01 
  50103.1345     0.16769E+01 
  50135.3966     0.16672E+01 
  50167.6588     0.16575E+01 
  50199.9210     0.16478E+01 
  50232.1831     0.16382E+01 
  50264.4453     0.16286E+01 
  50296.7074     0.16190E+01 
  50328.9696     0.16094E+01 
  50361.2318     0.15999E+01 
  50393.4939     0.15904E+01 
  50425.7561     0.15809E+01 
  50458.0182     0.15714E+01 
  50490.2804     0.15620E+01 
  50522.5426     0.15525E+01 
  50554.8047     0.15431E+01 
  50587.0669     0.15338E+01 
  50619.3290     0.15244E+01 
  50651.5912     0.15151E+01 
  50683.8534     0.15058E+01 
  50716.1155     0.14965E+01 
  50748.3777     0.14873E+01 
  50780.6398     0.14781E+01 
  50812.9020     0.14689E+01 
  50845.1642     0.14597E+01 
  50877.4263     0.14506E+01 
  50909.6885     0.14415E+01 
  50941.9506     0.14324E+01 
  50974.2128     0.14234E+01 
  51006.4750     0.14143E+01 
  51038.7371     0.14054E+01 
  51070.9993     0.13964E+01 
  51103.2614     0.13875E+01 
  51135.5236     0.13785E+01 
  51167.7858     0.13697E+01 
  51200.0479     0.13608E+01 
  51232.3101     0.13520E+01 
  51264.5722     0.13432E+01 
  51296.8344     0.13344E+01 
  51329.0966     0.13257E+01 
  51361.3587     0.13170E+01 
  51393.6209     0.13083E+01 
  51425.8830     0.12997E+01 
  51458.1452     0.12911E+01 
  51490.4074     0.12825E+01 
  51522.6695     0.12739E+01 
  51554.9317     0.12654E+01 
  51587.1938     0.12569E+01 
  51619.4560     0.12485E+01 
  51651.7182     0.12400E+01 
  51683.9803     0.12317E+01 
  51716.2425     0.12233E+01 
  51748.5046     0.12150E+01 
  51780.7668     0.12067E+01 
  51813.0290     0.11984E+01 
  51845.2911     0.11901E+01 
  51877.5533     0.11819E+01 
  51909.8154     0.11738E+01 
  51942.0776     0.11656E+01 
  51974.3398     0.11575E+01 
  52006.6019     0.11494E+01 
  52038.8641     0.11414E+01 
  52071.1262     0.11334E+01 
  52103.3884     0.11254E+01 
  52135.6506     0.11174E+01 
  52167.9127     0.11095E+01 
  52200.1749     0.11016E+01 
  52232.4370     0.10938E+01 
  52264.6992     0.10859E+01 
  52296.9614     0.10782E+01 
  52329.2235     0.10704E+01 
  52361.4857     0.10627E+01 
  52393.7478     0.10550E+01 
  52426.0100     0.10473E+01 
  52458.2722     0.10397E+01 
  52490.5343     0.10321E+01 
  52522.7965     0.10246E+01 
  52555.0586     0.10170E+01 
  52587.3208     0.10096E+01 
  52619.5830     0.10021E+01 
  52651.8451     0.99468E+00 
  52684.1073     0.98729E+00 
  52716.3694     0.97993E+00 
  52748.6316     0.97261E+00 
  52780.8938     0.96532E+00 
  52813.1559     0.95806E+00 
  52845.4181     0.95084E+00 
  52877.6802     0.94365E+00 
  52909.9424     0.93649E+00 
  52942.2046     0.92936E+00 
  52974.4667     0.92227E+00 
  53006.7289     0.91522E+00 
  53038.9910     0.90819E+00 
  53071.2532     0.90121E+00 
  53103.5154     0.89425E+00 
  53135.7775     0.88733E+00 
  53168.0397     0.88044E+00 
  53200.3018     0.87358E+00 
  53232.5640     0.86676E+00 
  53264.8262     0.85997E+00 
  53297.0883     0.85321E+00 
  53329.3505     0.84649E+00 
  53361.6126     0.83980E+00 
  53393.8748     0.83315E+00 
  53426.1370     0.82652E+00 
  53458.3991     0.81993E+00 
  53490.6613     0.81338E+00 
  53522.9234     0.80686E+00 
  53555.1856     0.80037E+00 
  53587.4478     0.79391E+00 
  53619.7099     0.78749E+00 
  53651.9721     0.78110E+00 
  53684.2342     0.77474E+00 
  53716.4964     0.76842E+00 
  53748.7586     0.76213E+00 
  53781.0207     0.75587E+00 
  53813.2829     0.74965E+00 
  53845.5450     0.74345E+00 
  53877.8072     0.73729E+00 
  53910.0694     0.73117E+00 
  53942.3315     0.72508E+00 
  53974.5937     0.71902E+00 
  54006.8558     0.71299E+00 
  54039.1180     0.70699E+00 
  54071.3802     0.70103E+00 
  54103.6423     0.69510E+00 
  54135.9045     0.68920E+00 
  54168.1666     0.68334E+00 
  54200.4288     0.67750E+00 
  54232.6910     0.67170E+00 
  54264.9531     0.66593E+00 
  54297.2153     0.66020E+00 
  54329.4774     0.65449E+00 
  54361.7396     0.64882E+00 
  54394.0018     0.64318E+00 
  54426.2639     0.63757E+00 
  54458.5261     0.63200E+00 
  54490.7882     0.62645E+00 
  54523.0504     0.62094E+00 
  54555.3126     0.61546E+00 
  54587.5747     0.61001E+00 
  54619.8369     0.60459E+00 
  54652.0990     0.59920E+00 
  54684.3612     0.59385E+00 
  54716.6234     0.58852E+00 
  54748.8855     0.58323E+00 
  54781.1477     0.57797E+00 
  54813.4098     0.57274E+00 
  54845.6720     0.56754E+00 
  54877.9342     0.56237E+00 
  54910.1963     0.55723E+00 
  54942.4585     0.55212E+00 
  54974.7206     0.54705E+00 
  55006.9828     0.54200E+00 
  55039.2450     0.53698E+00 
  55071.5071     0.53200E+00 
  55103.7693     0.52704E+00 
  55136.0314     0.52212E+00 
  55168.2936     0.51722E+00 
  55200.5558     0.51236E+00 
  55232.8179     0.50752E+00 
  55265.0801     0.50271E+00 
  55297.3422     0.49794E+00 
  55329.6044     0.49319E+00 
  55361.8666     0.48847E+00 
  55394.1287     0.48379E+00 
  55426.3909     0.47913E+00 
  55458.6530     0.47450E+00 
  55490.9152     0.46990E+00 
  55523.1774     0.46533E+00 
  55555.4395     0.46079E+00 
  55587.7017     0.45628E+00 
  55619.9638     0.45179E+00 
  55652.2260     0.44734E+00 
  55684.4882     0.44291E+00 
  55716.7503     0.43851E+00 
  55749.0125     0.43414E+00 
  55781.2746     0.42980E+00 
  55813.5368     0.42548E+00 
  55845.7990     0.42120E+00 
  55878.0611     0.41694E+00 
  55910.3233     0.41271E+00 
  55942.5854     0.40851E+00 
  55974.8476     0.40434E+00 
  56007.1098     0.40019E+00 
  56039.3719     0.39607E+00 
  56071.6341     0.39198E+00 
  56103.8962     0.38791E+00 
  56136.1584     0.38387E+00 
  56168.4206     0.37986E+00 
  56200.6827     0.37588E+00 
  56232.9449     0.37192E+00 
  56265.2070     0.36799E+00 
  56297.4692     0.36409E+00 
  56329.7314     0.36021E+00 
  56361.9935     0.35636E+00 
  56394.2557     0.35254E+00 
  56426.5178     0.34874E+00 
  56458.7800     0.34497E+00 
  56491.0422     0.34122E+00 
  56523.3043     0.33750E+00 
  56555.5665     0.33381E+00 
  56587.8286     0.33014E+00 
  56620.0908     0.32650E+00 
  56652.3530     0.32288E+00 
  56684.6151     0.31929E+00 
  56716.8773     0.31572E+00 
  56749.1394     0.31218E+00 
  56781.4016     0.30866E+00 
  56813.6638     0.30517E+00 
  56845.9259     0.30170E+00 
  56878.1881     0.29826E+00 
  56910.4502     0.29484E+00 
  56942.7124     0.29145E+00 
  56974.9746     0.28808E+00 
  57007.2367     0.28474E+00 
  57039.4989     0.28142E+00 
  57071.7610     0.27812E+00 
  57104.0232     0.27485E+00 
  57136.2854     0.27160E+00 
  57168.5475     0.26838E+00 
  57200.8097     0.26518E+00 
  57233.0718     0.26200E+00 
  57265.3340     0.25885E+00 
  57297.5962     0.25572E+00 
  57329.8583     0.25261E+00 
  57362.1205     0.24953E+00 
  57394.3826     0.24647E+00 
  57426.6448     0.24343E+00 
  57458.9070     0.24042E+00 
  57491.1691     0.23743E+00 
  57523.4313     0.23446E+00 
  57555.6934     0.23151E+00 
  57587.9556     0.22859E+00 
  57620.2178     0.22569E+00 
  57652.4799     0.22281E+00 
  57684.7421     0.21995E+00 
  57717.0042     0.21712E+00 
  57749.2664     0.21430E+00 
  57781.5286     0.21151E+00 
  57813.7907     0.20874E+00 
  57846.0529     0.20600E+00 
  57878.3150     0.20327E+00 
  57910.5772     0.20057E+00 
  57942.8394     0.19788E+00 
  57975.1015     0.19522E+00 
  58007.3637     0.19258E+00 
  58039.6258     0.18996E+00 
  58071.8880     0.18737E+00 
  58104.1502     0.18479E+00 
  58136.4123     0.18223E+00 
  58168.6745     0.17970E+00 
  58200.9366     0.17718E+00 
  58233.1988     0.17469E+00 
  58265.4610     0.17222E+00 
  58297.7231     0.16977E+00 
  58329.9853     0.16733E+00 
  58362.2474     0.16492E+00 
  58394.5096     0.16253E+00 
  58426.7718     0.16016E+00 
  58459.0339     0.15781E+00 
  58491.2961     0.15547E+00 
  58523.5582     0.15316E+00 
  58555.8204     0.15087E+00 
  58588.0826     0.14860E+00 
  58620.3447     0.14635E+00 
  58652.6069     0.14411E+00 
  58684.8690     0.14190E+00 
  58717.1312     0.13970E+00 
  58749.3934     0.13753E+00 
  58781.6555     0.13537E+00 
  58813.9177     0.13324E+00 
  58846.1798     0.13112E+00 
  58878.4420     0.12902E+00 
  58910.7042     0.12694E+00 
  58942.9663     0.12488E+00 
  58975.2285     0.12284E+00 
  59007.4906     0.12082E+00 
  59039.7528     0.11881E+00 
  59072.0150     0.11683E+00 
  59104.2771     0.11486E+00 
  59136.5393     0.11291E+00 
  59168.8014     0.11098E+00 
  59201.0636     0.10907E+00 
  59233.3258     0.10718E+00 
  59265.5879     0.10530E+00 
  59297.8501     0.10344E+00 
  59330.1122     0.10161E+00 
  59362.3744     0.99784E-01 
  59394.6366     0.97982E-01 
  59426.8987     0.96197E-01 
  59459.1609     0.94430E-01 
  59491.4230     0.92680E-01 
  59523.6852     0.90949E-01 
  59555.9474     0.89235E-01 
  59588.2095     0.87539E-01 
  59620.4717     0.85861E-01 
  59652.7338     0.84200E-01 
  59684.9960     0.82557E-01 
  59717.2582     0.80932E-01 
  59749.5203     0.79323E-01 
  59781.7825     0.77733E-01 
  59814.0446     0.76159E-01 
  59846.3068     0.74603E-01 
  59878.5690     0.73065E-01 
  59910.8311     0.71544E-01 
  59943.0933     0.70039E-01 
  59975.3554     0.68553E-01 
  60007.6176     0.67083E-01 
  60039.8798     0.65630E-01 
  60072.1419     0.64195E-01 
  60104.4041     0.62777E-01 
  60136.6662     0.61376E-01 
  60168.9284     0.59992E-01 
  60201.1906     0.58624E-01 
  60233.4527     0.57274E-01 
  60265.7149     0.55941E-01 
  60297.9770     0.54625E-01 
  60330.2392     0.53326E-01 
  60362.5014     0.52044E-01 
  60394.7635     0.50779E-01 
  60427.0257     0.49531E-01 
  60459.2878     0.48300E-01 
  60491.5500     0.47085E-01 
  60523.8122     0.45888E-01 
  60556.0743     0.44708E-01 
  60588.3365     0.43544E-01 
  60620.5986     0.42398E-01 
  60652.8608     0.41268E-01 
  60685.1230     0.40156E-01 
  60717.3851     0.39060E-01 
  60749.6473     0.37981E-01 
  60781.9094     0.36919E-01 
  60814.1716     0.35875E-01 
  60846.4338     0.34847E-01 
  60878.6959     0.33837E-01 
  60910.9581     0.32843E-01 
  60943.2202     0.31867E-01 
  60975.4824     0.30907E-01 
  61007.7446     0.29965E-01 
  61040.0067     0.29040E-01 
  61072.2689     0.28132E-01 
  61104.5310     0.27242E-01 
  61136.7932     0.26369E-01 
  61169.0554     0.25513E-01 
  61201.3175     0.24675E-01 
  61233.5797     0.23854E-01 
  61265.8418     0.23050E-01 
  61298.1040     0.22264E-01 
  61330.3662     0.21496E-01 
  61362.6283     0.20745E-01 
  61394.8905     0.20013E-01 
  61427.1526     0.19297E-01 
  61459.4148     0.18600E-01 
  61491.6770     0.17921E-01 
  61523.9391     0.17260E-01 
  61556.2013     0.16617E-01 
  61588.4634     0.15992E-01 
  61620.7256     0.15385E-01 
  61652.9878     0.14797E-01 
  61685.2499     0.14227E-01 
  61717.5121     0.13676E-01 
  61749.7742     0.13143E-01 
  61782.0364     0.12629E-01 
  61814.2986     0.12134E-01 
  61846.5607     0.11658E-01 
  61878.8229     0.11201E-01 
  61911.0850     0.10764E-01 
  61943.3472     0.10345E-01 
  61975.6094     0.99463E-02 
  62007.8715     0.95671E-02 
  62040.1337     0.92075E-02 
  62072.3958     0.88679E-02 
  62104.6580     0.85483E-02 
  62136.9202     0.82488E-02 
  62169.1823     0.79697E-02 
  62201.4445     0.77111E-02 
  62233.7066     0.74731E-02 
  62265.9688     0.72560E-02 
  62298.2310     0.70598E-02 
  62330.4931     0.68849E-02 
  62362.7553     0.67313E-02 
  62395.0174     0.65992E-02 
  62427.2796     0.64889E-02 
  62459.5418     0.64006E-02 
  62491.8039     0.63344E-02 
  62524.0661     0.62905E-02 
  62556.3282     0.62693E-02 
  62588.5904     0.62708E-02 
  62620.8526     0.62953E-02 
  62653.1147     0.63432E-02 
  62685.3769     0.64145E-02 
  62717.6390     0.65096E-02 
  62749.9012     0.66287E-02 
  62782.1634     0.67720E-02 
  62814.4255     0.69399E-02 
  62846.6877     0.71326E-02 
  62878.9498     0.73503E-02 
  62911.2120     0.75935E-02 
  62943.4742     0.78623E-02 
  62975.7363     0.81570E-02 
  63007.9985     0.84780E-02 
  63040.2606     0.88256E-02 
  63072.5228     0.92001E-02 
  63104.7850     0.96019E-02 
  63137.0471     0.10031E-01 
  63169.3093     0.10488E-01 
  63201.5714     0.10974E-01 
  63233.8336     0.11488E-01 
  63266.0958     0.12031E-01 
  63298.3579     0.12604E-01 
  63330.6201     0.13206E-01 
  63362.8822     0.13839E-01 
  63395.1444     0.14502E-01 
  63427.4066     0.15196E-01 
  63459.6687     0.15921E-01 
  63491.9309     0.16679E-01 
  63524.1930     0.17468E-01 
  63556.4552     0.18291E-01 
  63588.7174     0.19146E-01 
  63620.9795     0.20036E-01 
  63653.2417     0.20959E-01 
  63685.5038     0.21917E-01 
  63717.7660     0.22911E-01 
  63750.0282     0.23940E-01 
  63782.2903     0.25005E-01 
  63814.5525     0.26107E-01 
  63846.8146     0.27246E-01 
  63879.0768     0.28423E-01 
  63911.3390     0.29639E-01 
  63943.6011     0.30893E-01 
  63975.8633     0.32187E-01 
  64008.1254     0.33522E-01 
  64040.3876     0.34897E-01 
  64072.6498     0.36314E-01 
  64104.9119     0.37773E-01 
  64137.1741     0.39274E-01 
  64169.4362     0.40819E-01 
  64201.6984     0.42409E-01 
  64233.9606     0.44043E-01 
  64266.2227     0.45722E-01 
  64298.4849     0.47448E-01 
  64330.7470     0.49221E-01 
  64363.0092     0.51042E-01 
  64395.2714     0.52912E-01 
  64427.5335     0.54830E-01 
  64459.7957     0.56799E-01 
  64492.0578     0.58819E-01 
  64524.3200     0.60891E-01 
  64556.5822     0.63015E-01 
  64588.8443     0.65193E-01 
  64621.1065     0.67426E-01 
  64653.3686     0.69714E-01 
  64685.6308     0.72058E-01 
  64717.8930     0.74459E-01 
  64750.1551     0.76918E-01 
  64782.4173     0.79437E-01 
  64814.6794     0.82016E-01 
  64846.9416     0.84655E-01 
  64879.2038     0.87357E-01 
  64911.4659     0.90122E-01 
  64943.7281     0.92952E-01 
  64975.9902     0.95847E-01 
  65008.2524     0.98808E-01 
  65040.5146     0.10184E+00 
  65072.7767     0.10493E+00 
  65105.0389     0.10810E+00 
  65137.3010     0.11134E+00 
  65169.5632     0.11465E+00 
  65201.8254     0.11804E+00 
  65234.0875     0.12150E+00 
  65266.3497     0.12503E+00 
  65298.6118     0.12864E+00 
  65330.8740     0.13234E+00 
  65363.1362     0.13611E+00 
  65395.3983     0.13996E+00 
  65427.6605     0.14390E+00 
  65459.9226     0.14792E+00 
  65492.1848     0.15202E+00 
  65524.4470     0.15621E+00 
  65556.7091     0.16050E+00 
  65588.9713     0.16487E+00 
  65621.2334     0.16933E+00 
  65653.4956     0.17389E+00 
  65685.7578     0.17854E+00 
  65718.0199     0.18329E+00 
  65750.2821     0.18813E+00 
  65782.5442     0.19308E+00 
  65814.8064     0.19813E+00 
  65847.0686     0.20328E+00 
  65879.3307     0.20853E+00 
  65911.5929     0.21389E+00 
  65943.8550     0.21937E+00 
  65976.1172     0.22495E+00 
  66008.3794     0.23064E+00 
  66040.6415     0.23645E+00 
  66072.9037     0.24237E+00 
  66105.1658     0.24841E+00 
  66137.4280     0.25458E+00 
  66169.6902     0.26086E+00 
  66201.9523     0.26727E+00 
  66234.2145     0.27380E+00 
  66266.4766     0.28047E+00 
  66298.7388     0.28726E+00 
  66331.0010     0.29419E+00 
  66363.2631     0.30125E+00 
  66395.5253     0.30845E+00 
  66427.7874     0.31578E+00 
  66460.0496     0.32326E+00 
  66492.3118     0.33089E+00 
  66524.5739     0.33866E+00 
  66556.8361     0.34658E+00 
  66589.0982     0.35465E+00 
  66621.3604     0.36287E+00 
  66653.6226     0.37125E+00 
  66685.8847     0.37979E+00 
  66718.1469     0.38849E+00 
  66750.4090     0.39736E+00 
  66782.6712     0.40639E+00 
  66814.9334     0.41559E+00 
  66847.1955     0.42497E+00 
  66879.4577     0.43452E+00 
  66911.7198     0.44424E+00 
  66943.9820     0.45415E+00 
  66976.2442     0.46424E+00 
  67008.5063     0.47452E+00 
  67040.7685     0.48499E+00 
  67073.0306     0.49565E+00 
  67105.2928     0.50651E+00 
  67137.5550     0.51756E+00 
  67169.8171     0.52882E+00 
  67202.0793     0.54028E+00 
  67234.3414     0.55195E+00 
  67266.6036     0.56383E+00 
  67298.8658     0.57593E+00 
  67331.1279     0.58824E+00 
  67363.3901     0.60078E+00 
  67395.6522     0.61354E+00 
  67427.9144     0.62653E+00 
  67460.1766     0.63975E+00 
  67492.4387     0.65321E+00 
  67524.7009     0.66690E+00 
  67556.9630     0.68084E+00 
  67589.2252     0.69502E+00 
  67621.4874     0.70946E+00 
  67653.7495     0.72415E+00 
  67686.0117     0.73909E+00 
  67718.2738     0.75430E+00 
  67750.5360     0.76977E+00 
  67782.7982     0.78551E+00 
  67815.0603     0.80153E+00 
  67847.3225     0.81782E+00 
  67879.5846     0.83439E+00 
  67911.8468     0.85125E+00 
  67944.1090     0.86840E+00 
  67976.3711     0.88584E+00 
  68008.6333     0.90357E+00 
  68040.8954     0.92161E+00 
  68073.1576     0.93996E+00 
  68105.4198     0.95862E+00 
  68137.6819     0.97759E+00 
  68169.9441     0.99688E+00 
  68202.2062     0.10165E+01 
  68234.4684     0.10364E+01 
  68266.7306     0.10567E+01 
  68298.9927     0.10773E+01 
  68331.2549     0.10983E+01 
  68363.5170     0.11196E+01 
  68395.7792     0.11413E+01 
  68428.0414     0.11633E+01 
  68460.3035     0.11856E+01 
  68492.5657     0.12084E+01 
  68524.8278     0.12315E+01 
  68557.0900     0.12550E+01 
  68589.3522     0.12788E+01 
  68621.6143     0.13031E+01 
  68653.8765     0.13277E+01 
  68686.1386     0.13528E+01 
  68718.4008     0.13782E+01 
  68750.6630     0.14041E+01 
  68782.9251     0.14303E+01 
  68815.1873     0.14570E+01 
  68847.4494     0.14841E+01 
  68879.7116     0.15116E+01 
  68911.9738     0.15396E+01 
  68944.2359     0.15680E+01 
  68976.4981     0.15968E+01 
  69008.7602     0.16261E+01 
  69041.0224     0.16558E+01 
  69073.2846     0.16861E+01 
  69105.5467     0.17167E+01 
  69137.8089     0.17479E+01 
  69170.0710     0.17795E+01 
  69202.3332     0.18116E+01 
  69234.5954     0.18442E+01 
  69266.8575     0.18773E+01 
  69299.1197     0.19108E+01 
  69331.3818     0.19449E+01 
  69363.6440     0.19795E+01 
  69395.9062     0.20146E+01 
  69428.1683     0.20503E+01 
  69460.4305     0.20865E+01 
  69492.6926     0.21232E+01 
  69524.9548     0.21604E+01 
  69557.2170     0.21982E+01 
  69589.4791     0.22365E+01 
  69621.7413     0.22754E+01 
  69654.0034     0.23149E+01 
  69686.2656     0.23550E+01 
  69718.5278     0.23956E+01 
  69750.7899     0.24368E+01 
  69783.0521     0.24786E+01 
  69815.3142     0.25210E+01 
  69847.5764     0.25640E+01 
  69879.8386     0.26076E+01 
  69912.1007     0.26518E+01 
  69944.3629     0.26966E+01 
  69976.6250     0.27421E+01 
  70008.8872     0.27882E+01 
  70041.1494     0.28349E+01 
  70073.4115     0.28823E+01 
  70105.6737     0.29303E+01 
  70137.9358     0.29790E+01 
  70170.1980     0.30284E+01 
  70202.4602     0.30784E+01 
  70234.7223     0.31291E+01 
  70266.9845     0.31805E+01 
  70299.2466     0.32326E+01 
  70331.5088     0.32854E+01 
  70363.7710     0.33388E+01 
  70396.0331     0.33930E+01 
  70428.2953     0.34479E+01 
  70460.5574     0.35036E+01 
  70492.8196     0.35599E+01 
  70525.0818     0.36170E+01 
  70557.3439     0.36748E+01 
  70589.6061     0.37334E+01 
  70621.8682     0.37928E+01 
  70654.1304     0.38528E+01 
  70686.3926     0.39137E+01 
  70718.6547     0.39753E+01 
  70750.9169     0.40377E+01 
  70783.1790     0.41009E+01 
  70815.4412     0.41649E+01 
  70847.7034     0.42297E+01 
  70879.9655     0.42953E+01 
  70912.2277     0.43617E+01 
  70944.4898     0.44289E+01 
  70976.7520     0.44969E+01 
  71009.0142     0.45658E+01 
  71041.2763     0.46355E+01 
  71073.5385     0.47060E+01 
  71105.8006     0.47774E+01 
  71138.0628     0.48497E+01 
  71170.3250     0.49228E+01 
  71202.5871     0.49967E+01 
  71234.8493     0.50715E+01 
  71267.1114     0.51472E+01 
  71299.3736     0.52238E+01 
  71331.6358     0.53013E+01 
  71363.8979     0.53797E+01 
  71396.1601     0.54589E+01 
  71428.4222     0.55391E+01 
  71460.6844     0.56202E+01 
  71492.9466     0.57022E+01 
  71525.2087     0.57851E+01 
  71557.4709     0.58689E+01 
  71589.7330     0.59537E+01 
  71621.9952     0.60394E+01 
  71654.2574     0.61260E+01 
  71686.5195     0.62136E+01 
  71718.7817     0.63021E+01 
  71751.0438     0.63916E+01 
  71783.3060     0.64821E+01 
  71815.5682     0.65735E+01 
  71847.8303     0.66659E+01 
  71880.0925     0.67593E+01 
  71912.3546     0.68536E+01 
  71944.6168     0.69490E+01 
  71976.8790     0.70453E+01 
  72009.1411     0.71426E+01 
  72041.4033     0.72410E+01 
  72073.6654     0.73403E+01 
  72105.9276     0.74406E+01 
  72138.1898     0.75419E+01 
  72170.4519     0.76443E+01 
  72202.7141     0.77477E+01 
  72234.9762     0.78521E+01 
  72267.2384     0.79575E+01 
  72299.5006     0.80639E+01 
  72331.7627     0.81714E+01 
  72364.0249     0.82799E+01 
  72396.2870     0.83895E+01 
  72428.5492     0.85001E+01 
  72460.8114     0.86117E+01 
  72493.0735     0.87244E+01 
  72525.3357     0.88382E+01 
  72557.5978     0.89530E+01 
  72589.8600     0.90688E+01 
