  32262.1600     0.41762E+02 
  32294.4222     0.42261E+02 
  32326.6843     0.42763E+02 
  32358.9465     0.43270E+02 
  32391.2086     0.43781E+02 
  32423.4708     0.44296E+02 
  32455.7330     0.44814E+02 
  32487.9951     0.45337E+02 
  32520.2573     0.45864E+02 
  32552.5194     0.46394E+02 
  32584.7816     0.46929E+02 
  32617.0438     0.47467E+02 
  32649.3059     0.48009E+02 
  32681.5681     0.48555E+02 
  32713.8302     0.49106E+02 
  32746.0924     0.49660E+02 
  32778.3546     0.50218E+02 
  32810.6167     0.50779E+02 
  32842.8789     0.51345E+02 
  32875.1410     0.51915E+02 
  32907.4032     0.52489E+02 
  32939.6654     0.53066E+02 
  32971.9275     0.53647E+02 
  33004.1897     0.54233E+02 
  33036.4518     0.54822E+02 
  33068.7140     0.55415E+02 
  33100.9762     0.56011E+02 
  33133.2383     0.56612E+02 
  33165.5005     0.57216E+02 
  33197.7626     0.57825E+02 
  33230.0248     0.58437E+02 
  33262.2870     0.59053E+02 
  33294.5491     0.59672E+02 
  33326.8113     0.60295E+02 
  33359.0734     0.60923E+02 
  33391.3356     0.61553E+02 
  33423.5978     0.62188E+02 
  33455.8599     0.62826E+02 
  33488.1221     0.63468E+02 
  33520.3842     0.64114E+02 
  33552.6464     0.64763E+02 
  33584.9086     0.65416E+02 
  33617.1707     0.66072E+02 
  33649.4329     0.66732E+02 
  33681.6950     0.67396E+02 
  33713.9572     0.68063E+02 
  33746.2194     0.68734E+02 
  33778.4815     0.69408E+02 
  33810.7437     0.70086E+02 
  33843.0058     0.70767E+02 
  33875.2680     0.71451E+02 
  33907.5302     0.72139E+02 
  33939.7923     0.72831E+02 
  33972.0545     0.73526E+02 
  34004.3166     0.74224E+02 
  34036.5788     0.74925E+02 
  34068.8410     0.75630E+02 
  34101.1031     0.76338E+02 
  34133.3653     0.77049E+02 
  34165.6274     0.77764E+02 
  34197.8896     0.78482E+02 
  34230.1518     0.79202E+02 
  34262.4139     0.79926E+02 
  34294.6761     0.80654E+02 
  34326.9382     0.81384E+02 
  34359.2004     0.82117E+02 
  34391.4626     0.82853E+02 
  34423.7247     0.83592E+02 
  34455.9869     0.84334E+02 
  34488.2490     0.85079E+02 
  34520.5112     0.85827E+02 
  34552.7734     0.86578E+02 
  34585.0355     0.87332E+02 
  34617.2977     0.88088E+02 
  34649.5598     0.88847E+02 
  34681.8220     0.89609E+02 
  34714.0842     0.90373E+02 
  34746.3463     0.91140E+02 
  34778.6085     0.91910E+02 
  34810.8706     0.92682E+02 
  34843.1328     0.93457E+02 
  34875.3950     0.94234E+02 
  34907.6571     0.95013E+02 
  34939.9193     0.95795E+02 
  34972.1814     0.96580E+02 
  35004.4436     0.97367E+02 
  35036.7058     0.98156E+02 
  35068.9679     0.98947E+02 
  35101.2301     0.99740E+02 
  35133.4922     0.10054E+03 
  35165.7544     0.10133E+03 
  35198.0166     0.10213E+03 
  35230.2787     0.10293E+03 
  35262.5409     0.10374E+03 
  35294.8030     0.10454E+03 
  35327.0652     0.10535E+03 
  35359.3274     0.10616E+03 
  35391.5895     0.10697E+03 
  35423.8517     0.10778E+03 
  35456.1138     0.10860E+03 
  35488.3760     0.10942E+03 
  35520.6382     0.11023E+03 
  35552.9003     0.11105E+03 
  35585.1625     0.11187E+03 
  35617.4246     0.11270E+03 
  35649.6868     0.11352E+03 
  35681.9490     0.11434E+03 
  35714.2111     0.11517E+03 
  35746.4733     0.11600E+03 
  35778.7354     0.11683E+03 
  35810.9976     0.11766E+03 
  35843.2598     0.11849E+03 
  35875.5219     0.11932E+03 
  35907.7841     0.12015E+03 
  35940.0462     0.12099E+03 
  35972.3084     0.12182E+03 
  36004.5706     0.12266E+03 
  36036.8327     0.12350E+03 
  36069.0949     0.12433E+03 
  36101.3570     0.12517E+03 
  36133.6192     0.12601E+03 
  36165.8814     0.12685E+03 
  36198.1435     0.12769E+03 
  36230.4057     0.12853E+03 
  36262.6678     0.12937E+03 
  36294.9300     0.13021E+03 
  36327.1922     0.13105E+03 
  36359.4543     0.13190E+03 
  36391.7165     0.13274E+03 
  36423.9786     0.13358E+03 
  36456.2408     0.13442E+03 
  36488.5030     0.13526E+03 
  36520.7651     0.13611E+03 
  36553.0273     0.13695E+03 
  36585.2894     0.13779E+03 
  36617.5516     0.13863E+03 
  36649.8138     0.13947E+03 
  36682.0759     0.14031E+03 
  36714.3381     0.14115E+03 
  36746.6002     0.14199E+03 
  36778.8624     0.14283E+03 
  36811.1246     0.14367E+03 
  36843.3867     0.14451E+03 
  36875.6489     0.14535E+03 
  36907.9110     0.14619E+03 
  36940.1732     0.14702E+03 
  36972.4354     0.14786E+03 
  37004.6975     0.14869E+03 
  37036.9597     0.14953E+03 
  37069.2218     0.15036E+03 
  37101.4840     0.15119E+03 
  37133.7462     0.15202E+03 
  37166.0083     0.15285E+03 
  37198.2705     0.15368E+03 
  37230.5326     0.15450E+03 
  37262.7948     0.15533E+03 
  37295.0570     0.15615E+03 
  37327.3191     0.15698E+03 
  37359.5813     0.15780E+03 
  37391.8434     0.15862E+03 
  37424.1056     0.15943E+03 
  37456.3678     0.16025E+03 
  37488.6299     0.16106E+03 
  37520.8921     0.16188E+03 
  37553.1542     0.16269E+03 
  37585.4164     0.16349E+03 
  37617.6786     0.16430E+03 
  37649.9407     0.16510E+03 
  37682.2029     0.16591E+03 
  37714.4650     0.16671E+03 
  37746.7272     0.16750E+03 
  37778.9894     0.16830E+03 
  37811.2515     0.16909E+03 
  37843.5137     0.16988E+03 
  37875.7758     0.17067E+03 
  37908.0380     0.17146E+03 
  37940.3002     0.17224E+03 
  37972.5623     0.17302E+03 
  38004.8245     0.17380E+03 
  38037.0866     0.17457E+03 
  38069.3488     0.17534E+03 
  38101.6110     0.17611E+03 
  38133.8731     0.17688E+03 
  38166.1353     0.17764E+03 
  38198.3974     0.17840E+03 
  38230.6596     0.17916E+03 
  38262.9218     0.17991E+03 
  38295.1839     0.18066E+03 
  38327.4461     0.18141E+03 
  38359.7082     0.18215E+03 
  38391.9704     0.18289E+03 
  38424.2326     0.18363E+03 
  38456.4947     0.18437E+03 
  38488.7569     0.18510E+03 
  38521.0190     0.18582E+03 
  38553.2812     0.18654E+03 
  38585.5434     0.18726E+03 
  38617.8055     0.18798E+03 
  38650.0677     0.18869E+03 
  38682.3298     0.18940E+03 
  38714.5920     0.19010E+03 
  38746.8542     0.19080E+03 
  38779.1163     0.19150E+03 
  38811.3785     0.19219E+03 
  38843.6406     0.19288E+03 
  38875.9028     0.19356E+03 
  38908.1650     0.19424E+03 
  38940.4271     0.19492E+03 
  38972.6893     0.19559E+03 
  39004.9514     0.19625E+03 
  39037.2136     0.19691E+03 
  39069.4758     0.19757E+03 
  39101.7379     0.19823E+03 
  39134.0001     0.19887E+03 
  39166.2622     0.19952E+03 
  39198.5244     0.20016E+03 
  39230.7866     0.20079E+03 
  39263.0487     0.20142E+03 
  39295.3109     0.20205E+03 
  39327.5730     0.20267E+03 
  39359.8352     0.20328E+03 
  39392.0974     0.20389E+03 
  39424.3595     0.20450E+03 
  39456.6217     0.20510E+03 
  39488.8838     0.20569E+03 
  39521.1460     0.20629E+03 
  39553.4082     0.20687E+03 
  39585.6703     0.20745E+03 
  39617.9325     0.20803E+03 
  39650.1946     0.20860E+03 
  39682.4568     0.20916E+03 
  39714.7190     0.20972E+03 
  39746.9811     0.21027E+03 
  39779.2433     0.21082E+03 
  39811.5054     0.21136E+03 
  39843.7676     0.21190E+03 
  39876.0298     0.21243E+03 
  39908.2919     0.21296E+03 
  39940.5541     0.21348E+03 
  39972.8162     0.21400E+03 
  40005.0784     0.21451E+03 
  40037.3406     0.21501E+03 
  40069.6027     0.21551E+03 
  40101.8649     0.21600E+03 
  40134.1270     0.21649E+03 
  40166.3892     0.21697E+03 
  40198.6514     0.21745E+03 
  40230.9135     0.21791E+03 
  40263.1757     0.21838E+03 
  40295.4378     0.21884E+03 
  40327.7000     0.21929E+03 
  40359.9622     0.21973E+03 
  40392.2243     0.22017E+03 
  40424.4865     0.22061E+03 
  40456.7486     0.22103E+03 
  40489.0108     0.22146E+03 
  40521.2730     0.22187E+03 
  40553.5351     0.22228E+03 
  40585.7973     0.22268E+03 
  40618.0594     0.22308E+03 
  40650.3216     0.22347E+03 
  40682.5838     0.22386E+03 
  40714.8459     0.22423E+03 
  40747.1081     0.22461E+03 
  40779.3702     0.22497E+03 
  40811.6324     0.22533E+03 
  40843.8946     0.22569E+03 
  40876.1567     0.22603E+03 
  40908.4189     0.22637E+03 
  40940.6810     0.22671E+03 
  40972.9432     0.22703E+03 
  41005.2054     0.22736E+03 
  41037.4675     0.22767E+03 
  41069.7297     0.22798E+03 
  41101.9918     0.22828E+03 
  41134.2540     0.22858E+03 
  41166.5162     0.22887E+03 
  41198.7783     0.22915E+03 
  41231.0405     0.22942E+03 
  41263.3026     0.22969E+03 
  41295.5648     0.22996E+03 
  41327.8270     0.23021E+03 
  41360.0891     0.23046E+03 
  41392.3513     0.23071E+03 
  41424.6134     0.23094E+03 
  41456.8756     0.23117E+03 
  41489.1378     0.23140E+03 
  41521.3999     0.23161E+03 
  41553.6621     0.23182E+03 
  41585.9242     0.23203E+03 
  41618.1864     0.23223E+03 
  41650.4486     0.23242E+03 
  41682.7107     0.23260E+03 
  41714.9729     0.23278E+03 
  41747.2350     0.23295E+03 
  41779.4972     0.23311E+03 
  41811.7594     0.23327E+03 
  41844.0215     0.23342E+03 
  41876.2837     0.23357E+03 
  41908.5458     0.23370E+03 
  41940.8080     0.23383E+03 
  41973.0702     0.23396E+03 
  42005.3323     0.23408E+03 
  42037.5945     0.23419E+03 
  42069.8566     0.23429E+03 
  42102.1188     0.23439E+03 
  42134.3810     0.23448E+03 
  42166.6431     0.23457E+03 
  42198.9053     0.23464E+03 
  42231.1674     0.23471E+03 
  42263.4296     0.23478E+03 
  42295.6918     0.23484E+03 
  42327.9539     0.23489E+03 
  42360.2161     0.23493E+03 
  42392.4782     0.23497E+03 
  42424.7404     0.23500E+03 
  42457.0026     0.23503E+03 
  42489.2647     0.23505E+03 
  42521.5269     0.23506E+03 
  42553.7890     0.23507E+03 
  42586.0512     0.23507E+03 
  42618.3134     0.23506E+03 
  42650.5755     0.23504E+03 
  42682.8377     0.23502E+03 
  42715.0998     0.23500E+03 
  42747.3620     0.23497E+03 
  42779.6242     0.23493E+03 
  42811.8863     0.23488E+03 
  42844.1485     0.23483E+03 
  42876.4106     0.23477E+03 
  42908.6728     0.23470E+03 
  42940.9350     0.23463E+03 
  42973.1971     0.23455E+03 
  43005.4593     0.23447E+03 
  43037.7214     0.23438E+03 
  43069.9836     0.23428E+03 
  43102.2458     0.23418E+03 
  43134.5079     0.23407E+03 
  43166.7701     0.23396E+03 
  43199.0322     0.23383E+03 
  43231.2944     0.23371E+03 
  43263.5566     0.23357E+03 
  43295.8187     0.23343E+03 
  43328.0809     0.23329E+03 
  43360.3430     0.23313E+03 
  43392.6052     0.23298E+03 
  43424.8674     0.23281E+03 
  43457.1295     0.23264E+03 
  43489.3917     0.23246E+03 
  43521.6538     0.23228E+03 
  43553.9160     0.23209E+03 
  43586.1782     0.23190E+03 
  43618.4403     0.23170E+03 
  43650.7025     0.23149E+03 
  43682.9646     0.23128E+03 
  43715.2268     0.23106E+03 
  43747.4890     0.23084E+03 
  43779.7511     0.23061E+03 
  43812.0133     0.23038E+03 
  43844.2754     0.23013E+03 
  43876.5376     0.22989E+03 
  43908.7998     0.22964E+03 
  43941.0619     0.22938E+03 
  43973.3241     0.22912E+03 
  44005.5862     0.22885E+03 
  44037.8484     0.22857E+03 
  44070.1106     0.22829E+03 
  44102.3727     0.22801E+03 
  44134.6349     0.22772E+03 
  44166.8970     0.22742E+03 
  44199.1592     0.22712E+03 
  44231.4214     0.22681E+03 
  44263.6835     0.22650E+03 
  44295.9457     0.22618E+03 
  44328.2078     0.22586E+03 
  44360.4700     0.22553E+03 
  44392.7322     0.22520E+03 
  44424.9943     0.22486E+03 
  44457.2565     0.22452E+03 
  44489.5186     0.22417E+03 
  44521.7808     0.22381E+03 
  44554.0430     0.22346E+03 
  44586.3051     0.22309E+03 
  44618.5673     0.22272E+03 
  44650.8294     0.22235E+03 
  44683.0916     0.22197E+03 
  44715.3538     0.22159E+03 
  44747.6159     0.22120E+03 
  44779.8781     0.22081E+03 
  44812.1402     0.22041E+03 
  44844.4024     0.22001E+03 
  44876.6646     0.21960E+03 
  44908.9267     0.21919E+03 
  44941.1889     0.21878E+03 
  44973.4510     0.21835E+03 
  45005.7132     0.21793E+03 
  45037.9754     0.21750E+03 
  45070.2375     0.21707E+03 
  45102.4997     0.21663E+03 
  45134.7618     0.21619E+03 
  45167.0240     0.21574E+03 
  45199.2862     0.21529E+03 
  45231.5483     0.21483E+03 
  45263.8105     0.21437E+03 
  45296.0726     0.21391E+03 
  45328.3348     0.21344E+03 
  45360.5970     0.21297E+03 
  45392.8591     0.21249E+03 
  45425.1213     0.21201E+03 
  45457.3834     0.21153E+03 
  45489.6456     0.21104E+03 
  45521.9078     0.21055E+03 
  45554.1699     0.21006E+03 
  45586.4321     0.20956E+03 
  45618.6942     0.20905E+03 
  45650.9564     0.20855E+03 
  45683.2186     0.20804E+03 
  45715.4807     0.20752E+03 
  45747.7429     0.20701E+03 
  45780.0050     0.20648E+03 
  45812.2672     0.20596E+03 
  45844.5294     0.20543E+03 
  45876.7915     0.20490E+03 
  45909.0537     0.20437E+03 
  45941.3158     0.20383E+03 
  45973.5780     0.20329E+03 
  46005.8402     0.20274E+03 
  46038.1023     0.20219E+03 
  46070.3645     0.20164E+03 
  46102.6266     0.20109E+03 
  46134.8888     0.20053E+03 
  46167.1510     0.19997E+03 
  46199.4131     0.19941E+03 
  46231.6753     0.19884E+03 
  46263.9374     0.19827E+03 
  46296.1996     0.19770E+03 
  46328.4618     0.19712E+03 
  46360.7239     0.19654E+03 
  46392.9861     0.19596E+03 
  46425.2482     0.19538E+03 
  46457.5104     0.19479E+03 
  46489.7726     0.19420E+03 
  46522.0347     0.19361E+03 
  46554.2969     0.19302E+03 
  46586.5590     0.19242E+03 
  46618.8212     0.19182E+03 
  46651.0834     0.19122E+03 
  46683.3455     0.19062E+03 
  46715.6077     0.19001E+03 
  46747.8698     0.18940E+03 
  46780.1320     0.18879E+03 
  46812.3942     0.18818E+03 
  46844.6563     0.18756E+03 
  46876.9185     0.18695E+03 
  46909.1806     0.18633E+03 
  46941.4428     0.18570E+03 
  46973.7050     0.18508E+03 
  47005.9671     0.18446E+03 
  47038.2293     0.18383E+03 
  47070.4914     0.18320E+03 
  47102.7536     0.18257E+03 
  47135.0158     0.18193E+03 
  47167.2779     0.18130E+03 
  47199.5401     0.18066E+03 
  47231.8022     0.18002E+03 
  47264.0644     0.17938E+03 
  47296.3266     0.17874E+03 
  47328.5887     0.17810E+03 
  47360.8509     0.17745E+03 
  47393.1130     0.17680E+03 
  47425.3752     0.17616E+03 
  47457.6374     0.17551E+03 
  47489.8995     0.17486E+03 
  47522.1617     0.17420E+03 
  47554.4238     0.17355E+03 
  47586.6860     0.17289E+03 
  47618.9482     0.17224E+03 
  47651.2103     0.17158E+03 
  47683.4725     0.17092E+03 
  47715.7346     0.17026E+03 
  47747.9968     0.16960E+03 
  47780.2590     0.16894E+03 
  47812.5211     0.16827E+03 
  47844.7833     0.16761E+03 
  47877.0454     0.16695E+03 
  47909.3076     0.16628E+03 
  47941.5698     0.16561E+03 
  47973.8319     0.16494E+03 
  48006.0941     0.16428E+03 
  48038.3562     0.16361E+03 
  48070.6184     0.16294E+03 
  48102.8806     0.16227E+03 
  48135.1427     0.16159E+03 
  48167.4049     0.16092E+03 
  48199.6670     0.16025E+03 
  48231.9292     0.15957E+03 
  48264.1914     0.15890E+03 
  48296.4535     0.15823E+03 
  48328.7157     0.15755E+03 
  48360.9778     0.15688E+03 
  48393.2400     0.15620E+03 
  48425.5022     0.15552E+03 
  48457.7643     0.15485E+03 
  48490.0265     0.15417E+03 
  48522.2886     0.15349E+03 
  48554.5508     0.15282E+03 
  48586.8130     0.15214E+03 
  48619.0751     0.15146E+03 
  48651.3373     0.15078E+03 
  48683.5994     0.15010E+03 
  48715.8616     0.14943E+03 
  48748.1238     0.14875E+03 
  48780.3859     0.14807E+03 
  48812.6481     0.14739E+03 
  48844.9102     0.14671E+03 
  48877.1724     0.14603E+03 
  48909.4346     0.14536E+03 
  48941.6967     0.14468E+03 
  48973.9589     0.14400E+03 
  49006.2210     0.14332E+03 
  49038.4832     0.14265E+03 
  49070.7454     0.14197E+03 
  49103.0075     0.14129E+03 
  49135.2697     0.14062E+03 
  49167.5318     0.13994E+03 
  49199.7940     0.13926E+03 
  49232.0562     0.13859E+03 
  49264.3183     0.13791E+03 
  49296.5805     0.13724E+03 
  49328.8426     0.13656E+03 
  49361.1048     0.13589E+03 
  49393.3670     0.13522E+03 
  49425.6291     0.13454E+03 
  49457.8913     0.13387E+03 
  49490.1534     0.13320E+03 
  49522.4156     0.13253E+03 
  49554.6778     0.13186E+03 
  49586.9399     0.13119E+03 
  49619.2021     0.13052E+03 
  49651.4642     0.12985E+03 
  49683.7264     0.12919E+03 
  49715.9886     0.12852E+03 
  49748.2507     0.12785E+03 
  49780.5129     0.12719E+03 
  49812.7750     0.12653E+03 
  49845.0372     0.12586E+03 
  49877.2994     0.12520E+03 
  49909.5615     0.12454E+03 
  49941.8237     0.12388E+03 
  49974.0858     0.12322E+03 
  50006.3480     0.12256E+03 
  50038.6102     0.12190E+03 
  50070.8723     0.12125E+03 
  50103.1345     0.12059E+03 
  50135.3966     0.11994E+03 
  50167.6588     0.11929E+03 
  50199.9210     0.11863E+03 
  50232.1831     0.11798E+03 
  50264.4453     0.11733E+03 
  50296.7074     0.11668E+03 
  50328.9696     0.11604E+03 
  50361.2318     0.11539E+03 
  50393.4939     0.11475E+03 
  50425.7561     0.11410E+03 
  50458.0182     0.11346E+03 
  50490.2804     0.11282E+03 
  50522.5426     0.11218E+03 
  50554.8047     0.11154E+03 
  50587.0669     0.11090E+03 
  50619.3290     0.11027E+03 
  50651.5912     0.10963E+03 
  50683.8534     0.10900E+03 
  50716.1155     0.10837E+03 
  50748.3777     0.10774E+03 
  50780.6398     0.10711E+03 
  50812.9020     0.10648E+03 
  50845.1642     0.10586E+03 
  50877.4263     0.10523E+03 
  50909.6885     0.10461E+03 
  50941.9506     0.10399E+03 
  50974.2128     0.10337E+03 
  51006.4750     0.10275E+03 
  51038.7371     0.10214E+03 
  51070.9993     0.10152E+03 
  51103.2614     0.10091E+03 
  51135.5236     0.10030E+03 
  51167.7858     0.99687E+02 
  51200.0479     0.99079E+02 
  51232.3101     0.98472E+02 
  51264.5722     0.97867E+02 
  51296.8344     0.97264E+02 
  51329.0966     0.96662E+02 
  51361.3587     0.96063E+02 
  51393.6209     0.95465E+02 
  51425.8830     0.94868E+02 
  51458.1452     0.94274E+02 
  51490.4074     0.93681E+02 
  51522.6695     0.93090E+02 
  51554.9317     0.92501E+02 
  51587.1938     0.91913E+02 
  51619.4560     0.91328E+02 
  51651.7182     0.90744E+02 
  51683.9803     0.90162E+02 
  51716.2425     0.89582E+02 
  51748.5046     0.89004E+02 
  51780.7668     0.88427E+02 
  51813.0290     0.87853E+02 
  51845.2911     0.87280E+02 
  51877.5533     0.86709E+02 
  51909.8154     0.86140E+02 
  51942.0776     0.85573E+02 
  51974.3398     0.85008E+02 
  52006.6019     0.84445E+02 
  52038.8641     0.83884E+02 
  52071.1262     0.83325E+02 
  52103.3884     0.82768E+02 
  52135.6506     0.82212E+02 
  52167.9127     0.81659E+02 
  52200.1749     0.81108E+02 
  52232.4370     0.80558E+02 
  52264.6992     0.80011E+02 
  52296.9614     0.79466E+02 
  52329.2235     0.78922E+02 
  52361.4857     0.78381E+02 
  52393.7478     0.77841E+02 
  52426.0100     0.77304E+02 
  52458.2722     0.76769E+02 
  52490.5343     0.76235E+02 
  52522.7965     0.75704E+02 
  52555.0586     0.75175E+02 
  52587.3208     0.74648E+02 
  52619.5830     0.74123E+02 
  52651.8451     0.73600E+02 
  52684.1073     0.73079E+02 
  52716.3694     0.72560E+02 
  52748.6316     0.72043E+02 
  52780.8938     0.71528E+02 
  52813.1559     0.71016E+02 
  52845.4181     0.70505E+02 
  52877.6802     0.69997E+02 
  52909.9424     0.69490E+02 
  52942.2046     0.68986E+02 
  52974.4667     0.68484E+02 
  53006.7289     0.67984E+02 
  53038.9910     0.67486E+02 
  53071.2532     0.66990E+02 
  53103.5154     0.66496E+02 
  53135.7775     0.66005E+02 
  53168.0397     0.65515E+02 
  53200.3018     0.65028E+02 
  53232.5640     0.64542E+02 
  53264.8262     0.64059E+02 
  53297.0883     0.63578E+02 
  53329.3505     0.63099E+02 
  53361.6126     0.62623E+02 
  53393.8748     0.62148E+02 
  53426.1370     0.61675E+02 
  53458.3991     0.61205E+02 
  53490.6613     0.60737E+02 
  53522.9234     0.60271E+02 
  53555.1856     0.59807E+02 
  53587.4478     0.59345E+02 
  53619.7099     0.58885E+02 
  53651.9721     0.58428E+02 
  53684.2342     0.57972E+02 
  53716.4964     0.57519E+02 
  53748.7586     0.57068E+02 
  53781.0207     0.56619E+02 
  53813.2829     0.56172E+02 
  53845.5450     0.55727E+02 
  53877.8072     0.55284E+02 
  53910.0694     0.54844E+02 
  53942.3315     0.54406E+02 
  53974.5937     0.53969E+02 
  54006.8558     0.53535E+02 
  54039.1180     0.53103E+02 
  54071.3802     0.52674E+02 
  54103.6423     0.52246E+02 
  54135.9045     0.51820E+02 
  54168.1666     0.51397E+02 
  54200.4288     0.50976E+02 
  54232.6910     0.50556E+02 
  54264.9531     0.50139E+02 
  54297.2153     0.49724E+02 
  54329.4774     0.49311E+02 
  54361.7396     0.48901E+02 
  54394.0018     0.48492E+02 
  54426.2639     0.48085E+02 
  54458.5261     0.47681E+02 
  54490.7882     0.47279E+02 
  54523.0504     0.46879E+02 
  54555.3126     0.46480E+02 
  54587.5747     0.46084E+02 
  54619.8369     0.45690E+02 
  54652.0990     0.45299E+02 
  54684.3612     0.44909E+02 
  54716.6234     0.44521E+02 
  54748.8855     0.44136E+02 
  54781.1477     0.43752E+02 
  54813.4098     0.43371E+02 
  54845.6720     0.42991E+02 
  54877.9342     0.42614E+02 
  54910.1963     0.42239E+02 
  54942.4585     0.41866E+02 
  54974.7206     0.41494E+02 
  55006.9828     0.41125E+02 
  55039.2450     0.40758E+02 
  55071.5071     0.40393E+02 
  55103.7693     0.40030E+02 
  55136.0314     0.39669E+02 
  55168.2936     0.39310E+02 
  55200.5558     0.38954E+02 
  55232.8179     0.38599E+02 
  55265.0801     0.38246E+02 
  55297.3422     0.37895E+02 
  55329.6044     0.37546E+02 
  55361.8666     0.37199E+02 
  55394.1287     0.36855E+02 
  55426.3909     0.36512E+02 
  55458.6530     0.36171E+02 
  55490.9152     0.35832E+02 
  55523.1774     0.35495E+02 
  55555.4395     0.35160E+02 
  55587.7017     0.34828E+02 
  55619.9638     0.34497E+02 
  55652.2260     0.34168E+02 
  55684.4882     0.33841E+02 
  55716.7503     0.33515E+02 
  55749.0125     0.33192E+02 
  55781.2746     0.32871E+02 
  55813.5368     0.32552E+02 
  55845.7990     0.32234E+02 
  55878.0611     0.31919E+02 
  55910.3233     0.31605E+02 
  55942.5854     0.31294E+02 
  55974.8476     0.30984E+02 
  56007.1098     0.30676E+02 
  56039.3719     0.30371E+02 
  56071.6341     0.30067E+02 
  56103.8962     0.29764E+02 
  56136.1584     0.29464E+02 
  56168.4206     0.29166E+02 
  56200.6827     0.28869E+02 
  56232.9449     0.28575E+02 
  56265.2070     0.28282E+02 
  56297.4692     0.27991E+02 
  56329.7314     0.27702E+02 
  56361.9935     0.27415E+02 
  56394.2557     0.27129E+02 
  56426.5178     0.26846E+02 
  56458.7800     0.26564E+02 
  56491.0422     0.26284E+02 
  56523.3043     0.26006E+02 
  56555.5665     0.25729E+02 
  56587.8286     0.25455E+02 
  56620.0908     0.25182E+02 
  56652.3530     0.24911E+02 
  56684.6151     0.24642E+02 
  56716.8773     0.24374E+02 
  56749.1394     0.24109E+02 
  56781.4016     0.23845E+02 
  56813.6638     0.23583E+02 
  56845.9259     0.23322E+02 
  56878.1881     0.23064E+02 
  56910.4502     0.22807E+02 
  56942.7124     0.22552E+02 
  56974.9746     0.22298E+02 
  57007.2367     0.22046E+02 
  57039.4989     0.21796E+02 
  57071.7610     0.21548E+02 
  57104.0232     0.21301E+02 
  57136.2854     0.21056E+02 
  57168.5475     0.20813E+02 
  57200.8097     0.20572E+02 
  57233.0718     0.20332E+02 
  57265.3340     0.20094E+02 
  57297.5962     0.19857E+02 
  57329.8583     0.19622E+02 
  57362.1205     0.19389E+02 
  57394.3826     0.19157E+02 
  57426.6448     0.18927E+02 
  57458.9070     0.18699E+02 
  57491.1691     0.18472E+02 
  57523.4313     0.18247E+02 
  57555.6934     0.18024E+02 
  57587.9556     0.17802E+02 
  57620.2178     0.17582E+02 
  57652.4799     0.17363E+02 
  57684.7421     0.17146E+02 
  57717.0042     0.16931E+02 
  57749.2664     0.16717E+02 
  57781.5286     0.16505E+02 
  57813.7907     0.16294E+02 
  57846.0529     0.16085E+02 
  57878.3150     0.15877E+02 
  57910.5772     0.15671E+02 
  57942.8394     0.15467E+02 
  57975.1015     0.15264E+02 
  58007.3637     0.15062E+02 
  58039.6258     0.14863E+02 
  58071.8880     0.14664E+02 
  58104.1502     0.14467E+02 
  58136.4123     0.14272E+02 
  58168.6745     0.14078E+02 
  58200.9366     0.13886E+02 
  58233.1988     0.13695E+02 
  58265.4610     0.13506E+02 
  58297.7231     0.13318E+02 
  58329.9853     0.13132E+02 
  58362.2474     0.12947E+02 
  58394.5096     0.12764E+02 
  58426.7718     0.12582E+02 
  58459.0339     0.12401E+02 
  58491.2961     0.12222E+02 
  58523.5582     0.12045E+02 
  58555.8204     0.11869E+02 
  58588.0826     0.11694E+02 
  58620.3447     0.11521E+02 
  58652.6069     0.11349E+02 
  58684.8690     0.11179E+02 
  58717.1312     0.11010E+02 
  58749.3934     0.10842E+02 
  58781.6555     0.10676E+02 
  58813.9177     0.10512E+02 
  58846.1798     0.10348E+02 
  58878.4420     0.10187E+02 
  58910.7042     0.10026E+02 
  58942.9663     0.98671E+01 
  58975.2285     0.97095E+01 
  59007.4906     0.95532E+01 
  59039.7528     0.93983E+01 
  59072.0150     0.92448E+01 
  59104.2771     0.90927E+01 
  59136.5393     0.89419E+01 
  59168.8014     0.87926E+01 
  59201.0636     0.86445E+01 
  59233.3258     0.84979E+01 
  59265.5879     0.83526E+01 
  59297.8501     0.82086E+01 
  59330.1122     0.80660E+01 
  59362.3744     0.79248E+01 
  59394.6366     0.77849E+01 
  59426.8987     0.76463E+01 
  59459.1609     0.75091E+01 
  59491.4230     0.73732E+01 
  59523.6852     0.72386E+01 
  59555.9474     0.71054E+01 
  59588.2095     0.69735E+01 
  59620.4717     0.68429E+01 
  59652.7338     0.67137E+01 
  59684.9960     0.65857E+01 
  59717.2582     0.64591E+01 
  59749.5203     0.63338E+01 
  59781.7825     0.62098E+01 
  59814.0446     0.60872E+01 
  59846.3068     0.59658E+01 
  59878.5690     0.58458E+01 
  59910.8311     0.57270E+01 
  59943.0933     0.56096E+01 
  59975.3554     0.54935E+01 
  60007.6176     0.53787E+01 
  60039.8798     0.52651E+01 
  60072.1419     0.51529E+01 
  60104.4041     0.50420E+01 
  60136.6662     0.49324E+01 
  60168.9284     0.48241E+01 
  60201.1906     0.47171E+01 
  60233.4527     0.46113E+01 
  60265.7149     0.45069E+01 
  60297.9770     0.44038E+01 
  60330.2392     0.43020E+01 
  60362.5014     0.42015E+01 
  60394.7635     0.41022E+01 
  60427.0257     0.40043E+01 
  60459.2878     0.39077E+01 
  60491.5500     0.38124E+01 
  60523.8122     0.37184E+01 
  60556.0743     0.36257E+01 
  60588.3365     0.35343E+01 
  60620.5986     0.34442E+01 
  60652.8608     0.33554E+01 
  60685.1230     0.32679E+01 
  60717.3851     0.31818E+01 
  60749.6473     0.30969E+01 
  60781.9094     0.30134E+01 
  60814.1716     0.29312E+01 
  60846.4338     0.28503E+01 
  60878.6959     0.27707E+01 
  60910.9581     0.26925E+01 
  60943.2202     0.26156E+01 
  60975.4824     0.25400E+01 
  61007.7446     0.24658E+01 
  61040.0067     0.23929E+01 
  61072.2689     0.23214E+01 
  61104.5310     0.22512E+01 
  61136.7932     0.21824E+01 
  61169.0554     0.21149E+01 
  61201.3175     0.20488E+01 
  61233.5797     0.19841E+01 
  61265.8418     0.19208E+01 
  61298.1040     0.18588E+01 
  61330.3662     0.17982E+01 
  61362.6283     0.17390E+01 
  61394.8905     0.16812E+01 
  61427.1526     0.16249E+01 
  61459.4148     0.15699E+01 
  61491.6770     0.15164E+01 
  61523.9391     0.14643E+01 
  61556.2013     0.14136E+01 
  61588.4634     0.13644E+01 
  61620.7256     0.13166E+01 
  61652.9878     0.12703E+01 
  61685.2499     0.12255E+01 
  61717.5121     0.11821E+01 
  61749.7742     0.11402E+01 
  61782.0364     0.10999E+01 
  61814.2986     0.10610E+01 
  61846.5607     0.10237E+01 
  61878.8229     0.98786E+00 
  61911.0850     0.95359E+00 
  61943.3472     0.92088E+00 
  61975.6094     0.88974E+00 
  62007.8715     0.86018E+00 
  62040.1337     0.83220E+00 
  62072.3958     0.80583E+00 
  62104.6580     0.78107E+00 
  62136.9202     0.75794E+00 
  62169.1823     0.73646E+00 
  62201.4445     0.71664E+00 
  62233.7066     0.69849E+00 
  62265.9688     0.68203E+00 
  62298.2310     0.66727E+00 
  62330.4931     0.65423E+00 
  62362.7553     0.64293E+00 
  62395.0174     0.63338E+00 
  62427.2796     0.62560E+00 
  62459.5418     0.61961E+00 
  62491.8039     0.61543E+00 
  62524.0661     0.61307E+00 
  62556.3282     0.61256E+00 
  62588.5904     0.61391E+00 
  62620.8526     0.61715E+00 
  62653.1147     0.62229E+00 
  62685.3769     0.62935E+00 
  62717.6390     0.63836E+00 
  62749.9012     0.64934E+00 
  62782.1634     0.66232E+00 
  62814.4255     0.67731E+00 
  62846.6877     0.69433E+00 
  62878.9498     0.71343E+00 
  62911.2120     0.73460E+00 
  62943.4742     0.75790E+00 
  62975.7363     0.78333E+00 
  63007.9985     0.81093E+00 
  63040.2606     0.84072E+00 
  63072.5228     0.87273E+00 
  63104.7850     0.90700E+00 
  63137.0471     0.94354E+00 
  63169.3093     0.98239E+00 
  63201.5714     0.10236E+01 
  63233.8336     0.10671E+01 
  63266.0958     0.11131E+01 
  63298.3579     0.11615E+01 
  63330.6201     0.12124E+01 
  63362.8822     0.12657E+01 
  63395.1444     0.13216E+01 
  63427.4066     0.13801E+01 
  63459.6687     0.14412E+01 
  63491.9309     0.15049E+01 
  63524.1930     0.15713E+01 
  63556.4552     0.16404E+01 
  63588.7174     0.17123E+01 
  63620.9795     0.17870E+01 
  63653.2417     0.18645E+01 
  63685.5038     0.19449E+01 
  63717.7660     0.20282E+01 
  63750.0282     0.21145E+01 
  63782.2903     0.22038E+01 
  63814.5525     0.22962E+01 
  63846.8146     0.23916E+01 
  63879.0768     0.24902E+01 
  63911.3390     0.25920E+01 
  63943.6011     0.26971E+01 
  63975.8633     0.28054E+01 
  64008.1254     0.29171E+01 
  64040.3876     0.30322E+01 
  64072.6498     0.31508E+01 
  64104.9119     0.32728E+01 
  64137.1741     0.33984E+01 
  64169.4362     0.35276E+01 
  64201.6984     0.36605E+01 
  64233.9606     0.37971E+01 
  64266.2227     0.39375E+01 
  64298.4849     0.40818E+01 
  64330.7470     0.42299E+01 
  64363.0092     0.43821E+01 
  64395.2714     0.45382E+01 
  64427.5335     0.46985E+01 
  64459.7957     0.48629E+01 
  64492.0578     0.50316E+01 
  64524.3200     0.52045E+01 
  64556.5822     0.53819E+01 
  64588.8443     0.55636E+01 
  64621.1065     0.57499E+01 
  64653.3686     0.59408E+01 
  64685.6308     0.61363E+01 
  64717.8930     0.63366E+01 
  64750.1551     0.65416E+01 
  64782.4173     0.67516E+01 
  64814.6794     0.69665E+01 
  64846.9416     0.71865E+01 
  64879.2038     0.74116E+01 
  64911.4659     0.76420E+01 
  64943.7281     0.78776E+01 
  64975.9902     0.81186E+01 
  65008.2524     0.83651E+01 
  65040.5146     0.86172E+01 
  65072.7767     0.88749E+01 
  65105.0389     0.91384E+01 
  65137.3010     0.94078E+01 
  65169.5632     0.96830E+01 
  65201.8254     0.99643E+01 
  65234.0875     0.10252E+02 
  65266.3497     0.10545E+02 
  65298.6118     0.10845E+02 
  65330.8740     0.11152E+02 
  65363.1362     0.11465E+02 
  65395.3983     0.11785E+02 
  65427.6605     0.12111E+02 
  65459.9226     0.12444E+02 
  65492.1848     0.12785E+02 
  65524.4470     0.13132E+02 
  65556.7091     0.13487E+02 
  65588.9713     0.13849E+02 
  65621.2334     0.14218E+02 
  65653.4956     0.14595E+02 
  65685.7578     0.14980E+02 
  65718.0199     0.15372E+02 
  65750.2821     0.15773E+02 
  65782.5442     0.16181E+02 
  65814.8064     0.16598E+02 
  65847.0686     0.17023E+02 
  65879.3307     0.17457E+02 
  65911.5929     0.17899E+02 
  65943.8550     0.18350E+02 
  65976.1172     0.18810E+02 
  66008.3794     0.19279E+02 
  66040.6415     0.19757E+02 
  66072.9037     0.20244E+02 
  66105.1658     0.20741E+02 
  66137.4280     0.21248E+02 
  66169.6902     0.21764E+02 
  66201.9523     0.22290E+02 
  66234.2145     0.22826E+02 
  66266.4766     0.23373E+02 
  66298.7388     0.23930E+02 
  66331.0010     0.24497E+02 
  66363.2631     0.25075E+02 
  66395.5253     0.25664E+02 
  66427.7874     0.26265E+02 
  66460.0496     0.26876E+02 
  66492.3118     0.27499E+02 
  66524.5739     0.28133E+02 
  66556.8361     0.28780E+02 
  66589.0982     0.29438E+02 
  66621.3604     0.30108E+02 
  66653.6226     0.30791E+02 
  66685.8847     0.31486E+02 
  66718.1469     0.32194E+02 
  66750.4090     0.32914E+02 
  66782.6712     0.33648E+02 
  66814.9334     0.34395E+02 
  66847.1955     0.35156E+02 
  66879.4577     0.35930E+02 
  66911.7198     0.36718E+02 
  66943.9820     0.37520E+02 
  66976.2442     0.38337E+02 
  67008.5063     0.39168E+02 
  67040.7685     0.40013E+02 
  67073.0306     0.40874E+02 
  67105.2928     0.41750E+02 
  67137.5550     0.42641E+02 
  67169.8171     0.43548E+02 
  67202.0793     0.44471E+02 
  67234.3414     0.45409E+02 
  67266.6036     0.46364E+02 
  67298.8658     0.47336E+02 
  67331.1279     0.48324E+02 
  67363.3901     0.49329E+02 
  67395.6522     0.50352E+02 
  67427.9144     0.51392E+02 
  67460.1766     0.52449E+02 
  67492.4387     0.53525E+02 
  67524.7009     0.54619E+02 
  67556.9630     0.55731E+02 
  67589.2252     0.56862E+02 
  67621.4874     0.58012E+02 
  67653.7495     0.59181E+02 
  67686.0117     0.60370E+02 
  67718.2738     0.61579E+02 
  67750.5360     0.62807E+02 
  67782.7982     0.64056E+02 
  67815.0603     0.65325E+02 
  67847.3225     0.66616E+02 
  67879.5846     0.67927E+02 
  67911.8468     0.69260E+02 
  67944.1090     0.70614E+02 
  67976.3711     0.71991E+02 
  68008.6333     0.73389E+02 
  68040.8954     0.74810E+02 
  68073.1576     0.76254E+02 
  68105.4198     0.77722E+02 
  68137.6819     0.79212E+02 
  68169.9441     0.80727E+02 
  68202.2062     0.82265E+02 
  68234.4684     0.83828E+02 
  68266.7306     0.85415E+02 
  68298.9927     0.87027E+02 
  68331.2549     0.88664E+02 
  68363.5170     0.90327E+02 
  68395.7792     0.92016E+02 
  68428.0414     0.93731E+02 
  68460.3035     0.95473E+02 
  68492.5657     0.97241E+02 
  68524.8278     0.99036E+02 
  68557.0900     0.10086E+03 
  68589.3522     0.10271E+03 
  68621.6143     0.10459E+03 
  68653.8765     0.10650E+03 
  68686.1386     0.10843E+03 
  68718.4008     0.11040E+03 
  68750.6630     0.11239E+03 
  68782.9251     0.11442E+03 
  68815.1873     0.11647E+03 
  68847.4494     0.11856E+03 
  68879.7116     0.12067E+03 
  68911.9738     0.12282E+03 
  68944.2359     0.12500E+03 
  68976.4981     0.12721E+03 
  69008.7602     0.12945E+03 
  69041.0224     0.13172E+03 
  69073.2846     0.13403E+03 
  69105.5467     0.13637E+03 
  69137.8089     0.13875E+03 
  69170.0710     0.14115E+03 
  69202.3332     0.14360E+03 
  69234.5954     0.14607E+03 
  69266.8575     0.14859E+03 
  69299.1197     0.15114E+03 
  69331.3818     0.15372E+03 
  69363.6440     0.15634E+03 
  69395.9062     0.15899E+03 
  69428.1683     0.16169E+03 
  69460.4305     0.16442E+03 
  69492.6926     0.16719E+03 
  69524.9548     0.16999E+03 
  69557.2170     0.17283E+03 
  69589.4791     0.17572E+03 
  69621.7413     0.17864E+03 
  69654.0034     0.18160E+03 
  69686.2656     0.18460E+03 
  69718.5278     0.18764E+03 
  69750.7899     0.19072E+03 
  69783.0521     0.19385E+03 
  69815.3142     0.19701E+03 
  69847.5764     0.20022E+03 
  69879.8386     0.20346E+03 
  69912.1007     0.20675E+03 
  69944.3629     0.21009E+03 
  69976.6250     0.21346E+03 
  70008.8872     0.21688E+03 
  70041.1494     0.22034E+03 
  70073.4115     0.22385E+03 
  70105.6737     0.22740E+03 
  70137.9358     0.23100E+03 
  70170.1980     0.23464E+03 
  70202.4602     0.23833E+03 
  70234.7223     0.24206E+03 
  70266.9845     0.24584E+03 
  70299.2466     0.24967E+03 
  70331.5088     0.25355E+03 
  70363.7710     0.25747E+03 
  70396.0331     0.26144E+03 
  70428.2953     0.26546E+03 
  70460.5574     0.26953E+03 
  70492.8196     0.27364E+03 
  70525.0818     0.27781E+03 
  70557.3439     0.28202E+03 
  70589.6061     0.28629E+03 
  70621.8682     0.29060E+03 
  70654.1304     0.29497E+03 
  70686.3926     0.29939E+03 
  70718.6547     0.30386E+03 
  70750.9169     0.30838E+03 
  70783.1790     0.31295E+03 
  70815.4412     0.31758E+03 
  70847.7034     0.32226E+03 
  70879.9655     0.32699E+03 
  70912.2277     0.33178E+03 
  70944.4898     0.33662E+03 
  70976.7520     0.34151E+03 
  71009.0142     0.34646E+03 
  71041.2763     0.35146E+03 
  71073.5385     0.35652E+03 
  71105.8006     0.36164E+03 
  71138.0628     0.36681E+03 
  71170.3250     0.37204E+03 
  71202.5871     0.37732E+03 
  71234.8493     0.38266E+03 
  71267.1114     0.38806E+03 
  71299.3736     0.39351E+03 
  71331.6358     0.39902E+03 
  71363.8979     0.40459E+03 
  71396.1601     0.41022E+03 
  71428.4222     0.41591E+03 
  71460.6844     0.42166E+03 
  71492.9466     0.42746E+03 
  71525.2087     0.43333E+03 
  71557.4709     0.43925E+03 
  71589.7330     0.44524E+03 
  71621.9952     0.45128E+03 
  71654.2574     0.45739E+03 
  71686.5195     0.46355E+03 
  71718.7817     0.46978E+03 
  71751.0438     0.47607E+03 
  71783.3060     0.48242E+03 
  71815.5682     0.48883E+03 
  71847.8303     0.49530E+03 
  71880.0925     0.50184E+03 
  71912.3546     0.50844E+03 
  71944.6168     0.51510E+03 
  71976.8790     0.52182E+03 
  72009.1411     0.52861E+03 
  72041.4033     0.53546E+03 
  72073.6654     0.54237E+03 
  72105.9276     0.54935E+03 
  72138.1898     0.55639E+03 
  72170.4519     0.56350E+03 
  72202.7141     0.57066E+03 
  72234.9762     0.57790E+03 
  72267.2384     0.58520E+03 
  72299.5006     0.59256E+03 
  72331.7627     0.59999E+03 
  72364.0249     0.60748E+03 
  72396.2870     0.61503E+03 
  72428.5492     0.62266E+03 
  72460.8114     0.63034E+03 
  72493.0735     0.63810E+03 
  72525.3357     0.64592E+03 
  72557.5978     0.65380E+03 
  72589.8600     0.66175E+03 
