  32262.1600     0.39094E+02 
  32294.4222     0.39616E+02 
  32326.6843     0.40142E+02 
  32358.9465     0.40673E+02 
  32391.2086     0.41209E+02 
  32423.4708     0.41750E+02 
  32455.7330     0.42295E+02 
  32487.9951     0.42846E+02 
  32520.2573     0.43402E+02 
  32552.5194     0.43962E+02 
  32584.7816     0.44527E+02 
  32617.0438     0.45097E+02 
  32649.3059     0.45673E+02 
  32681.5681     0.46253E+02 
  32713.8302     0.46838E+02 
  32746.0924     0.47428E+02 
  32778.3546     0.48023E+02 
  32810.6167     0.48622E+02 
  32842.8789     0.49227E+02 
  32875.1410     0.49837E+02 
  32907.4032     0.50451E+02 
  32939.6654     0.51071E+02 
  32971.9275     0.51695E+02 
  33004.1897     0.52325E+02 
  33036.4518     0.52959E+02 
  33068.7140     0.53598E+02 
  33100.9762     0.54243E+02 
  33133.2383     0.54892E+02 
  33165.5005     0.55546E+02 
  33197.7626     0.56205E+02 
  33230.0248     0.56868E+02 
  33262.2870     0.57537E+02 
  33294.5491     0.58210E+02 
  33326.8113     0.58889E+02 
  33359.0734     0.59572E+02 
  33391.3356     0.60260E+02 
  33423.5978     0.60953E+02 
  33455.8599     0.61651E+02 
  33488.1221     0.62353E+02 
  33520.3842     0.63061E+02 
  33552.6464     0.63773E+02 
  33584.9086     0.64490E+02 
  33617.1707     0.65211E+02 
  33649.4329     0.65937E+02 
  33681.6950     0.66668E+02 
  33713.9572     0.67404E+02 
  33746.2194     0.68144E+02 
  33778.4815     0.68889E+02 
  33810.7437     0.69639E+02 
  33843.0058     0.70393E+02 
  33875.2680     0.71152E+02 
  33907.5302     0.71915E+02 
  33939.7923     0.72683E+02 
  33972.0545     0.73456E+02 
  34004.3166     0.74232E+02 
  34036.5788     0.75014E+02 
  34068.8410     0.75799E+02 
  34101.1031     0.76590E+02 
  34133.3653     0.77384E+02 
  34165.6274     0.78183E+02 
  34197.8896     0.78986E+02 
  34230.1518     0.79793E+02 
  34262.4139     0.80605E+02 
  34294.6761     0.81421E+02 
  34326.9382     0.82241E+02 
  34359.2004     0.83065E+02 
  34391.4626     0.83893E+02 
  34423.7247     0.84725E+02 
  34455.9869     0.85562E+02 
  34488.2490     0.86402E+02 
  34520.5112     0.87246E+02 
  34552.7734     0.88094E+02 
  34585.0355     0.88946E+02 
  34617.2977     0.89802E+02 
  34649.5598     0.90662E+02 
  34681.8220     0.91525E+02 
  34714.0842     0.92392E+02 
  34746.3463     0.93263E+02 
  34778.6085     0.94138E+02 
  34810.8706     0.95015E+02 
  34843.1328     0.95897E+02 
  34875.3950     0.96782E+02 
  34907.6571     0.97670E+02 
  34939.9193     0.98562E+02 
  34972.1814     0.99457E+02 
  35004.4436     0.10036E+03 
  35036.7058     0.10126E+03 
  35068.9679     0.10216E+03 
  35101.2301     0.10307E+03 
  35133.4922     0.10398E+03 
  35165.7544     0.10489E+03 
  35198.0166     0.10581E+03 
  35230.2787     0.10673E+03 
  35262.5409     0.10765E+03 
  35294.8030     0.10858E+03 
  35327.0652     0.10951E+03 
  35359.3274     0.11044E+03 
  35391.5895     0.11137E+03 
  35423.8517     0.11231E+03 
  35456.1138     0.11325E+03 
  35488.3760     0.11419E+03 
  35520.6382     0.11513E+03 
  35552.9003     0.11608E+03 
  35585.1625     0.11702E+03 
  35617.4246     0.11797E+03 
  35649.6868     0.11893E+03 
  35681.9490     0.11988E+03 
  35714.2111     0.12084E+03 
  35746.4733     0.12179E+03 
  35778.7354     0.12275E+03 
  35810.9976     0.12372E+03 
  35843.2598     0.12468E+03 
  35875.5219     0.12565E+03 
  35907.7841     0.12661E+03 
  35940.0462     0.12758E+03 
  35972.3084     0.12855E+03 
  36004.5706     0.12952E+03 
  36036.8327     0.13049E+03 
  36069.0949     0.13147E+03 
  36101.3570     0.13244E+03 
  36133.6192     0.13342E+03 
  36165.8814     0.13440E+03 
  36198.1435     0.13537E+03 
  36230.4057     0.13635E+03 
  36262.6678     0.13733E+03 
  36294.9300     0.13831E+03 
  36327.1922     0.13929E+03 
  36359.4543     0.14028E+03 
  36391.7165     0.14126E+03 
  36423.9786     0.14224E+03 
  36456.2408     0.14322E+03 
  36488.5030     0.14421E+03 
  36520.7651     0.14519E+03 
  36553.0273     0.14618E+03 
  36585.2894     0.14716E+03 
  36617.5516     0.14814E+03 
  36649.8138     0.14913E+03 
  36682.0759     0.15011E+03 
  36714.3381     0.15109E+03 
  36746.6002     0.15208E+03 
  36778.8624     0.15306E+03 
  36811.1246     0.15404E+03 
  36843.3867     0.15502E+03 
  36875.6489     0.15600E+03 
  36907.9110     0.15699E+03 
  36940.1732     0.15796E+03 
  36972.4354     0.15894E+03 
  37004.6975     0.15992E+03 
  37036.9597     0.16090E+03 
  37069.2218     0.16187E+03 
  37101.4840     0.16285E+03 
  37133.7462     0.16382E+03 
  37166.0083     0.16479E+03 
  37198.2705     0.16576E+03 
  37230.5326     0.16673E+03 
  37262.7948     0.16770E+03 
  37295.0570     0.16866E+03 
  37327.3191     0.16963E+03 
  37359.5813     0.17059E+03 
  37391.8434     0.17155E+03 
  37424.1056     0.17251E+03 
  37456.3678     0.17346E+03 
  37488.6299     0.17442E+03 
  37520.8921     0.17537E+03 
  37553.1542     0.17632E+03 
  37585.4164     0.17727E+03 
  37617.6786     0.17821E+03 
  37649.9407     0.17915E+03 
  37682.2029     0.18009E+03 
  37714.4650     0.18103E+03 
  37746.7272     0.18196E+03 
  37778.9894     0.18289E+03 
  37811.2515     0.18382E+03 
  37843.5137     0.18475E+03 
  37875.7758     0.18567E+03 
  37908.0380     0.18659E+03 
  37940.3002     0.18750E+03 
  37972.5623     0.18841E+03 
  38004.8245     0.18932E+03 
  38037.0866     0.19023E+03 
  38069.3488     0.19113E+03 
  38101.6110     0.19203E+03 
  38133.8731     0.19292E+03 
  38166.1353     0.19381E+03 
  38198.3974     0.19470E+03 
  38230.6596     0.19558E+03 
  38262.9218     0.19646E+03 
  38295.1839     0.19733E+03 
  38327.4461     0.19821E+03 
  38359.7082     0.19907E+03 
  38391.9704     0.19993E+03 
  38424.2326     0.20079E+03 
  38456.4947     0.20164E+03 
  38488.7569     0.20249E+03 
  38521.0190     0.20334E+03 
  38553.2812     0.20417E+03 
  38585.5434     0.20501E+03 
  38617.8055     0.20584E+03 
  38650.0677     0.20666E+03 
  38682.3298     0.20748E+03 
  38714.5920     0.20830E+03 
  38746.8542     0.20911E+03 
  38779.1163     0.20991E+03 
  38811.3785     0.21071E+03 
  38843.6406     0.21150E+03 
  38875.9028     0.21229E+03 
  38908.1650     0.21308E+03 
  38940.4271     0.21385E+03 
  38972.6893     0.21463E+03 
  39004.9514     0.21539E+03 
  39037.2136     0.21615E+03 
  39069.4758     0.21691E+03 
  39101.7379     0.21766E+03 
  39134.0001     0.21840E+03 
  39166.2622     0.21914E+03 
  39198.5244     0.21987E+03 
  39230.7866     0.22059E+03 
  39263.0487     0.22131E+03 
  39295.3109     0.22203E+03 
  39327.5730     0.22273E+03 
  39359.8352     0.22343E+03 
  39392.0974     0.22413E+03 
  39424.3595     0.22481E+03 
  39456.6217     0.22550E+03 
  39488.8838     0.22617E+03 
  39521.1460     0.22684E+03 
  39553.4082     0.22750E+03 
  39585.6703     0.22815E+03 
  39617.9325     0.22880E+03 
  39650.1946     0.22944E+03 
  39682.4568     0.23008E+03 
  39714.7190     0.23071E+03 
  39746.9811     0.23133E+03 
  39779.2433     0.23194E+03 
  39811.5054     0.23255E+03 
  39843.7676     0.23315E+03 
  39876.0298     0.23374E+03 
  39908.2919     0.23432E+03 
  39940.5541     0.23490E+03 
  39972.8162     0.23547E+03 
  40005.0784     0.23604E+03 
  40037.3406     0.23659E+03 
  40069.6027     0.23714E+03 
  40101.8649     0.23768E+03 
  40134.1270     0.23822E+03 
  40166.3892     0.23874E+03 
  40198.6514     0.23926E+03 
  40230.9135     0.23977E+03 
  40263.1757     0.24028E+03 
  40295.4378     0.24077E+03 
  40327.7000     0.24126E+03 
  40359.9622     0.24174E+03 
  40392.2243     0.24221E+03 
  40424.4865     0.24268E+03 
  40456.7486     0.24314E+03 
  40489.0108     0.24359E+03 
  40521.2730     0.24403E+03 
  40553.5351     0.24446E+03 
  40585.7973     0.24489E+03 
  40618.0594     0.24531E+03 
  40650.3216     0.24572E+03 
  40682.5838     0.24612E+03 
  40714.8459     0.24651E+03 
  40747.1081     0.24690E+03 
  40779.3702     0.24728E+03 
  40811.6324     0.24765E+03 
  40843.8946     0.24801E+03 
  40876.1567     0.24836E+03 
  40908.4189     0.24871E+03 
  40940.6810     0.24904E+03 
  40972.9432     0.24937E+03 
  41005.2054     0.24970E+03 
  41037.4675     0.25001E+03 
  41069.7297     0.25031E+03 
  41101.9918     0.25061E+03 
  41134.2540     0.25090E+03 
  41166.5162     0.25118E+03 
  41198.7783     0.25145E+03 
  41231.0405     0.25171E+03 
  41263.3026     0.25197E+03 
  41295.5648     0.25221E+03 
  41327.8270     0.25245E+03 
  41360.0891     0.25268E+03 
  41392.3513     0.25290E+03 
  41424.6134     0.25312E+03 
  41456.8756     0.25332E+03 
  41489.1378     0.25352E+03 
  41521.3999     0.25371E+03 
  41553.6621     0.25389E+03 
  41585.9242     0.25406E+03 
  41618.1864     0.25422E+03 
  41650.4486     0.25438E+03 
  41682.7107     0.25453E+03 
  41714.9729     0.25466E+03 
  41747.2350     0.25479E+03 
  41779.4972     0.25492E+03 
  41811.7594     0.25503E+03 
  41844.0215     0.25513E+03 
  41876.2837     0.25523E+03 
  41908.5458     0.25532E+03 
  41940.8080     0.25540E+03 
  41973.0702     0.25547E+03 
  42005.3323     0.25554E+03 
  42037.5945     0.25559E+03 
  42069.8566     0.25564E+03 
  42102.1188     0.25568E+03 
  42134.3810     0.25571E+03 
  42166.6431     0.25573E+03 
  42198.9053     0.25575E+03 
  42231.1674     0.25575E+03 
  42263.4296     0.25575E+03 
  42295.6918     0.25574E+03 
  42327.9539     0.25572E+03 
  42360.2161     0.25570E+03 
  42392.4782     0.25566E+03 
  42424.7404     0.25562E+03 
  42457.0026     0.25557E+03 
  42489.2647     0.25551E+03 
  42521.5269     0.25544E+03 
  42553.7890     0.25537E+03 
  42586.0512     0.25529E+03 
  42618.3134     0.25520E+03 
  42650.5755     0.25510E+03 
  42682.8377     0.25499E+03 
  42715.0998     0.25488E+03 
  42747.3620     0.25475E+03 
  42779.6242     0.25462E+03 
  42811.8863     0.25449E+03 
  42844.1485     0.25434E+03 
  42876.4106     0.25419E+03 
  42908.6728     0.25403E+03 
  42940.9350     0.25386E+03 
  42973.1971     0.25368E+03 
  43005.4593     0.25350E+03 
  43037.7214     0.25331E+03 
  43069.9836     0.25311E+03 
  43102.2458     0.25290E+03 
  43134.5079     0.25269E+03 
  43166.7701     0.25247E+03 
  43199.0322     0.25224E+03 
  43231.2944     0.25200E+03 
  43263.5566     0.25176E+03 
  43295.8187     0.25151E+03 
  43328.0809     0.25125E+03 
  43360.3430     0.25099E+03 
  43392.6052     0.25071E+03 
  43424.8674     0.25043E+03 
  43457.1295     0.25015E+03 
  43489.3917     0.24985E+03 
  43521.6538     0.24955E+03 
  43553.9160     0.24925E+03 
  43586.1782     0.24893E+03 
  43618.4403     0.24861E+03 
  43650.7025     0.24828E+03 
  43682.9646     0.24795E+03 
  43715.2268     0.24761E+03 
  43747.4890     0.24726E+03 
  43779.7511     0.24690E+03 
  43812.0133     0.24654E+03 
  43844.2754     0.24617E+03 
  43876.5376     0.24580E+03 
  43908.7998     0.24541E+03 
  43941.0619     0.24503E+03 
  43973.3241     0.24463E+03 
  44005.5862     0.24423E+03 
  44037.8484     0.24382E+03 
  44070.1106     0.24341E+03 
  44102.3727     0.24299E+03 
  44134.6349     0.24257E+03 
  44166.8970     0.24213E+03 
  44199.1592     0.24170E+03 
  44231.4214     0.24125E+03 
  44263.6835     0.24080E+03 
  44295.9457     0.24035E+03 
  44328.2078     0.23988E+03 
  44360.4700     0.23942E+03 
  44392.7322     0.23894E+03 
  44424.9943     0.23846E+03 
  44457.2565     0.23798E+03 
  44489.5186     0.23749E+03 
  44521.7808     0.23699E+03 
  44554.0430     0.23649E+03 
  44586.3051     0.23598E+03 
  44618.5673     0.23547E+03 
  44650.8294     0.23495E+03 
  44683.0916     0.23443E+03 
  44715.3538     0.23390E+03 
  44747.6159     0.23337E+03 
  44779.8781     0.23283E+03 
  44812.1402     0.23229E+03 
  44844.4024     0.23174E+03 
  44876.6646     0.23118E+03 
  44908.9267     0.23062E+03 
  44941.1889     0.23006E+03 
  44973.4510     0.22949E+03 
  45005.7132     0.22892E+03 
  45037.9754     0.22834E+03 
  45070.2375     0.22776E+03 
  45102.4997     0.22717E+03 
  45134.7618     0.22658E+03 
  45167.0240     0.22598E+03 
  45199.2862     0.22538E+03 
  45231.5483     0.22478E+03 
  45263.8105     0.22417E+03 
  45296.0726     0.22355E+03 
  45328.3348     0.22293E+03 
  45360.5970     0.22231E+03 
  45392.8591     0.22169E+03 
  45425.1213     0.22106E+03 
  45457.3834     0.22042E+03 
  45489.6456     0.21978E+03 
  45521.9078     0.21914E+03 
  45554.1699     0.21849E+03 
  45586.4321     0.21785E+03 
  45618.6942     0.21719E+03 
  45650.9564     0.21653E+03 
  45683.2186     0.21587E+03 
  45715.4807     0.21521E+03 
  45747.7429     0.21454E+03 
  45780.0050     0.21387E+03 
  45812.2672     0.21319E+03 
  45844.5294     0.21252E+03 
  45876.7915     0.21184E+03 
  45909.0537     0.21115E+03 
  45941.3158     0.21046E+03 
  45973.5780     0.20977E+03 
  46005.8402     0.20908E+03 
  46038.1023     0.20838E+03 
  46070.3645     0.20768E+03 
  46102.6266     0.20698E+03 
  46134.8888     0.20627E+03 
  46167.1510     0.20556E+03 
  46199.4131     0.20485E+03 
  46231.6753     0.20414E+03 
  46263.9374     0.20342E+03 
  46296.1996     0.20270E+03 
  46328.4618     0.20198E+03 
  46360.7239     0.20126E+03 
  46392.9861     0.20053E+03 
  46425.2482     0.19980E+03 
  46457.5104     0.19907E+03 
  46489.7726     0.19834E+03 
  46522.0347     0.19760E+03 
  46554.2969     0.19687E+03 
  46586.5590     0.19613E+03 
  46618.8212     0.19538E+03 
  46651.0834     0.19464E+03 
  46683.3455     0.19390E+03 
  46715.6077     0.19315E+03 
  46747.8698     0.19240E+03 
  46780.1320     0.19165E+03 
  46812.3942     0.19089E+03 
  46844.6563     0.19014E+03 
  46876.9185     0.18938E+03 
  46909.1806     0.18863E+03 
  46941.4428     0.18787E+03 
  46973.7050     0.18711E+03 
  47005.9671     0.18634E+03 
  47038.2293     0.18558E+03 
  47070.4914     0.18481E+03 
  47102.7536     0.18405E+03 
  47135.0158     0.18328E+03 
  47167.2779     0.18251E+03 
  47199.5401     0.18174E+03 
  47231.8022     0.18097E+03 
  47264.0644     0.18020E+03 
  47296.3266     0.17943E+03 
  47328.5887     0.17865E+03 
  47360.8509     0.17788E+03 
  47393.1130     0.17710E+03 
  47425.3752     0.17633E+03 
  47457.6374     0.17555E+03 
  47489.8995     0.17477E+03 
  47522.1617     0.17400E+03 
  47554.4238     0.17322E+03 
  47586.6860     0.17244E+03 
  47618.9482     0.17166E+03 
  47651.2103     0.17088E+03 
  47683.4725     0.17010E+03 
  47715.7346     0.16931E+03 
  47747.9968     0.16853E+03 
  47780.2590     0.16775E+03 
  47812.5211     0.16697E+03 
  47844.7833     0.16619E+03 
  47877.0454     0.16540E+03 
  47909.3076     0.16462E+03 
  47941.5698     0.16384E+03 
  47973.8319     0.16306E+03 
  48006.0941     0.16227E+03 
  48038.3562     0.16149E+03 
  48070.6184     0.16071E+03 
  48102.8806     0.15993E+03 
  48135.1427     0.15914E+03 
  48167.4049     0.15836E+03 
  48199.6670     0.15758E+03 
  48231.9292     0.15680E+03 
  48264.1914     0.15602E+03 
  48296.4535     0.15524E+03 
  48328.7157     0.15446E+03 
  48360.9778     0.15368E+03 
  48393.2400     0.15290E+03 
  48425.5022     0.15212E+03 
  48457.7643     0.15134E+03 
  48490.0265     0.15056E+03 
  48522.2886     0.14978E+03 
  48554.5508     0.14901E+03 
  48586.8130     0.14823E+03 
  48619.0751     0.14746E+03 
  48651.3373     0.14668E+03 
  48683.5994     0.14591E+03 
  48715.8616     0.14514E+03 
  48748.1238     0.14436E+03 
  48780.3859     0.14359E+03 
  48812.6481     0.14282E+03 
  48844.9102     0.14205E+03 
  48877.1724     0.14129E+03 
  48909.4346     0.14052E+03 
  48941.6967     0.13975E+03 
  48973.9589     0.13899E+03 
  49006.2210     0.13823E+03 
  49038.4832     0.13746E+03 
  49070.7454     0.13670E+03 
  49103.0075     0.13594E+03 
  49135.2697     0.13518E+03 
  49167.5318     0.13442E+03 
  49199.7940     0.13367E+03 
  49232.0562     0.13291E+03 
  49264.3183     0.13216E+03 
  49296.5805     0.13141E+03 
  49328.8426     0.13066E+03 
  49361.1048     0.12991E+03 
  49393.3670     0.12916E+03 
  49425.6291     0.12841E+03 
  49457.8913     0.12767E+03 
  49490.1534     0.12693E+03 
  49522.4156     0.12618E+03 
  49554.6778     0.12544E+03 
  49586.9399     0.12471E+03 
  49619.2021     0.12397E+03 
  49651.4642     0.12323E+03 
  49683.7264     0.12250E+03 
  49715.9886     0.12177E+03 
  49748.2507     0.12104E+03 
  49780.5129     0.12031E+03 
  49812.7750     0.11958E+03 
  49845.0372     0.11886E+03 
  49877.2994     0.11814E+03 
  49909.5615     0.11742E+03 
  49941.8237     0.11670E+03 
  49974.0858     0.11598E+03 
  50006.3480     0.11527E+03 
  50038.6102     0.11455E+03 
  50070.8723     0.11384E+03 
  50103.1345     0.11313E+03 
  50135.3966     0.11243E+03 
  50167.6588     0.11172E+03 
  50199.9210     0.11102E+03 
  50232.1831     0.11032E+03 
  50264.4453     0.10962E+03 
  50296.7074     0.10892E+03 
  50328.9696     0.10823E+03 
  50361.2318     0.10753E+03 
  50393.4939     0.10684E+03 
  50425.7561     0.10615E+03 
  50458.0182     0.10547E+03 
  50490.2804     0.10478E+03 
  50522.5426     0.10410E+03 
  50554.8047     0.10342E+03 
  50587.0669     0.10275E+03 
  50619.3290     0.10207E+03 
  50651.5912     0.10140E+03 
  50683.8534     0.10073E+03 
  50716.1155     0.10006E+03 
  50748.3777     0.99394E+02 
  50780.6398     0.98731E+02 
  50812.9020     0.98070E+02 
  50845.1642     0.97411E+02 
  50877.4263     0.96755E+02 
  50909.6885     0.96101E+02 
  50941.9506     0.95449E+02 
  50974.2128     0.94800E+02 
  51006.4750     0.94153E+02 
  51038.7371     0.93509E+02 
  51070.9993     0.92867E+02 
  51103.2614     0.92227E+02 
  51135.5236     0.91590E+02 
  51167.7858     0.90956E+02 
  51200.0479     0.90324E+02 
  51232.3101     0.89694E+02 
  51264.5722     0.89067E+02 
  51296.8344     0.88442E+02 
  51329.0966     0.87820E+02 
  51361.3587     0.87201E+02 
  51393.6209     0.86583E+02 
  51425.8830     0.85969E+02 
  51458.1452     0.85357E+02 
  51490.4074     0.84747E+02 
  51522.6695     0.84140E+02 
  51554.9317     0.83536E+02 
  51587.1938     0.82934E+02 
  51619.4560     0.82335E+02 
  51651.7182     0.81738E+02 
  51683.9803     0.81144E+02 
  51716.2425     0.80553E+02 
  51748.5046     0.79964E+02 
  51780.7668     0.79378E+02 
  51813.0290     0.78794E+02 
  51845.2911     0.78213E+02 
  51877.5533     0.77634E+02 
  51909.8154     0.77059E+02 
  51942.0776     0.76485E+02 
  51974.3398     0.75915E+02 
  52006.6019     0.75347E+02 
  52038.8641     0.74781E+02 
  52071.1262     0.74219E+02 
  52103.3884     0.73658E+02 
  52135.6506     0.73101E+02 
  52167.9127     0.72546E+02 
  52200.1749     0.71994E+02 
  52232.4370     0.71444E+02 
  52264.6992     0.70898E+02 
  52296.9614     0.70353E+02 
  52329.2235     0.69812E+02 
  52361.4857     0.69273E+02 
  52393.7478     0.68736E+02 
  52426.0100     0.68203E+02 
  52458.2722     0.67672E+02 
  52490.5343     0.67143E+02 
  52522.7965     0.66618E+02 
  52555.0586     0.66095E+02 
  52587.3208     0.65574E+02 
  52619.5830     0.65056E+02 
  52651.8451     0.64541E+02 
  52684.1073     0.64029E+02 
  52716.3694     0.63519E+02 
  52748.6316     0.63012E+02 
  52780.8938     0.62507E+02 
  52813.1559     0.62005E+02 
  52845.4181     0.61506E+02 
  52877.6802     0.61010E+02 
  52909.9424     0.60516E+02 
  52942.2046     0.60024E+02 
  52974.4667     0.59535E+02 
  53006.7289     0.59049E+02 
  53038.9910     0.58566E+02 
  53071.2532     0.58085E+02 
  53103.5154     0.57607E+02 
  53135.7775     0.57131E+02 
  53168.0397     0.56658E+02 
  53200.3018     0.56188E+02 
  53232.5640     0.55720E+02 
  53264.8262     0.55255E+02 
  53297.0883     0.54792E+02 
  53329.3505     0.54332E+02 
  53361.6126     0.53875E+02 
  53393.8748     0.53420E+02 
  53426.1370     0.52968E+02 
  53458.3991     0.52518E+02 
  53490.6613     0.52071E+02 
  53522.9234     0.51627E+02 
  53555.1856     0.51185E+02 
  53587.4478     0.50745E+02 
  53619.7099     0.50309E+02 
  53651.9721     0.49874E+02 
  53684.2342     0.49443E+02 
  53716.4964     0.49013E+02 
  53748.7586     0.48587E+02 
  53781.0207     0.48163E+02 
  53813.2829     0.47741E+02 
  53845.5450     0.47322E+02 
  53877.8072     0.46905E+02 
  53910.0694     0.46491E+02 
  53942.3315     0.46080E+02 
  53974.5937     0.45671E+02 
  54006.8558     0.45264E+02 
  54039.1180     0.44860E+02 
  54071.3802     0.44458E+02 
  54103.6423     0.44059E+02 
  54135.9045     0.43662E+02 
  54168.1666     0.43268E+02 
  54200.4288     0.42876E+02 
  54232.6910     0.42487E+02 
  54264.9531     0.42100E+02 
  54297.2153     0.41715E+02 
  54329.4774     0.41333E+02 
  54361.7396     0.40953E+02 
  54394.0018     0.40576E+02 
  54426.2639     0.40201E+02 
  54458.5261     0.39828E+02 
  54490.7882     0.39458E+02 
  54523.0504     0.39090E+02 
  54555.3126     0.38725E+02 
  54587.5747     0.38362E+02 
  54619.8369     0.38001E+02 
  54652.0990     0.37642E+02 
  54684.3612     0.37286E+02 
  54716.6234     0.36933E+02 
  54748.8855     0.36581E+02 
  54781.1477     0.36232E+02 
  54813.4098     0.35885E+02 
  54845.6720     0.35541E+02 
  54877.9342     0.35198E+02 
  54910.1963     0.34858E+02 
  54942.4585     0.34520E+02 
  54974.7206     0.34185E+02 
  55006.9828     0.33852E+02 
  55039.2450     0.33521E+02 
  55071.5071     0.33192E+02 
  55103.7693     0.32865E+02 
  55136.0314     0.32541E+02 
  55168.2936     0.32219E+02 
  55200.5558     0.31899E+02 
  55232.8179     0.31581E+02 
  55265.0801     0.31266E+02 
  55297.3422     0.30952E+02 
  55329.6044     0.30641E+02 
  55361.8666     0.30332E+02 
  55394.1287     0.30025E+02 
  55426.3909     0.29720E+02 
  55458.6530     0.29417E+02 
  55490.9152     0.29117E+02 
  55523.1774     0.28818E+02 
  55555.4395     0.28522E+02 
  55587.7017     0.28227E+02 
  55619.9638     0.27935E+02 
  55652.2260     0.27645E+02 
  55684.4882     0.27357E+02 
  55716.7503     0.27071E+02 
  55749.0125     0.26787E+02 
  55781.2746     0.26505E+02 
  55813.5368     0.26225E+02 
  55845.7990     0.25947E+02 
  55878.0611     0.25671E+02 
  55910.3233     0.25397E+02 
  55942.5854     0.25125E+02 
  55974.8476     0.24855E+02 
  56007.1098     0.24587E+02 
  56039.3719     0.24321E+02 
  56071.6341     0.24057E+02 
  56103.8962     0.23795E+02 
  56136.1584     0.23535E+02 
  56168.4206     0.23276E+02 
  56200.6827     0.23020E+02 
  56232.9449     0.22766E+02 
  56265.2070     0.22513E+02 
  56297.4692     0.22262E+02 
  56329.7314     0.22013E+02 
  56361.9935     0.21767E+02 
  56394.2557     0.21521E+02 
  56426.5178     0.21278E+02 
  56458.7800     0.21037E+02 
  56491.0422     0.20797E+02 
  56523.3043     0.20559E+02 
  56555.5665     0.20323E+02 
  56587.8286     0.20089E+02 
  56620.0908     0.19857E+02 
  56652.3530     0.19626E+02 
  56684.6151     0.19398E+02 
  56716.8773     0.19170E+02 
  56749.1394     0.18945E+02 
  56781.4016     0.18722E+02 
  56813.6638     0.18500E+02 
  56845.9259     0.18280E+02 
  56878.1881     0.18061E+02 
  56910.4502     0.17845E+02 
  56942.7124     0.17630E+02 
  56974.9746     0.17417E+02 
  57007.2367     0.17205E+02 
  57039.4989     0.16995E+02 
  57071.7610     0.16787E+02 
  57104.0232     0.16581E+02 
  57136.2854     0.16376E+02 
  57168.5475     0.16172E+02 
  57200.8097     0.15971E+02 
  57233.0718     0.15771E+02 
  57265.3340     0.15572E+02 
  57297.5962     0.15376E+02 
  57329.8583     0.15180E+02 
  57362.1205     0.14987E+02 
  57394.3826     0.14795E+02 
  57426.6448     0.14604E+02 
  57458.9070     0.14416E+02 
  57491.1691     0.14228E+02 
  57523.4313     0.14043E+02 
  57555.6934     0.13858E+02 
  57587.9556     0.13676E+02 
  57620.2178     0.13494E+02 
  57652.4799     0.13315E+02 
  57684.7421     0.13137E+02 
  57717.0042     0.12960E+02 
  57749.2664     0.12785E+02 
  57781.5286     0.12611E+02 
  57813.7907     0.12439E+02 
  57846.0529     0.12268E+02 
  57878.3150     0.12099E+02 
  57910.5772     0.11931E+02 
  57942.8394     0.11765E+02 
  57975.1015     0.11600E+02 
  58007.3637     0.11436E+02 
  58039.6258     0.11274E+02 
  58071.8880     0.11114E+02 
  58104.1502     0.10954E+02 
  58136.4123     0.10796E+02 
  58168.6745     0.10640E+02 
  58200.9366     0.10485E+02 
  58233.1988     0.10331E+02 
  58265.4610     0.10179E+02 
  58297.7231     0.10028E+02 
  58329.9853     0.98782E+01 
  58362.2474     0.97299E+01 
  58394.5096     0.95830E+01 
  58426.7718     0.94373E+01 
  58459.0339     0.92931E+01 
  58491.2961     0.91501E+01 
  58523.5582     0.90084E+01 
  58555.8204     0.88681E+01 
  58588.0826     0.87290E+01 
  58620.3447     0.85913E+01 
  58652.6069     0.84548E+01 
  58684.8690     0.83196E+01 
  58717.1312     0.81857E+01 
  58749.3934     0.80530E+01 
  58781.6555     0.79217E+01 
  58813.9177     0.77915E+01 
  58846.1798     0.76626E+01 
  58878.4420     0.75350E+01 
  58910.7042     0.74086E+01 
  58942.9663     0.72834E+01 
  58975.2285     0.71595E+01 
  59007.4906     0.70367E+01 
  59039.7528     0.69152E+01 
  59072.0150     0.67949E+01 
  59104.2771     0.66758E+01 
  59136.5393     0.65579E+01 
  59168.8014     0.64412E+01 
  59201.0636     0.63257E+01 
  59233.3258     0.62113E+01 
  59265.5879     0.60981E+01 
  59297.8501     0.59861E+01 
  59330.1122     0.58753E+01 
  59362.3744     0.57656E+01 
  59394.6366     0.56571E+01 
  59426.8987     0.55497E+01 
  59459.1609     0.54435E+01 
  59491.4230     0.53384E+01 
  59523.6852     0.52345E+01 
  59555.9474     0.51316E+01 
  59588.2095     0.50300E+01 
  59620.4717     0.49294E+01 
  59652.7338     0.48300E+01 
  59684.9960     0.47316E+01 
  59717.2582     0.46344E+01 
  59749.5203     0.45383E+01 
  59781.7825     0.44433E+01 
  59814.0446     0.43494E+01 
  59846.3068     0.42566E+01 
  59878.5690     0.41649E+01 
  59910.8311     0.40742E+01 
  59943.0933     0.39847E+01 
  59975.3554     0.38963E+01 
  60007.6176     0.38089E+01 
  60039.8798     0.37226E+01 
  60072.1419     0.36374E+01 
  60104.4041     0.35532E+01 
  60136.6662     0.34701E+01 
  60168.9284     0.33881E+01 
  60201.1906     0.33071E+01 
  60233.4527     0.32272E+01 
  60265.7149     0.31484E+01 
  60297.9770     0.30706E+01 
  60330.2392     0.29939E+01 
  60362.5014     0.29182E+01 
  60394.7635     0.28436E+01 
  60427.0257     0.27700E+01 
  60459.2878     0.26974E+01 
  60491.5500     0.26260E+01 
  60523.8122     0.25555E+01 
  60556.0743     0.24861E+01 
  60588.3365     0.24177E+01 
  60620.5986     0.23504E+01 
  60652.8608     0.22841E+01 
  60685.1230     0.22189E+01 
  60717.3851     0.21547E+01 
  60749.6473     0.20915E+01 
  60781.9094     0.20294E+01 
  60814.1716     0.19683E+01 
  60846.4338     0.19082E+01 
  60878.6959     0.18492E+01 
  60910.9581     0.17912E+01 
  60943.2202     0.17342E+01 
  60975.4824     0.16783E+01 
  61007.7446     0.16234E+01 
  61040.0067     0.15696E+01 
  61072.2689     0.15167E+01 
  61104.5310     0.14650E+01 
  61136.7932     0.14142E+01 
  61169.0554     0.13646E+01 
  61201.3175     0.13159E+01 
  61233.5797     0.12683E+01 
  61265.8418     0.12218E+01 
  61298.1040     0.11763E+01 
  61330.3662     0.11318E+01 
  61362.6283     0.10884E+01 
  61394.8905     0.10461E+01 
  61427.1526     0.10048E+01 
  61459.4148     0.96460E+00 
  61491.6770     0.92544E+00 
  61523.9391     0.88736E+00 
  61556.2013     0.85034E+00 
  61588.4634     0.81440E+00 
  61620.7256     0.77954E+00 
  61652.9878     0.74575E+00 
  61685.2499     0.71306E+00 
  61717.5121     0.68145E+00 
  61749.7742     0.65095E+00 
  61782.0364     0.62154E+00 
  61814.2986     0.59323E+00 
  61846.5607     0.56604E+00 
  61878.8229     0.53996E+00 
  61911.0850     0.51500E+00 
  61943.3472     0.49117E+00 
  61975.6094     0.46847E+00 
  62007.8715     0.44692E+00 
  62040.1337     0.42651E+00 
  62072.3958     0.40725E+00 
  62104.6580     0.38915E+00 
  62136.9202     0.37222E+00 
  62169.1823     0.35646E+00 
  62201.4445     0.34189E+00 
  62233.7066     0.32850E+00 
  62265.9688     0.31632E+00 
  62298.2310     0.30534E+00 
  62330.4931     0.29558E+00 
  62362.7553     0.28705E+00 
  62395.0174     0.27975E+00 
  62427.2796     0.27369E+00 
  62459.5418     0.26889E+00 
  62491.8039     0.26536E+00 
  62524.0661     0.26310E+00 
  62556.3282     0.26213E+00 
  62588.5904     0.26246E+00 
  62620.8526     0.26410E+00 
  62653.1147     0.26706E+00 
  62685.3769     0.27135E+00 
  62717.6390     0.27700E+00 
  62749.9012     0.28400E+00 
  62782.1634     0.29238E+00 
  62814.4255     0.30214E+00 
  62846.6877     0.31330E+00 
  62878.9498     0.32589E+00 
  62911.2120     0.33990E+00 
  62943.4742     0.35536E+00 
  62975.7363     0.37228E+00 
  63007.9985     0.39067E+00 
  63040.2606     0.41056E+00 
  63072.5228     0.43197E+00 
  63104.7850     0.45490E+00 
  63137.0471     0.47938E+00 
  63169.3093     0.50542E+00 
  63201.5714     0.53305E+00 
  63233.8336     0.56228E+00 
  63266.0958     0.59313E+00 
  63298.3579     0.62562E+00 
  63330.6201     0.65978E+00 
  63362.8822     0.69562E+00 
  63395.1444     0.73317E+00 
  63427.4066     0.77244E+00 
  63459.6687     0.81346E+00 
  63491.9309     0.85626E+00 
  63524.1930     0.90086E+00 
  63556.4552     0.94727E+00 
  63588.7174     0.99554E+00 
  63620.9795     0.10457E+01 
  63653.2417     0.10977E+01 
  63685.5038     0.11517E+01 
  63717.7660     0.12076E+01 
  63750.0282     0.12655E+01 
  63782.2903     0.13254E+01 
  63814.5525     0.13873E+01 
  63846.8146     0.14513E+01 
  63879.0768     0.15174E+01 
  63911.3390     0.15856E+01 
  63943.6011     0.16560E+01 
  63975.8633     0.17286E+01 
  64008.1254     0.18034E+01 
  64040.3876     0.18805E+01 
  64072.6498     0.19598E+01 
  64104.9119     0.20415E+01 
  64137.1741     0.21256E+01 
  64169.4362     0.22120E+01 
  64201.6984     0.23009E+01 
  64233.9606     0.23923E+01 
  64266.2227     0.24862E+01 
  64298.4849     0.25827E+01 
  64330.7470     0.26817E+01 
  64363.0092     0.27834E+01 
  64395.2714     0.28878E+01 
  64427.5335     0.29949E+01 
  64459.7957     0.31048E+01 
  64492.0578     0.32176E+01 
  64524.3200     0.33331E+01 
  64556.5822     0.34516E+01 
  64588.8443     0.35731E+01 
  64621.1065     0.36976E+01 
  64653.3686     0.38251E+01 
  64685.6308     0.39557E+01 
  64717.8930     0.40896E+01 
  64750.1551     0.42266E+01 
  64782.4173     0.43669E+01 
  64814.6794     0.45105E+01 
  64846.9416     0.46576E+01 
  64879.2038     0.48081E+01 
  64911.4659     0.49620E+01 
  64943.7281     0.51196E+01 
  64975.9902     0.52808E+01 
  65008.2524     0.54456E+01 
  65040.5146     0.56143E+01 
  65072.7767     0.57867E+01 
  65105.0389     0.59631E+01 
  65137.3010     0.61434E+01 
  65169.5632     0.63277E+01 
  65201.8254     0.65161E+01 
  65234.0875     0.67087E+01 
  65266.3497     0.69055E+01 
  65298.6118     0.71066E+01 
  65330.8740     0.73122E+01 
  65363.1362     0.75222E+01 
  65395.3983     0.77367E+01 
  65427.6605     0.79559E+01 
  65459.9226     0.81798E+01 
  65492.1848     0.84085E+01 
  65524.4470     0.86421E+01 
  65556.7091     0.88806E+01 
  65588.9713     0.91243E+01 
  65621.2334     0.93730E+01 
  65653.4956     0.96270E+01 
  65685.7578     0.98863E+01 
  65718.0199     0.10151E+02 
  65750.2821     0.10421E+02 
  65782.5442     0.10697E+02 
  65814.8064     0.10979E+02 
  65847.0686     0.11266E+02 
  65879.3307     0.11560E+02 
  65911.5929     0.11859E+02 
  65943.8550     0.12165E+02 
  65976.1172     0.12476E+02 
  66008.3794     0.12795E+02 
  66040.6415     0.13119E+02 
  66072.9037     0.13451E+02 
  66105.1658     0.13789E+02 
  66137.4280     0.14133E+02 
  66169.6902     0.14485E+02 
  66201.9523     0.14844E+02 
  66234.2145     0.15210E+02 
  66266.4766     0.15583E+02 
  66298.7388     0.15964E+02 
  66331.0010     0.16353E+02 
  66363.2631     0.16749E+02 
  66395.5253     0.17153E+02 
  66427.7874     0.17565E+02 
  66460.0496     0.17985E+02 
  66492.3118     0.18413E+02 
  66524.5739     0.18850E+02 
  66556.8361     0.19296E+02 
  66589.0982     0.19750E+02 
  66621.3604     0.20213E+02 
  66653.6226     0.20685E+02 
  66685.8847     0.21166E+02 
  66718.1469     0.21657E+02 
  66750.4090     0.22157E+02 
  66782.6712     0.22667E+02 
  66814.9334     0.23187E+02 
  66847.1955     0.23717E+02 
  66879.4577     0.24257E+02 
  66911.7198     0.24807E+02 
  66943.9820     0.25368E+02 
  66976.2442     0.25940E+02 
  67008.5063     0.26522E+02 
  67040.7685     0.27116E+02 
  67073.0306     0.27721E+02 
  67105.2928     0.28338E+02 
  67137.5550     0.28966E+02 
  67169.8171     0.29606E+02 
  67202.0793     0.30258E+02 
  67234.3414     0.30923E+02 
  67266.6036     0.31600E+02 
  67298.8658     0.32289E+02 
  67331.1279     0.32992E+02 
  67363.3901     0.33708E+02 
  67395.6522     0.34437E+02 
  67427.9144     0.35180E+02 
  67460.1766     0.35936E+02 
  67492.4387     0.36707E+02 
  67524.7009     0.37492E+02 
  67556.9630     0.38291E+02 
  67589.2252     0.39105E+02 
  67621.4874     0.39934E+02 
  67653.7495     0.40778E+02 
  67686.0117     0.41638E+02 
  67718.2738     0.42513E+02 
  67750.5360     0.43405E+02 
  67782.7982     0.44312E+02 
  67815.0603     0.45237E+02 
  67847.3225     0.46178E+02 
  67879.5846     0.47136E+02 
  67911.8468     0.48111E+02 
  67944.1090     0.49104E+02 
  67976.3711     0.50114E+02 
  68008.6333     0.51143E+02 
  68040.8954     0.52190E+02 
  68073.1576     0.53256E+02 
  68105.4198     0.54341E+02 
  68137.6819     0.55445E+02 
  68169.9441     0.56569E+02 
  68202.2062     0.57712E+02 
  68234.4684     0.58876E+02 
  68266.7306     0.60061E+02 
  68298.9927     0.61266E+02 
  68331.2549     0.62492E+02 
  68363.5170     0.63739E+02 
  68395.7792     0.65009E+02 
  68428.0414     0.66300E+02 
  68460.3035     0.67614E+02 
  68492.5657     0.68951E+02 
  68524.8278     0.70310E+02 
  68557.0900     0.71694E+02 
  68589.3522     0.73100E+02 
  68621.6143     0.74531E+02 
  68653.8765     0.75987E+02 
  68686.1386     0.77467E+02 
  68718.4008     0.78972E+02 
  68750.6630     0.80503E+02 
  68782.9251     0.82060E+02 
  68815.1873     0.83643E+02 
  68847.4494     0.85253E+02 
  68879.7116     0.86890E+02 
  68911.9738     0.88554E+02 
  68944.2359     0.90245E+02 
  68976.4981     0.91965E+02 
  69008.7602     0.93714E+02 
  69041.0224     0.95491E+02 
  69073.2846     0.97298E+02 
  69105.5467     0.99134E+02 
  69137.8089     0.10100E+03 
  69170.0710     0.10290E+03 
  69202.3332     0.10483E+03 
  69234.5954     0.10678E+03 
  69266.8575     0.10878E+03 
  69299.1197     0.11080E+03 
  69331.3818     0.11285E+03 
  69363.6440     0.11494E+03 
  69395.9062     0.11706E+03 
  69428.1683     0.11922E+03 
  69460.4305     0.12141E+03 
  69492.6926     0.12363E+03 
  69524.9548     0.12589E+03 
  69557.2170     0.12819E+03 
  69589.4791     0.13052E+03 
  69621.7413     0.13289E+03 
  69654.0034     0.13529E+03 
  69686.2656     0.13774E+03 
  69718.5278     0.14022E+03 
  69750.7899     0.14274E+03 
  69783.0521     0.14529E+03 
  69815.3142     0.14789E+03 
  69847.5764     0.15052E+03 
  69879.8386     0.15320E+03 
  69912.1007     0.15592E+03 
  69944.3629     0.15867E+03 
  69976.6250     0.16147E+03 
  70008.8872     0.16431E+03 
  70041.1494     0.16720E+03 
  70073.4115     0.17012E+03 
  70105.6737     0.17309E+03 
  70137.9358     0.17611E+03 
  70170.1980     0.17917E+03 
  70202.4602     0.18227E+03 
  70234.7223     0.18542E+03 
  70266.9845     0.18861E+03 
  70299.2466     0.19185E+03 
  70331.5088     0.19514E+03 
  70363.7710     0.19848E+03 
  70396.0331     0.20186E+03 
  70428.2953     0.20529E+03 
  70460.5574     0.20877E+03 
  70492.8196     0.21230E+03 
  70525.0818     0.21588E+03 
  70557.3439     0.21951E+03 
  70589.6061     0.22319E+03 
  70621.8682     0.22692E+03 
  70654.1304     0.23070E+03 
  70686.3926     0.23454E+03 
  70718.6547     0.23843E+03 
  70750.9169     0.24237E+03 
  70783.1790     0.24636E+03 
  70815.4412     0.25041E+03 
  70847.7034     0.25452E+03 
  70879.9655     0.25868E+03 
  70912.2277     0.26289E+03 
  70944.4898     0.26716E+03 
  70976.7520     0.27149E+03 
  71009.0142     0.27588E+03 
  71041.2763     0.28032E+03 
  71073.5385     0.28482E+03 
  71105.8006     0.28939E+03 
  71138.0628     0.29401E+03 
  71170.3250     0.29869E+03 
  71202.5871     0.30343E+03 
  71234.8493     0.30823E+03 
  71267.1114     0.31309E+03 
  71299.3736     0.31801E+03 
  71331.6358     0.32300E+03 
  71363.8979     0.32805E+03 
  71396.1601     0.33316E+03 
  71428.4222     0.33834E+03 
  71460.6844     0.34358E+03 
  71492.9466     0.34888E+03 
  71525.2087     0.35425E+03 
  71557.4709     0.35969E+03 
  71589.7330     0.36519E+03 
  71621.9952     0.37076E+03 
  71654.2574     0.37639E+03 
  71686.5195     0.38209E+03 
  71718.7817     0.38786E+03 
  71751.0438     0.39370E+03 
  71783.3060     0.39961E+03 
  71815.5682     0.40558E+03 
  71847.8303     0.41163E+03 
  71880.0925     0.41775E+03 
  71912.3546     0.42393E+03 
  71944.6168     0.43019E+03 
  71976.8790     0.43652E+03 
  72009.1411     0.44292E+03 
  72041.4033     0.44939E+03 
  72073.6654     0.45594E+03 
  72105.9276     0.46256E+03 
  72138.1898     0.46925E+03 
  72170.4519     0.47601E+03 
  72202.7141     0.48285E+03 
  72234.9762     0.48977E+03 
  72267.2384     0.49676E+03 
  72299.5006     0.50382E+03 
  72331.7627     0.51096E+03 
  72364.0249     0.51818E+03 
  72396.2870     0.52547E+03 
  72428.5492     0.53284E+03 
  72460.8114     0.54029E+03 
  72493.0735     0.54781E+03 
  72525.3357     0.55541E+03 
  72557.5978     0.56309E+03 
  72589.8600     0.57085E+03 
