  32262.1600     0.25179E+02 
  32294.4222     0.25534E+02 
  32326.6843     0.25893E+02 
  32358.9465     0.26255E+02 
  32391.2086     0.26620E+02 
  32423.4708     0.26989E+02 
  32455.7330     0.27361E+02 
  32487.9951     0.27736E+02 
  32520.2573     0.28116E+02 
  32552.5194     0.28498E+02 
  32584.7816     0.28884E+02 
  32617.0438     0.29273E+02 
  32649.3059     0.29666E+02 
  32681.5681     0.30062E+02 
  32713.8302     0.30462E+02 
  32746.0924     0.30865E+02 
  32778.3546     0.31271E+02 
  32810.6167     0.31681E+02 
  32842.8789     0.32094E+02 
  32875.1410     0.32511E+02 
  32907.4032     0.32931E+02 
  32939.6654     0.33354E+02 
  32971.9275     0.33781E+02 
  33004.1897     0.34211E+02 
  33036.4518     0.34645E+02 
  33068.7140     0.35081E+02 
  33100.9762     0.35522E+02 
  33133.2383     0.35965E+02 
  33165.5005     0.36412E+02 
  33197.7626     0.36863E+02 
  33230.0248     0.37316E+02 
  33262.2870     0.37773E+02 
  33294.5491     0.38233E+02 
  33326.8113     0.38697E+02 
  33359.0734     0.39164E+02 
  33391.3356     0.39634E+02 
  33423.5978     0.40107E+02 
  33455.8599     0.40583E+02 
  33488.1221     0.41063E+02 
  33520.3842     0.41546E+02 
  33552.6464     0.42032E+02 
  33584.9086     0.42521E+02 
  33617.1707     0.43014E+02 
  33649.4329     0.43509E+02 
  33681.6950     0.44008E+02 
  33713.9572     0.44509E+02 
  33746.2194     0.45014E+02 
  33778.4815     0.45522E+02 
  33810.7437     0.46033E+02 
  33843.0058     0.46547E+02 
  33875.2680     0.47063E+02 
  33907.5302     0.47583E+02 
  33939.7923     0.48106E+02 
  33972.0545     0.48631E+02 
  34004.3166     0.49160E+02 
  34036.5788     0.49691E+02 
  34068.8410     0.50225E+02 
  34101.1031     0.50762E+02 
  34133.3653     0.51302E+02 
  34165.6274     0.51845E+02 
  34197.8896     0.52390E+02 
  34230.1518     0.52938E+02 
  34262.4139     0.53488E+02 
  34294.6761     0.54041E+02 
  34326.9382     0.54597E+02 
  34359.2004     0.55156E+02 
  34391.4626     0.55716E+02 
  34423.7247     0.56280E+02 
  34455.9869     0.56846E+02 
  34488.2490     0.57414E+02 
  34520.5112     0.57985E+02 
  34552.7734     0.58558E+02 
  34585.0355     0.59133E+02 
  34617.2977     0.59711E+02 
  34649.5598     0.60291E+02 
  34681.8220     0.60873E+02 
  34714.0842     0.61457E+02 
  34746.3463     0.62044E+02 
  34778.6085     0.62632E+02 
  34810.8706     0.63223E+02 
  34843.1328     0.63816E+02 
  34875.3950     0.64410E+02 
  34907.6571     0.65007E+02 
  34939.9193     0.65606E+02 
  34972.1814     0.66206E+02 
  35004.4436     0.66808E+02 
  35036.7058     0.67412E+02 
  35068.9679     0.68018E+02 
  35101.2301     0.68626E+02 
  35133.4922     0.69235E+02 
  35165.7544     0.69846E+02 
  35198.0166     0.70458E+02 
  35230.2787     0.71072E+02 
  35262.5409     0.71687E+02 
  35294.8030     0.72304E+02 
  35327.0652     0.72922E+02 
  35359.3274     0.73542E+02 
  35391.5895     0.74162E+02 
  35423.8517     0.74784E+02 
  35456.1138     0.75408E+02 
  35488.3760     0.76032E+02 
  35520.6382     0.76657E+02 
  35552.9003     0.77284E+02 
  35585.1625     0.77911E+02 
  35617.4246     0.78540E+02 
  35649.6868     0.79169E+02 
  35681.9490     0.79800E+02 
  35714.2111     0.80431E+02 
  35746.4733     0.81062E+02 
  35778.7354     0.81695E+02 
  35810.9976     0.82328E+02 
  35843.2598     0.82962E+02 
  35875.5219     0.83596E+02 
  35907.7841     0.84231E+02 
  35940.0462     0.84866E+02 
  35972.3084     0.85502E+02 
  36004.5706     0.86138E+02 
  36036.8327     0.86774E+02 
  36069.0949     0.87411E+02 
  36101.3570     0.88047E+02 
  36133.6192     0.88684E+02 
  36165.8814     0.89321E+02 
  36198.1435     0.89958E+02 
  36230.4057     0.90595E+02 
  36262.6678     0.91232E+02 
  36294.9300     0.91868E+02 
  36327.1922     0.92505E+02 
  36359.4543     0.93141E+02 
  36391.7165     0.93777E+02 
  36423.9786     0.94412E+02 
  36456.2408     0.95048E+02 
  36488.5030     0.95682E+02 
  36520.7651     0.96316E+02 
  36553.0273     0.96950E+02 
  36585.2894     0.97583E+02 
  36617.5516     0.98215E+02 
  36649.8138     0.98847E+02 
  36682.0759     0.99477E+02 
  36714.3381     0.10011E+03 
  36746.6002     0.10074E+03 
  36778.8624     0.10136E+03 
  36811.1246     0.10199E+03 
  36843.3867     0.10262E+03 
  36875.6489     0.10324E+03 
  36907.9110     0.10387E+03 
  36940.1732     0.10449E+03 
  36972.4354     0.10511E+03 
  37004.6975     0.10573E+03 
  37036.9597     0.10635E+03 
  37069.2218     0.10696E+03 
  37101.4840     0.10758E+03 
  37133.7462     0.10819E+03 
  37166.0083     0.10880E+03 
  37198.2705     0.10942E+03 
  37230.5326     0.11002E+03 
  37262.7948     0.11063E+03 
  37295.0570     0.11124E+03 
  37327.3191     0.11184E+03 
  37359.5813     0.11244E+03 
  37391.8434     0.11304E+03 
  37424.1056     0.11364E+03 
  37456.3678     0.11423E+03 
  37488.6299     0.11483E+03 
  37520.8921     0.11542E+03 
  37553.1542     0.11600E+03 
  37585.4164     0.11659E+03 
  37617.6786     0.11717E+03 
  37649.9407     0.11776E+03 
  37682.2029     0.11833E+03 
  37714.4650     0.11891E+03 
  37746.7272     0.11948E+03 
  37778.9894     0.12006E+03 
  37811.2515     0.12062E+03 
  37843.5137     0.12119E+03 
  37875.7758     0.12175E+03 
  37908.0380     0.12231E+03 
  37940.3002     0.12287E+03 
  37972.5623     0.12342E+03 
  38004.8245     0.12398E+03 
  38037.0866     0.12452E+03 
  38069.3488     0.12507E+03 
  38101.6110     0.12561E+03 
  38133.8731     0.12615E+03 
  38166.1353     0.12669E+03 
  38198.3974     0.12722E+03 
  38230.6596     0.12775E+03 
  38262.9218     0.12827E+03 
  38295.1839     0.12880E+03 
  38327.4461     0.12932E+03 
  38359.7082     0.12983E+03 
  38391.9704     0.13034E+03 
  38424.2326     0.13085E+03 
  38456.4947     0.13136E+03 
  38488.7569     0.13186E+03 
  38521.0190     0.13236E+03 
  38553.2812     0.13285E+03 
  38585.5434     0.13334E+03 
  38617.8055     0.13383E+03 
  38650.0677     0.13431E+03 
  38682.3298     0.13479E+03 
  38714.5920     0.13526E+03 
  38746.8542     0.13573E+03 
  38779.1163     0.13620E+03 
  38811.3785     0.13666E+03 
  38843.6406     0.13712E+03 
  38875.9028     0.13757E+03 
  38908.1650     0.13802E+03 
  38940.4271     0.13847E+03 
  38972.6893     0.13891E+03 
  39004.9514     0.13935E+03 
  39037.2136     0.13978E+03 
  39069.4758     0.14021E+03 
  39101.7379     0.14063E+03 
  39134.0001     0.14105E+03 
  39166.2622     0.14147E+03 
  39198.5244     0.14188E+03 
  39230.7866     0.14228E+03 
  39263.0487     0.14268E+03 
  39295.3109     0.14308E+03 
  39327.5730     0.14347E+03 
  39359.8352     0.14386E+03 
  39392.0974     0.14424E+03 
  39424.3595     0.14462E+03 
  39456.6217     0.14500E+03 
  39488.8838     0.14537E+03 
  39521.1460     0.14573E+03 
  39553.4082     0.14609E+03 
  39585.6703     0.14644E+03 
  39617.9325     0.14679E+03 
  39650.1946     0.14714E+03 
  39682.4568     0.14748E+03 
  39714.7190     0.14781E+03 
  39746.9811     0.14814E+03 
  39779.2433     0.14847E+03 
  39811.5054     0.14879E+03 
  39843.7676     0.14910E+03 
  39876.0298     0.14941E+03 
  39908.2919     0.14972E+03 
  39940.5541     0.15002E+03 
  39972.8162     0.15031E+03 
  40005.0784     0.15060E+03 
  40037.3406     0.15089E+03 
  40069.6027     0.15117E+03 
  40101.8649     0.15144E+03 
  40134.1270     0.15171E+03 
  40166.3892     0.15197E+03 
  40198.6514     0.15223E+03 
  40230.9135     0.15249E+03 
  40263.1757     0.15273E+03 
  40295.4378     0.15298E+03 
  40327.7000     0.15321E+03 
  40359.9622     0.15345E+03 
  40392.2243     0.15367E+03 
  40424.4865     0.15390E+03 
  40456.7486     0.15411E+03 
  40489.0108     0.15432E+03 
  40521.2730     0.15453E+03 
  40553.5351     0.15473E+03 
  40585.7973     0.15492E+03 
  40618.0594     0.15511E+03 
  40650.3216     0.15530E+03 
  40682.5838     0.15548E+03 
  40714.8459     0.15565E+03 
  40747.1081     0.15582E+03 
  40779.3702     0.15598E+03 
  40811.6324     0.15614E+03 
  40843.8946     0.15629E+03 
  40876.1567     0.15644E+03 
  40908.4189     0.15658E+03 
  40940.6810     0.15672E+03 
  40972.9432     0.15685E+03 
  41005.2054     0.15697E+03 
  41037.4675     0.15709E+03 
  41069.7297     0.15721E+03 
  41101.9918     0.15732E+03 
  41134.2540     0.15742E+03 
  41166.5162     0.15752E+03 
  41198.7783     0.15761E+03 
  41231.0405     0.15770E+03 
  41263.3026     0.15778E+03 
  41295.5648     0.15786E+03 
  41327.8270     0.15793E+03 
  41360.0891     0.15799E+03 
  41392.3513     0.15806E+03 
  41424.6134     0.15811E+03 
  41456.8756     0.15816E+03 
  41489.1378     0.15821E+03 
  41521.3999     0.15825E+03 
  41553.6621     0.15828E+03 
  41585.9242     0.15831E+03 
  41618.1864     0.15833E+03 
  41650.4486     0.15835E+03 
  41682.7107     0.15836E+03 
  41714.9729     0.15837E+03 
  41747.2350     0.15837E+03 
  41779.4972     0.15837E+03 
  41811.7594     0.15836E+03 
  41844.0215     0.15835E+03 
  41876.2837     0.15833E+03 
  41908.5458     0.15831E+03 
  41940.8080     0.15828E+03 
  41973.0702     0.15824E+03 
  42005.3323     0.15821E+03 
  42037.5945     0.15816E+03 
  42069.8566     0.15811E+03 
  42102.1188     0.15806E+03 
  42134.3810     0.15800E+03 
  42166.6431     0.15793E+03 
  42198.9053     0.15786E+03 
  42231.1674     0.15779E+03 
  42263.4296     0.15771E+03 
  42295.6918     0.15763E+03 
  42327.9539     0.15754E+03 
  42360.2161     0.15744E+03 
  42392.4782     0.15734E+03 
  42424.7404     0.15724E+03 
  42457.0026     0.15713E+03 
  42489.2647     0.15702E+03 
  42521.5269     0.15690E+03 
  42553.7890     0.15677E+03 
  42586.0512     0.15665E+03 
  42618.3134     0.15651E+03 
  42650.5755     0.15638E+03 
  42682.8377     0.15623E+03 
  42715.0998     0.15609E+03 
  42747.3620     0.15593E+03 
  42779.6242     0.15578E+03 
  42811.8863     0.15562E+03 
  42844.1485     0.15545E+03 
  42876.4106     0.15528E+03 
  42908.6728     0.15511E+03 
  42940.9350     0.15493E+03 
  42973.1971     0.15474E+03 
  43005.4593     0.15455E+03 
  43037.7214     0.15436E+03 
  43069.9836     0.15416E+03 
  43102.2458     0.15396E+03 
  43134.5079     0.15376E+03 
  43166.7701     0.15355E+03 
  43199.0322     0.15333E+03 
  43231.2944     0.15311E+03 
  43263.5566     0.15289E+03 
  43295.8187     0.15266E+03 
  43328.0809     0.15243E+03 
  43360.3430     0.15220E+03 
  43392.6052     0.15196E+03 
  43424.8674     0.15172E+03 
  43457.1295     0.15147E+03 
  43489.3917     0.15122E+03 
  43521.6538     0.15096E+03 
  43553.9160     0.15070E+03 
  43586.1782     0.15044E+03 
  43618.4403     0.15017E+03 
  43650.7025     0.14990E+03 
  43682.9646     0.14962E+03 
  43715.2268     0.14935E+03 
  43747.4890     0.14906E+03 
  43779.7511     0.14878E+03 
  43812.0133     0.14849E+03 
  43844.2754     0.14819E+03 
  43876.5376     0.14790E+03 
  43908.7998     0.14760E+03 
  43941.0619     0.14729E+03 
  43973.3241     0.14698E+03 
  44005.5862     0.14667E+03 
  44037.8484     0.14636E+03 
  44070.1106     0.14604E+03 
  44102.3727     0.14572E+03 
  44134.6349     0.14539E+03 
  44166.8970     0.14507E+03 
  44199.1592     0.14473E+03 
  44231.4214     0.14440E+03 
  44263.6835     0.14406E+03 
  44295.9457     0.14372E+03 
  44328.2078     0.14338E+03 
  44360.4700     0.14303E+03 
  44392.7322     0.14268E+03 
  44424.9943     0.14232E+03 
  44457.2565     0.14197E+03 
  44489.5186     0.14161E+03 
  44521.7808     0.14125E+03 
  44554.0430     0.14088E+03 
  44586.3051     0.14051E+03 
  44618.5673     0.14014E+03 
  44650.8294     0.13977E+03 
  44683.0916     0.13939E+03 
  44715.3538     0.13901E+03 
  44747.6159     0.13863E+03 
  44779.8781     0.13825E+03 
  44812.1402     0.13786E+03 
  44844.4024     0.13747E+03 
  44876.6646     0.13708E+03 
  44908.9267     0.13668E+03 
  44941.1889     0.13628E+03 
  44973.4510     0.13588E+03 
  45005.7132     0.13548E+03 
  45037.9754     0.13508E+03 
  45070.2375     0.13467E+03 
  45102.4997     0.13426E+03 
  45134.7618     0.13385E+03 
  45167.0240     0.13344E+03 
  45199.2862     0.13302E+03 
  45231.5483     0.13260E+03 
  45263.8105     0.13218E+03 
  45296.0726     0.13176E+03 
  45328.3348     0.13134E+03 
  45360.5970     0.13091E+03 
  45392.8591     0.13048E+03 
  45425.1213     0.13005E+03 
  45457.3834     0.12962E+03 
  45489.6456     0.12919E+03 
  45521.9078     0.12875E+03 
  45554.1699     0.12832E+03 
  45586.4321     0.12788E+03 
  45618.6942     0.12744E+03 
  45650.9564     0.12699E+03 
  45683.2186     0.12655E+03 
  45715.4807     0.12610E+03 
  45747.7429     0.12566E+03 
  45780.0050     0.12521E+03 
  45812.2672     0.12476E+03 
  45844.5294     0.12430E+03 
  45876.7915     0.12385E+03 
  45909.0537     0.12340E+03 
  45941.3158     0.12294E+03 
  45973.5780     0.12248E+03 
  46005.8402     0.12202E+03 
  46038.1023     0.12156E+03 
  46070.3645     0.12110E+03 
  46102.6266     0.12064E+03 
  46134.8888     0.12018E+03 
  46167.1510     0.11971E+03 
  46199.4131     0.11925E+03 
  46231.6753     0.11878E+03 
  46263.9374     0.11831E+03 
  46296.1996     0.11784E+03 
  46328.4618     0.11737E+03 
  46360.7239     0.11690E+03 
  46392.9861     0.11643E+03 
  46425.2482     0.11596E+03 
  46457.5104     0.11548E+03 
  46489.7726     0.11501E+03 
  46522.0347     0.11453E+03 
  46554.2969     0.11406E+03 
  46586.5590     0.11358E+03 
  46618.8212     0.11310E+03 
  46651.0834     0.11262E+03 
  46683.3455     0.11214E+03 
  46715.6077     0.11167E+03 
  46747.8698     0.11119E+03 
  46780.1320     0.11070E+03 
  46812.3942     0.11022E+03 
  46844.6563     0.10974E+03 
  46876.9185     0.10926E+03 
  46909.1806     0.10878E+03 
  46941.4428     0.10829E+03 
  46973.7050     0.10781E+03 
  47005.9671     0.10733E+03 
  47038.2293     0.10684E+03 
  47070.4914     0.10636E+03 
  47102.7536     0.10588E+03 
  47135.0158     0.10539E+03 
  47167.2779     0.10491E+03 
  47199.5401     0.10442E+03 
  47231.8022     0.10394E+03 
  47264.0644     0.10345E+03 
  47296.3266     0.10297E+03 
  47328.5887     0.10248E+03 
  47360.8509     0.10200E+03 
  47393.1130     0.10151E+03 
  47425.3752     0.10102E+03 
  47457.6374     0.10054E+03 
  47489.8995     0.10005E+03 
  47522.1617     0.99568E+02 
  47554.4238     0.99083E+02 
  47586.6860     0.98598E+02 
  47618.9482     0.98113E+02 
  47651.2103     0.97629E+02 
  47683.4725     0.97144E+02 
  47715.7346     0.96660E+02 
  47747.9968     0.96176E+02 
  47780.2590     0.95693E+02 
  47812.5211     0.95209E+02 
  47844.7833     0.94726E+02 
  47877.0454     0.94244E+02 
  47909.3076     0.93762E+02 
  47941.5698     0.93280E+02 
  47973.8319     0.92798E+02 
  48006.0941     0.92317E+02 
  48038.3562     0.91837E+02 
  48070.6184     0.91357E+02 
  48102.8806     0.90877E+02 
  48135.1427     0.90398E+02 
  48167.4049     0.89920E+02 
  48199.6670     0.89442E+02 
  48231.9292     0.88965E+02 
  48264.1914     0.88488E+02 
  48296.4535     0.88012E+02 
  48328.7157     0.87537E+02 
  48360.9778     0.87063E+02 
  48393.2400     0.86589E+02 
  48425.5022     0.86115E+02 
  48457.7643     0.85643E+02 
  48490.0265     0.85171E+02 
  48522.2886     0.84700E+02 
  48554.5508     0.84230E+02 
  48586.8130     0.83761E+02 
  48619.0751     0.83292E+02 
  48651.3373     0.82825E+02 
  48683.5994     0.82358E+02 
  48715.8616     0.81892E+02 
  48748.1238     0.81427E+02 
  48780.3859     0.80963E+02 
  48812.6481     0.80499E+02 
  48844.9102     0.80037E+02 
  48877.1724     0.79576E+02 
  48909.4346     0.79116E+02 
  48941.6967     0.78656E+02 
  48973.9589     0.78198E+02 
  49006.2210     0.77741E+02 
  49038.4832     0.77285E+02 
  49070.7454     0.76830E+02 
  49103.0075     0.76375E+02 
  49135.2697     0.75923E+02 
  49167.5318     0.75471E+02 
  49199.7940     0.75020E+02 
  49232.0562     0.74570E+02 
  49264.3183     0.74122E+02 
  49296.5805     0.73674E+02 
  49328.8426     0.73228E+02 
  49361.1048     0.72783E+02 
  49393.3670     0.72340E+02 
  49425.6291     0.71897E+02 
  49457.8913     0.71456E+02 
  49490.1534     0.71015E+02 
  49522.4156     0.70577E+02 
  49554.6778     0.70139E+02 
  49586.9399     0.69703E+02 
  49619.2021     0.69268E+02 
  49651.4642     0.68834E+02 
  49683.7264     0.68401E+02 
  49715.9886     0.67970E+02 
  49748.2507     0.67540E+02 
  49780.5129     0.67112E+02 
  49812.7750     0.66685E+02 
  49845.0372     0.66259E+02 
  49877.2994     0.65835E+02 
  49909.5615     0.65412E+02 
  49941.8237     0.64990E+02 
  49974.0858     0.64570E+02 
  50006.3480     0.64151E+02 
  50038.6102     0.63733E+02 
  50070.8723     0.63317E+02 
  50103.1345     0.62903E+02 
  50135.3966     0.62490E+02 
  50167.6588     0.62078E+02 
  50199.9210     0.61668E+02 
  50232.1831     0.61259E+02 
  50264.4453     0.60852E+02 
  50296.7074     0.60446E+02 
  50328.9696     0.60041E+02 
  50361.2318     0.59638E+02 
  50393.4939     0.59237E+02 
  50425.7561     0.58837E+02 
  50458.0182     0.58439E+02 
  50490.2804     0.58042E+02 
  50522.5426     0.57647E+02 
  50554.8047     0.57253E+02 
  50587.0669     0.56861E+02 
  50619.3290     0.56470E+02 
  50651.5912     0.56081E+02 
  50683.8534     0.55693E+02 
  50716.1155     0.55307E+02 
  50748.3777     0.54923E+02 
  50780.6398     0.54540E+02 
  50812.9020     0.54158E+02 
  50845.1642     0.53779E+02 
  50877.4263     0.53400E+02 
  50909.6885     0.53024E+02 
  50941.9506     0.52649E+02 
  50974.2128     0.52275E+02 
  51006.4750     0.51903E+02 
  51038.7371     0.51533E+02 
  51070.9993     0.51165E+02 
  51103.2614     0.50798E+02 
  51135.5236     0.50432E+02 
  51167.7858     0.50068E+02 
  51200.0479     0.49706E+02 
  51232.3101     0.49346E+02 
  51264.5722     0.48987E+02 
  51296.8344     0.48629E+02 
  51329.0966     0.48274E+02 
  51361.3587     0.47920E+02 
  51393.6209     0.47567E+02 
  51425.8830     0.47216E+02 
  51458.1452     0.46867E+02 
  51490.4074     0.46520E+02 
  51522.6695     0.46174E+02 
  51554.9317     0.45829E+02 
  51587.1938     0.45487E+02 
  51619.4560     0.45146E+02 
  51651.7182     0.44807E+02 
  51683.9803     0.44469E+02 
  51716.2425     0.44133E+02 
  51748.5046     0.43798E+02 
  51780.7668     0.43466E+02 
  51813.0290     0.43134E+02 
  51845.2911     0.42805E+02 
  51877.5533     0.42477E+02 
  51909.8154     0.42151E+02 
  51942.0776     0.41826E+02 
  51974.3398     0.41503E+02 
  52006.6019     0.41182E+02 
  52038.8641     0.40863E+02 
  52071.1262     0.40545E+02 
  52103.3884     0.40228E+02 
  52135.6506     0.39913E+02 
  52167.9127     0.39600E+02 
  52200.1749     0.39289E+02 
  52232.4370     0.38979E+02 
  52264.6992     0.38671E+02 
  52296.9614     0.38365E+02 
  52329.2235     0.38060E+02 
  52361.4857     0.37756E+02 
  52393.7478     0.37455E+02 
  52426.0100     0.37155E+02 
  52458.2722     0.36856E+02 
  52490.5343     0.36560E+02 
  52522.7965     0.36264E+02 
  52555.0586     0.35971E+02 
  52587.3208     0.35679E+02 
  52619.5830     0.35389E+02 
  52651.8451     0.35100E+02 
  52684.1073     0.34813E+02 
  52716.3694     0.34528E+02 
  52748.6316     0.34244E+02 
  52780.8938     0.33962E+02 
  52813.1559     0.33681E+02 
  52845.4181     0.33402E+02 
  52877.6802     0.33125E+02 
  52909.9424     0.32849E+02 
  52942.2046     0.32574E+02 
  52974.4667     0.32302E+02 
  53006.7289     0.32031E+02 
  53038.9910     0.31761E+02 
  53071.2532     0.31493E+02 
  53103.5154     0.31227E+02 
  53135.7775     0.30962E+02 
  53168.0397     0.30699E+02 
  53200.3018     0.30437E+02 
  53232.5640     0.30177E+02 
  53264.8262     0.29918E+02 
  53297.0883     0.29661E+02 
  53329.3505     0.29406E+02 
  53361.6126     0.29152E+02 
  53393.8748     0.28900E+02 
  53426.1370     0.28649E+02 
  53458.3991     0.28399E+02 
  53490.6613     0.28152E+02 
  53522.9234     0.27905E+02 
  53555.1856     0.27661E+02 
  53587.4478     0.27417E+02 
  53619.7099     0.27176E+02 
  53651.9721     0.26935E+02 
  53684.2342     0.26697E+02 
  53716.4964     0.26459E+02 
  53748.7586     0.26224E+02 
  53781.0207     0.25989E+02 
  53813.2829     0.25757E+02 
  53845.5450     0.25525E+02 
  53877.8072     0.25295E+02 
  53910.0694     0.25067E+02 
  53942.3315     0.24840E+02 
  53974.5937     0.24615E+02 
  54006.8558     0.24391E+02 
  54039.1180     0.24168E+02 
  54071.3802     0.23947E+02 
  54103.6423     0.23727E+02 
  54135.9045     0.23509E+02 
  54168.1666     0.23292E+02 
  54200.4288     0.23077E+02 
  54232.6910     0.22863E+02 
  54264.9531     0.22650E+02 
  54297.2153     0.22439E+02 
  54329.4774     0.22229E+02 
  54361.7396     0.22021E+02 
  54394.0018     0.21814E+02 
  54426.2639     0.21608E+02 
  54458.5261     0.21404E+02 
  54490.7882     0.21201E+02 
  54523.0504     0.21000E+02 
  54555.3126     0.20800E+02 
  54587.5747     0.20601E+02 
  54619.8369     0.20403E+02 
  54652.0990     0.20207E+02 
  54684.3612     0.20012E+02 
  54716.6234     0.19819E+02 
  54748.8855     0.19627E+02 
  54781.1477     0.19436E+02 
  54813.4098     0.19247E+02 
  54845.6720     0.19059E+02 
  54877.9342     0.18872E+02 
  54910.1963     0.18686E+02 
  54942.4585     0.18502E+02 
  54974.7206     0.18319E+02 
  55006.9828     0.18137E+02 
  55039.2450     0.17957E+02 
  55071.5071     0.17778E+02 
  55103.7693     0.17600E+02 
  55136.0314     0.17424E+02 
  55168.2936     0.17248E+02 
  55200.5558     0.17074E+02 
  55232.8179     0.16901E+02 
  55265.0801     0.16730E+02 
  55297.3422     0.16559E+02 
  55329.6044     0.16390E+02 
  55361.8666     0.16222E+02 
  55394.1287     0.16055E+02 
  55426.3909     0.15890E+02 
  55458.6530     0.15726E+02 
  55490.9152     0.15563E+02 
  55523.1774     0.15401E+02 
  55555.4395     0.15240E+02 
  55587.7017     0.15080E+02 
  55619.9638     0.14922E+02 
  55652.2260     0.14765E+02 
  55684.4882     0.14609E+02 
  55716.7503     0.14454E+02 
  55749.0125     0.14300E+02 
  55781.2746     0.14147E+02 
  55813.5368     0.13996E+02 
  55845.7990     0.13845E+02 
  55878.0611     0.13696E+02 
  55910.3233     0.13548E+02 
  55942.5854     0.13401E+02 
  55974.8476     0.13255E+02 
  56007.1098     0.13110E+02 
  56039.3719     0.12967E+02 
  56071.6341     0.12824E+02 
  56103.8962     0.12683E+02 
  56136.1584     0.12542E+02 
  56168.4206     0.12403E+02 
  56200.6827     0.12265E+02 
  56232.9449     0.12127E+02 
  56265.2070     0.11991E+02 
  56297.4692     0.11856E+02 
  56329.7314     0.11722E+02 
  56361.9935     0.11589E+02 
  56394.2557     0.11457E+02 
  56426.5178     0.11326E+02 
  56458.7800     0.11196E+02 
  56491.0422     0.11067E+02 
  56523.3043     0.10939E+02 
  56555.5665     0.10812E+02 
  56587.8286     0.10686E+02 
  56620.0908     0.10561E+02 
  56652.3530     0.10438E+02 
  56684.6151     0.10315E+02 
  56716.8773     0.10193E+02 
  56749.1394     0.10072E+02 
  56781.4016     0.99516E+01 
  56813.6638     0.98325E+01 
  56845.9259     0.97144E+01 
  56878.1881     0.95973E+01 
  56910.4502     0.94811E+01 
  56942.7124     0.93658E+01 
  56974.9746     0.92514E+01 
  57007.2367     0.91380E+01 
  57039.4989     0.90255E+01 
  57071.7610     0.89140E+01 
  57104.0232     0.88033E+01 
  57136.2854     0.86936E+01 
  57168.5475     0.85847E+01 
  57200.8097     0.84768E+01 
  57233.0718     0.83697E+01 
  57265.3340     0.82635E+01 
  57297.5962     0.81583E+01 
  57329.8583     0.80539E+01 
  57362.1205     0.79503E+01 
  57394.3826     0.78477E+01 
  57426.6448     0.77458E+01 
  57458.9070     0.76449E+01 
  57491.1691     0.75448E+01 
  57523.4313     0.74456E+01 
  57555.6934     0.73472E+01 
  57587.9556     0.72496E+01 
  57620.2178     0.71529E+01 
  57652.4799     0.70570E+01 
  57684.7421     0.69619E+01 
  57717.0042     0.68676E+01 
  57749.2664     0.67742E+01 
  57781.5286     0.66815E+01 
  57813.7907     0.65897E+01 
  57846.0529     0.64986E+01 
  57878.3150     0.64084E+01 
  57910.5772     0.63190E+01 
  57942.8394     0.62303E+01 
  57975.1015     0.61424E+01 
  58007.3637     0.60553E+01 
  58039.6258     0.59690E+01 
  58071.8880     0.58834E+01 
  58104.1502     0.57986E+01 
  58136.4123     0.57146E+01 
  58168.6745     0.56313E+01 
  58200.9366     0.55488E+01 
  58233.1988     0.54670E+01 
  58265.4610     0.53859E+01 
  58297.7231     0.53056E+01 
  58329.9853     0.52261E+01 
  58362.2474     0.51472E+01 
  58394.5096     0.50691E+01 
  58426.7718     0.49917E+01 
  58459.0339     0.49150E+01 
  58491.2961     0.48391E+01 
  58523.5582     0.47638E+01 
  58555.8204     0.46893E+01 
  58588.0826     0.46154E+01 
  58620.3447     0.45423E+01 
  58652.6069     0.44698E+01 
  58684.8690     0.43981E+01 
  58717.1312     0.43270E+01 
  58749.3934     0.42566E+01 
  58781.6555     0.41869E+01 
  58813.9177     0.41179E+01 
  58846.1798     0.40495E+01 
  58878.4420     0.39818E+01 
  58910.7042     0.39148E+01 
  58942.9663     0.38485E+01 
  58975.2285     0.37828E+01 
  59007.4906     0.37177E+01 
  59039.7528     0.36533E+01 
  59072.0150     0.35896E+01 
  59104.2771     0.35265E+01 
  59136.5393     0.34640E+01 
  59168.8014     0.34022E+01 
  59201.0636     0.33411E+01 
  59233.3258     0.32805E+01 
  59265.5879     0.32206E+01 
  59297.8501     0.31613E+01 
  59330.1122     0.31027E+01 
  59362.3744     0.30446E+01 
  59394.6366     0.29872E+01 
  59426.8987     0.29304E+01 
  59459.1609     0.28742E+01 
  59491.4230     0.28186E+01 
  59523.6852     0.27636E+01 
  59555.9474     0.27093E+01 
  59588.2095     0.26555E+01 
  59620.4717     0.26024E+01 
  59652.7338     0.25498E+01 
  59684.9960     0.24978E+01 
  59717.2582     0.24464E+01 
  59749.5203     0.23957E+01 
  59781.7825     0.23455E+01 
  59814.0446     0.22958E+01 
  59846.3068     0.22468E+01 
  59878.5690     0.21984E+01 
  59910.8311     0.21505E+01 
  59943.0933     0.21032E+01 
  59975.3554     0.20565E+01 
  60007.6176     0.20104E+01 
  60039.8798     0.19648E+01 
  60072.1419     0.19198E+01 
  60104.4041     0.18754E+01 
  60136.6662     0.18315E+01 
  60168.9284     0.17882E+01 
  60201.1906     0.17455E+01 
  60233.4527     0.17033E+01 
  60265.7149     0.16617E+01 
  60297.9770     0.16207E+01 
  60330.2392     0.15802E+01 
  60362.5014     0.15402E+01 
  60394.7635     0.15008E+01 
  60427.0257     0.14620E+01 
  60459.2878     0.14237E+01 
  60491.5500     0.13860E+01 
  60523.8122     0.13488E+01 
  60556.0743     0.13122E+01 
  60588.3365     0.12761E+01 
  60620.5986     0.12406E+01 
  60652.8608     0.12056E+01 
  60685.1230     0.11712E+01 
  60717.3851     0.11373E+01 
  60749.6473     0.11039E+01 
  60781.9094     0.10711E+01 
  60814.1716     0.10389E+01 
  60846.4338     0.10072E+01 
  60878.6959     0.97600E+00 
  60910.9581     0.94537E+00 
  60943.2202     0.91529E+00 
  60975.4824     0.88574E+00 
  61007.7446     0.85674E+00 
  61040.0067     0.82828E+00 
  61072.2689     0.80037E+00 
  61104.5310     0.77299E+00 
  61136.7932     0.74616E+00 
  61169.0554     0.71988E+00 
  61201.3175     0.69413E+00 
  61233.5797     0.66893E+00 
  61265.8418     0.64428E+00 
  61298.1040     0.62017E+00 
  61330.3662     0.59660E+00 
  61362.6283     0.57358E+00 
  61394.8905     0.55111E+00 
  61427.1526     0.52919E+00 
  61459.4148     0.50782E+00 
  61491.6770     0.48699E+00 
  61523.9391     0.46672E+00 
  61556.2013     0.44700E+00 
  61588.4634     0.42784E+00 
  61620.7256     0.40923E+00 
  61652.9878     0.39118E+00 
  61685.2499     0.37369E+00 
  61717.5121     0.35676E+00 
  61749.7742     0.34039E+00 
  61782.0364     0.32458E+00 
  61814.2986     0.30935E+00 
  61846.5607     0.29468E+00 
  61878.8229     0.28058E+00 
  61911.0850     0.26705E+00 
  61943.3472     0.25410E+00 
  61975.6094     0.24173E+00 
  62007.8715     0.22994E+00 
  62040.1337     0.21873E+00 
  62072.3958     0.20811E+00 
  62104.6580     0.19808E+00 
  62136.9202     0.18864E+00 
  62169.1823     0.17979E+00 
  62201.4445     0.17155E+00 
  62233.7066     0.16390E+00 
  62265.9688     0.15686E+00 
  62298.2310     0.15044E+00 
  62330.4931     0.14462E+00 
  62362.7553     0.13943E+00 
  62395.0174     0.13485E+00 
  62427.2796     0.13090E+00 
  62459.5418     0.12758E+00 
  62491.8039     0.12490E+00 
  62524.0661     0.12285E+00 
  62556.3282     0.12145E+00 
  62588.5904     0.12070E+00 
  62620.8526     0.12060E+00 
  62653.1147     0.12116E+00 
  62685.3769     0.12239E+00 
  62717.6390     0.12428E+00 
  62749.9012     0.12686E+00 
  62782.1634     0.13011E+00 
  62814.4255     0.13405E+00 
  62846.6877     0.13869E+00 
  62878.9498     0.14403E+00 
  62911.2120     0.15007E+00 
  62943.4742     0.15683E+00 
  62975.7363     0.16431E+00 
  63007.9985     0.17251E+00 
  63040.2606     0.18145E+00 
  63072.5228     0.19114E+00 
  63104.7850     0.20157E+00 
  63137.0471     0.21277E+00 
  63169.3093     0.22473E+00 
  63201.5714     0.23746E+00 
  63233.8336     0.25098E+00 
  63266.0958     0.26529E+00 
  63298.3579     0.28040E+00 
  63330.6201     0.29633E+00 
  63362.8822     0.31307E+00 
  63395.1444     0.33064E+00 
  63427.4066     0.34905E+00 
  63459.6687     0.36831E+00 
  63491.9309     0.38844E+00 
  63524.1930     0.40943E+00 
  63556.4552     0.43130E+00 
  63588.7174     0.45407E+00 
  63620.9795     0.47775E+00 
  63653.2417     0.50234E+00 
  63685.5038     0.52785E+00 
  63717.7660     0.55431E+00 
  63750.0282     0.58173E+00 
  63782.2903     0.61011E+00 
  63814.5525     0.63947E+00 
  63846.8146     0.66982E+00 
  63879.0768     0.70119E+00 
  63911.3390     0.73357E+00 
  63943.6011     0.76699E+00 
  63975.8633     0.80146E+00 
  64008.1254     0.83700E+00 
  64040.3876     0.87363E+00 
  64072.6498     0.91135E+00 
  64104.9119     0.95019E+00 
  64137.1741     0.99016E+00 
  64169.4362     0.10313E+01 
  64201.6984     0.10736E+01 
  64233.9606     0.11170E+01 
  64266.2227     0.11617E+01 
  64298.4849     0.12076E+01 
  64330.7470     0.12548E+01 
  64363.0092     0.13032E+01 
  64395.2714     0.13528E+01 
  64427.5335     0.14038E+01 
  64459.7957     0.14561E+01 
  64492.0578     0.15098E+01 
  64524.3200     0.15648E+01 
  64556.5822     0.16213E+01 
  64588.8443     0.16791E+01 
  64621.1065     0.17384E+01 
  64653.3686     0.17991E+01 
  64685.6308     0.18613E+01 
  64717.8930     0.19251E+01 
  64750.1551     0.19903E+01 
  64782.4173     0.20572E+01 
  64814.6794     0.21256E+01 
  64846.9416     0.21956E+01 
  64879.2038     0.22673E+01 
  64911.4659     0.23407E+01 
  64943.7281     0.24158E+01 
  64975.9902     0.24926E+01 
  65008.2524     0.25712E+01 
  65040.5146     0.26516E+01 
  65072.7767     0.27339E+01 
  65105.0389     0.28180E+01 
  65137.3010     0.29040E+01 
  65169.5632     0.29919E+01 
  65201.8254     0.30818E+01 
  65234.0875     0.31737E+01 
  65266.3497     0.32677E+01 
  65298.6118     0.33637E+01 
  65330.8740     0.34619E+01 
  65363.1362     0.35622E+01 
  65395.3983     0.36648E+01 
  65427.6605     0.37695E+01 
  65459.9226     0.38766E+01 
  65492.1848     0.39860E+01 
  65524.4470     0.40977E+01 
  65556.7091     0.42119E+01 
  65588.9713     0.43286E+01 
  65621.2334     0.44477E+01 
  65653.4956     0.45694E+01 
  65685.7578     0.46938E+01 
  65718.0199     0.48207E+01 
  65750.2821     0.49504E+01 
  65782.5442     0.50829E+01 
  65814.8064     0.52182E+01 
  65847.0686     0.53563E+01 
  65879.3307     0.54974E+01 
  65911.5929     0.56414E+01 
  65943.8550     0.57885E+01 
  65976.1172     0.59387E+01 
  66008.3794     0.60921E+01 
  66040.6415     0.62487E+01 
  66072.9037     0.64085E+01 
  66105.1658     0.65718E+01 
  66137.4280     0.67384E+01 
  66169.6902     0.69085E+01 
  66201.9523     0.70822E+01 
  66234.2145     0.72595E+01 
  66266.4766     0.74405E+01 
  66298.7388     0.76252E+01 
  66331.0010     0.78138E+01 
  66363.2631     0.80064E+01 
  66395.5253     0.82029E+01 
  66427.7874     0.84035E+01 
  66460.0496     0.86082E+01 
  66492.3118     0.88172E+01 
  66524.5739     0.90305E+01 
  66556.8361     0.92482E+01 
  66589.0982     0.94704E+01 
  66621.3604     0.96971E+01 
  66653.6226     0.99286E+01 
  66685.8847     0.10165E+02 
  66718.1469     0.10406E+02 
  66750.4090     0.10652E+02 
  66782.6712     0.10903E+02 
  66814.9334     0.11159E+02 
  66847.1955     0.11421E+02 
  66879.4577     0.11687E+02 
  66911.7198     0.11960E+02 
  66943.9820     0.12238E+02 
  66976.2442     0.12521E+02 
  67008.5063     0.12810E+02 
  67040.7685     0.13106E+02 
  67073.0306     0.13407E+02 
  67105.2928     0.13714E+02 
  67137.5550     0.14028E+02 
  67169.8171     0.14348E+02 
  67202.0793     0.14674E+02 
  67234.3414     0.15007E+02 
  67266.6036     0.15347E+02 
  67298.8658     0.15694E+02 
  67331.1279     0.16048E+02 
  67363.3901     0.16409E+02 
  67395.6522     0.16777E+02 
  67427.9144     0.17153E+02 
  67460.1766     0.17536E+02 
  67492.4387     0.17927E+02 
  67524.7009     0.18326E+02 
  67556.9630     0.18733E+02 
  67589.2252     0.19148E+02 
  67621.4874     0.19571E+02 
  67653.7495     0.20003E+02 
  67686.0117     0.20443E+02 
  67718.2738     0.20892E+02 
  67750.5360     0.21351E+02 
  67782.7982     0.21818E+02 
  67815.0603     0.22295E+02 
  67847.3225     0.22781E+02 
  67879.5846     0.23277E+02 
  67911.8468     0.23782E+02 
  67944.1090     0.24298E+02 
  67976.3711     0.24824E+02 
  68008.6333     0.25360E+02 
  68040.8954     0.25907E+02 
  68073.1576     0.26465E+02 
  68105.4198     0.27033E+02 
  68137.6819     0.27613E+02 
  68169.9441     0.28204E+02 
  68202.2062     0.28807E+02 
  68234.4684     0.29421E+02 
  68266.7306     0.30048E+02 
  68298.9927     0.30687E+02 
  68331.2549     0.31338E+02 
  68363.5170     0.32002E+02 
  68395.7792     0.32678E+02 
  68428.0414     0.33368E+02 
  68460.3035     0.34071E+02 
  68492.5657     0.34788E+02 
  68524.8278     0.35518E+02 
  68557.0900     0.36263E+02 
  68589.3522     0.37021E+02 
  68621.6143     0.37795E+02 
  68653.8765     0.38583E+02 
  68686.1386     0.39386E+02 
  68718.4008     0.40204E+02 
  68750.6630     0.41038E+02 
  68782.9251     0.41887E+02 
  68815.1873     0.42753E+02 
  68847.4494     0.43635E+02 
  68879.7116     0.44534E+02 
  68911.9738     0.45449E+02 
  68944.2359     0.46382E+02 
  68976.4981     0.47332E+02 
  69008.7602     0.48299E+02 
  69041.0224     0.49285E+02 
  69073.2846     0.50289E+02 
  69105.5467     0.51312E+02 
  69137.8089     0.52353E+02 
  69170.0710     0.53413E+02 
  69202.3332     0.54493E+02 
  69234.5954     0.55593E+02 
  69266.8575     0.56713E+02 
  69299.1197     0.57853E+02 
  69331.3818     0.59014E+02 
  69363.6440     0.60196E+02 
  69395.9062     0.61399E+02 
  69428.1683     0.62624E+02 
  69460.4305     0.63871E+02 
  69492.6926     0.65140E+02 
  69524.9548     0.66432E+02 
  69557.2170     0.67747E+02 
  69589.4791     0.69085E+02 
  69621.7413     0.70447E+02 
  69654.0034     0.71833E+02 
  69686.2656     0.73243E+02 
  69718.5278     0.74678E+02 
  69750.7899     0.76137E+02 
  69783.0521     0.77623E+02 
  69815.3142     0.79134E+02 
  69847.5764     0.80671E+02 
  69879.8386     0.82234E+02 
  69912.1007     0.83825E+02 
  69944.3629     0.85442E+02 
  69976.6250     0.87087E+02 
  70008.8872     0.88760E+02 
  70041.1494     0.90462E+02 
  70073.4115     0.92192E+02 
  70105.6737     0.93951E+02 
  70137.9358     0.95739E+02 
  70170.1980     0.97558E+02 
  70202.4602     0.99406E+02 
  70234.7223     0.10129E+03 
  70266.9845     0.10320E+03 
  70299.2466     0.10514E+03 
  70331.5088     0.10711E+03 
  70363.7710     0.10912E+03 
  70396.0331     0.11115E+03 
  70428.2953     0.11322E+03 
  70460.5574     0.11533E+03 
  70492.8196     0.11747E+03 
  70525.0818     0.11964E+03 
  70557.3439     0.12184E+03 
  70589.6061     0.12409E+03 
  70621.8682     0.12636E+03 
  70654.1304     0.12868E+03 
  70686.3926     0.13102E+03 
  70718.6547     0.13341E+03 
  70750.9169     0.13583E+03 
  70783.1790     0.13829E+03 
  70815.4412     0.14079E+03 
  70847.7034     0.14332E+03 
  70879.9655     0.14590E+03 
  70912.2277     0.14851E+03 
  70944.4898     0.15116E+03 
  70976.7520     0.15385E+03 
  71009.0142     0.15659E+03 
  71041.2763     0.15936E+03 
  71073.5385     0.16217E+03 
  71105.8006     0.16503E+03 
  71138.0628     0.16793E+03 
  71170.3250     0.17086E+03 
  71202.5871     0.17385E+03 
  71234.8493     0.17687E+03 
  71267.1114     0.17994E+03 
  71299.3736     0.18305E+03 
  71331.6358     0.18621E+03 
  71363.8979     0.18941E+03 
  71396.1601     0.19266E+03 
  71428.4222     0.19595E+03 
  71460.6844     0.19928E+03 
  71492.9466     0.20267E+03 
  71525.2087     0.20610E+03 
  71557.4709     0.20957E+03 
  71589.7330     0.21310E+03 
  71621.9952     0.21667E+03 
  71654.2574     0.22029E+03 
  71686.5195     0.22396E+03 
  71718.7817     0.22768E+03 
  71751.0438     0.23144E+03 
  71783.3060     0.23526E+03 
  71815.5682     0.23912E+03 
  71847.8303     0.24304E+03 
  71880.0925     0.24701E+03 
  71912.3546     0.25102E+03 
  71944.6168     0.25509E+03 
  71976.8790     0.25922E+03 
  72009.1411     0.26339E+03 
  72041.4033     0.26761E+03 
  72073.6654     0.27189E+03 
  72105.9276     0.27622E+03 
  72138.1898     0.28061E+03 
  72170.4519     0.28504E+03 
  72202.7141     0.28954E+03 
  72234.9762     0.29408E+03 
  72267.2384     0.29868E+03 
  72299.5006     0.30334E+03 
  72331.7627     0.30805E+03 
  72364.0249     0.31282E+03 
  72396.2870     0.31764E+03 
  72428.5492     0.32252E+03 
  72460.8114     0.32745E+03 
  72493.0735     0.33244E+03 
  72525.3357     0.33749E+03 
  72557.5978     0.34260E+03 
  72589.8600     0.34776E+03 
