  32262.1600     0.84026E-01 
  32294.4222     0.84904E-01 
  32326.6843     0.85788E-01 
  32358.9465     0.86678E-01 
  32391.2086     0.87574E-01 
  32423.4708     0.88476E-01 
  32455.7330     0.89384E-01 
  32487.9951     0.90298E-01 
  32520.2573     0.91217E-01 
  32552.5194     0.92143E-01 
  32584.7816     0.93075E-01 
  32617.0438     0.94012E-01 
  32649.3059     0.94955E-01 
  32681.5681     0.95905E-01 
  32713.8302     0.96860E-01 
  32746.0924     0.97821E-01 
  32778.3546     0.98788E-01 
  32810.6167     0.99761E-01 
  32842.8789     0.10074E+00 
  32875.1410     0.10172E+00 
  32907.4032     0.10272E+00 
  32939.6654     0.10371E+00 
  32971.9275     0.10471E+00 
  33004.1897     0.10572E+00 
  33036.4518     0.10674E+00 
  33068.7140     0.10776E+00 
  33100.9762     0.10878E+00 
  33133.2383     0.10981E+00 
  33165.5005     0.11085E+00 
  33197.7626     0.11189E+00 
  33230.0248     0.11294E+00 
  33262.2870     0.11400E+00 
  33294.5491     0.11506E+00 
  33326.8113     0.11612E+00 
  33359.0734     0.11719E+00 
  33391.3356     0.11827E+00 
  33423.5978     0.11935E+00 
  33455.8599     0.12044E+00 
  33488.1221     0.12153E+00 
  33520.3842     0.12263E+00 
  33552.6464     0.12374E+00 
  33584.9086     0.12485E+00 
  33617.1707     0.12596E+00 
  33649.4329     0.12709E+00 
  33681.6950     0.12821E+00 
  33713.9572     0.12934E+00 
  33746.2194     0.13048E+00 
  33778.4815     0.13162E+00 
  33810.7437     0.13277E+00 
  33843.0058     0.13393E+00 
  33875.2680     0.13509E+00 
  33907.5302     0.13625E+00 
  33939.7923     0.13742E+00 
  33972.0545     0.13859E+00 
  34004.3166     0.13977E+00 
  34036.5788     0.14096E+00 
  34068.8410     0.14215E+00 
  34101.1031     0.14334E+00 
  34133.3653     0.14454E+00 
  34165.6274     0.14575E+00 
  34197.8896     0.14696E+00 
  34230.1518     0.14817E+00 
  34262.4139     0.14939E+00 
  34294.6761     0.15061E+00 
  34326.9382     0.15184E+00 
  34359.2004     0.15308E+00 
  34391.4626     0.15432E+00 
  34423.7247     0.15556E+00 
  34455.9869     0.15681E+00 
  34488.2490     0.15806E+00 
  34520.5112     0.15932E+00 
  34552.7734     0.16058E+00 
  34585.0355     0.16185E+00 
  34617.2977     0.16312E+00 
  34649.5598     0.16439E+00 
  34681.8220     0.16567E+00 
  34714.0842     0.16695E+00 
  34746.3463     0.16824E+00 
  34778.6085     0.16953E+00 
  34810.8706     0.17083E+00 
  34843.1328     0.17213E+00 
  34875.3950     0.17343E+00 
  34907.6571     0.17474E+00 
  34939.9193     0.17605E+00 
  34972.1814     0.17737E+00 
  35004.4436     0.17869E+00 
  35036.7058     0.18001E+00 
  35068.9679     0.18134E+00 
  35101.2301     0.18267E+00 
  35133.4922     0.18401E+00 
  35165.7544     0.18535E+00 
  35198.0166     0.18669E+00 
  35230.2787     0.18803E+00 
  35262.5409     0.18938E+00 
  35294.8030     0.19073E+00 
  35327.0652     0.19209E+00 
  35359.3274     0.19345E+00 
  35391.5895     0.19481E+00 
  35423.8517     0.19618E+00 
  35456.1138     0.19754E+00 
  35488.3760     0.19891E+00 
  35520.6382     0.20029E+00 
  35552.9003     0.20167E+00 
  35585.1625     0.20305E+00 
  35617.4246     0.20443E+00 
  35649.6868     0.20581E+00 
  35681.9490     0.20720E+00 
  35714.2111     0.20859E+00 
  35746.4733     0.20998E+00 
  35778.7354     0.21138E+00 
  35810.9976     0.21278E+00 
  35843.2598     0.21418E+00 
  35875.5219     0.21558E+00 
  35907.7841     0.21698E+00 
  35940.0462     0.21839E+00 
  35972.3084     0.21980E+00 
  36004.5706     0.22121E+00 
  36036.8327     0.22262E+00 
  36069.0949     0.22404E+00 
  36101.3570     0.22545E+00 
  36133.6192     0.22687E+00 
  36165.8814     0.22829E+00 
  36198.1435     0.22971E+00 
  36230.4057     0.23113E+00 
  36262.6678     0.23256E+00 
  36294.9300     0.23398E+00 
  36327.1922     0.23541E+00 
  36359.4543     0.23684E+00 
  36391.7165     0.23827E+00 
  36423.9786     0.23970E+00 
  36456.2408     0.24113E+00 
  36488.5030     0.24256E+00 
  36520.7651     0.24399E+00 
  36553.0273     0.24542E+00 
  36585.2894     0.24686E+00 
  36617.5516     0.24829E+00 
  36649.8138     0.24973E+00 
  36682.0759     0.25116E+00 
  36714.3381     0.25260E+00 
  36746.6002     0.25404E+00 
  36778.8624     0.25547E+00 
  36811.1246     0.25691E+00 
  36843.3867     0.25835E+00 
  36875.6489     0.25978E+00 
  36907.9110     0.26122E+00 
  36940.1732     0.26265E+00 
  36972.4354     0.26409E+00 
  37004.6975     0.26553E+00 
  37036.9597     0.26696E+00 
  37069.2218     0.26840E+00 
  37101.4840     0.26983E+00 
  37133.7462     0.27126E+00 
  37166.0083     0.27270E+00 
  37198.2705     0.27413E+00 
  37230.5326     0.27556E+00 
  37262.7948     0.27699E+00 
  37295.0570     0.27842E+00 
  37327.3191     0.27985E+00 
  37359.5813     0.28128E+00 
  37391.8434     0.28270E+00 
  37424.1056     0.28413E+00 
  37456.3678     0.28555E+00 
  37488.6299     0.28697E+00 
  37520.8921     0.28839E+00 
  37553.1542     0.28981E+00 
  37585.4164     0.29122E+00 
  37617.6786     0.29264E+00 
  37649.9407     0.29405E+00 
  37682.2029     0.29546E+00 
  37714.4650     0.29687E+00 
  37746.7272     0.29827E+00 
  37778.9894     0.29968E+00 
  37811.2515     0.30108E+00 
  37843.5137     0.30248E+00 
  37875.7758     0.30387E+00 
  37908.0380     0.30527E+00 
  37940.3002     0.30666E+00 
  37972.5623     0.30805E+00 
  38004.8245     0.30943E+00 
  38037.0866     0.31081E+00 
  38069.3488     0.31219E+00 
  38101.6110     0.31357E+00 
  38133.8731     0.31494E+00 
  38166.1353     0.31631E+00 
  38198.3974     0.31768E+00 
  38230.6596     0.31904E+00 
  38262.9218     0.32040E+00 
  38295.1839     0.32176E+00 
  38327.4461     0.32311E+00 
  38359.7082     0.32446E+00 
  38391.9704     0.32580E+00 
  38424.2326     0.32715E+00 
  38456.4947     0.32848E+00 
  38488.7569     0.32982E+00 
  38521.0190     0.33114E+00 
  38553.2812     0.33247E+00 
  38585.5434     0.33379E+00 
  38617.8055     0.33510E+00 
  38650.0677     0.33642E+00 
  38682.3298     0.33772E+00 
  38714.5920     0.33902E+00 
  38746.8542     0.34032E+00 
  38779.1163     0.34161E+00 
  38811.3785     0.34290E+00 
  38843.6406     0.34418E+00 
  38875.9028     0.34546E+00 
  38908.1650     0.34673E+00 
  38940.4271     0.34800E+00 
  38972.6893     0.34926E+00 
  39004.9514     0.35052E+00 
  39037.2136     0.35177E+00 
  39069.4758     0.35302E+00 
  39101.7379     0.35426E+00 
  39134.0001     0.35549E+00 
  39166.2622     0.35672E+00 
  39198.5244     0.35794E+00 
  39230.7866     0.35916E+00 
  39263.0487     0.36037E+00 
  39295.3109     0.36158E+00 
  39327.5730     0.36278E+00 
  39359.8352     0.36397E+00 
  39392.0974     0.36515E+00 
  39424.3595     0.36634E+00 
  39456.6217     0.36751E+00 
  39488.8838     0.36868E+00 
  39521.1460     0.36984E+00 
  39553.4082     0.37099E+00 
  39585.6703     0.37214E+00 
  39617.9325     0.37328E+00 
  39650.1946     0.37441E+00 
  39682.4568     0.37554E+00 
  39714.7190     0.37666E+00 
  39746.9811     0.37778E+00 
  39779.2433     0.37888E+00 
  39811.5054     0.37998E+00 
  39843.7676     0.38107E+00 
  39876.0298     0.38216E+00 
  39908.2919     0.38323E+00 
  39940.5541     0.38430E+00 
  39972.8162     0.38537E+00 
  40005.0784     0.38642E+00 
  40037.3406     0.38747E+00 
  40069.6027     0.38851E+00 
  40101.8649     0.38954E+00 
  40134.1270     0.39056E+00 
  40166.3892     0.39158E+00 
  40198.6514     0.39259E+00 
  40230.9135     0.39359E+00 
  40263.1757     0.39458E+00 
  40295.4378     0.39556E+00 
  40327.7000     0.39654E+00 
  40359.9622     0.39751E+00 
  40392.2243     0.39847E+00 
  40424.4865     0.39942E+00 
  40456.7486     0.40036E+00 
  40489.0108     0.40129E+00 
  40521.2730     0.40222E+00 
  40553.5351     0.40314E+00 
  40585.7973     0.40405E+00 
  40618.0594     0.40495E+00 
  40650.3216     0.40584E+00 
  40682.5838     0.40672E+00 
  40714.8459     0.40759E+00 
  40747.1081     0.40846E+00 
  40779.3702     0.40931E+00 
  40811.6324     0.41016E+00 
  40843.8946     0.41100E+00 
  40876.1567     0.41183E+00 
  40908.4189     0.41265E+00 
  40940.6810     0.41346E+00 
  40972.9432     0.41426E+00 
  41005.2054     0.41505E+00 
  41037.4675     0.41583E+00 
  41069.7297     0.41661E+00 
  41101.9918     0.41737E+00 
  41134.2540     0.41813E+00 
  41166.5162     0.41887E+00 
  41198.7783     0.41961E+00 
  41231.0405     0.42033E+00 
  41263.3026     0.42105E+00 
  41295.5648     0.42176E+00 
  41327.8270     0.42246E+00 
  41360.0891     0.42314E+00 
  41392.3513     0.42382E+00 
  41424.6134     0.42449E+00 
  41456.8756     0.42515E+00 
  41489.1378     0.42580E+00 
  41521.3999     0.42644E+00 
  41553.6621     0.42706E+00 
  41585.9242     0.42768E+00 
  41618.1864     0.42829E+00 
  41650.4486     0.42889E+00 
  41682.7107     0.42948E+00 
  41714.9729     0.43006E+00 
  41747.2350     0.43063E+00 
  41779.4972     0.43119E+00 
  41811.7594     0.43174E+00 
  41844.0215     0.43227E+00 
  41876.2837     0.43280E+00 
  41908.5458     0.43332E+00 
  41940.8080     0.43383E+00 
  41973.0702     0.43433E+00 
  42005.3323     0.43481E+00 
  42037.5945     0.43529E+00 
  42069.8566     0.43576E+00 
  42102.1188     0.43621E+00 
  42134.3810     0.43666E+00 
  42166.6431     0.43710E+00 
  42198.9053     0.43752E+00 
  42231.1674     0.43794E+00 
  42263.4296     0.43834E+00 
  42295.6918     0.43873E+00 
  42327.9539     0.43912E+00 
  42360.2161     0.43949E+00 
  42392.4782     0.43985E+00 
  42424.7404     0.44021E+00 
  42457.0026     0.44055E+00 
  42489.2647     0.44088E+00 
  42521.5269     0.44120E+00 
  42553.7890     0.44151E+00 
  42586.0512     0.44181E+00 
  42618.3134     0.44210E+00 
  42650.5755     0.44237E+00 
  42682.8377     0.44264E+00 
  42715.0998     0.44290E+00 
  42747.3620     0.44315E+00 
  42779.6242     0.44338E+00 
  42811.8863     0.44361E+00 
  42844.1485     0.44382E+00 
  42876.4106     0.44403E+00 
  42908.6728     0.44422E+00 
  42940.9350     0.44440E+00 
  42973.1971     0.44458E+00 
  43005.4593     0.44474E+00 
  43037.7214     0.44489E+00 
  43069.9836     0.44503E+00 
  43102.2458     0.44516E+00 
  43134.5079     0.44528E+00 
  43166.7701     0.44539E+00 
  43199.0322     0.44549E+00 
  43231.2944     0.44558E+00 
  43263.5566     0.44565E+00 
  43295.8187     0.44572E+00 
  43328.0809     0.44578E+00 
  43360.3430     0.44582E+00 
  43392.6052     0.44586E+00 
  43424.8674     0.44588E+00 
  43457.1295     0.44590E+00 
  43489.3917     0.44590E+00 
  43521.6538     0.44589E+00 
  43553.9160     0.44588E+00 
  43586.1782     0.44585E+00 
  43618.4403     0.44581E+00 
  43650.7025     0.44576E+00 
  43682.9646     0.44570E+00 
  43715.2268     0.44564E+00 
  43747.4890     0.44556E+00 
  43779.7511     0.44547E+00 
  43812.0133     0.44537E+00 
  43844.2754     0.44526E+00 
  43876.5376     0.44513E+00 
  43908.7998     0.44500E+00 
  43941.0619     0.44486E+00 
  43973.3241     0.44471E+00 
  44005.5862     0.44455E+00 
  44037.8484     0.44438E+00 
  44070.1106     0.44420E+00 
  44102.3727     0.44400E+00 
  44134.6349     0.44380E+00 
  44166.8970     0.44359E+00 
  44199.1592     0.44337E+00 
  44231.4214     0.44313E+00 
  44263.6835     0.44289E+00 
  44295.9457     0.44264E+00 
  44328.2078     0.44238E+00 
  44360.4700     0.44211E+00 
  44392.7322     0.44182E+00 
  44424.9943     0.44153E+00 
  44457.2565     0.44123E+00 
  44489.5186     0.44092E+00 
  44521.7808     0.44060E+00 
  44554.0430     0.44027E+00 
  44586.3051     0.43993E+00 
  44618.5673     0.43958E+00 
  44650.8294     0.43922E+00 
  44683.0916     0.43885E+00 
  44715.3538     0.43847E+00 
  44747.6159     0.43808E+00 
  44779.8781     0.43768E+00 
  44812.1402     0.43728E+00 
  44844.4024     0.43686E+00 
  44876.6646     0.43643E+00 
  44908.9267     0.43600E+00 
  44941.1889     0.43555E+00 
  44973.4510     0.43510E+00 
  45005.7132     0.43464E+00 
  45037.9754     0.43416E+00 
  45070.2375     0.43368E+00 
  45102.4997     0.43319E+00 
  45134.7618     0.43269E+00 
  45167.0240     0.43219E+00 
  45199.2862     0.43167E+00 
  45231.5483     0.43114E+00 
  45263.8105     0.43061E+00 
  45296.0726     0.43006E+00 
  45328.3348     0.42951E+00 
  45360.5970     0.42895E+00 
  45392.8591     0.42838E+00 
  45425.1213     0.42780E+00 
  45457.3834     0.42722E+00 
  45489.6456     0.42662E+00 
  45521.9078     0.42602E+00 
  45554.1699     0.42540E+00 
  45586.4321     0.42478E+00 
  45618.6942     0.42415E+00 
  45650.9564     0.42352E+00 
  45683.2186     0.42287E+00 
  45715.4807     0.42222E+00 
  45747.7429     0.42156E+00 
  45780.0050     0.42089E+00 
  45812.2672     0.42021E+00 
  45844.5294     0.41952E+00 
  45876.7915     0.41883E+00 
  45909.0537     0.41813E+00 
  45941.3158     0.41742E+00 
  45973.5780     0.41670E+00 
  46005.8402     0.41597E+00 
  46038.1023     0.41524E+00 
  46070.3645     0.41450E+00 
  46102.6266     0.41375E+00 
  46134.8888     0.41300E+00 
  46167.1510     0.41224E+00 
  46199.4131     0.41147E+00 
  46231.6753     0.41069E+00 
  46263.9374     0.40990E+00 
  46296.1996     0.40911E+00 
  46328.4618     0.40831E+00 
  46360.7239     0.40751E+00 
  46392.9861     0.40669E+00 
  46425.2482     0.40587E+00 
  46457.5104     0.40505E+00 
  46489.7726     0.40421E+00 
  46522.0347     0.40337E+00 
  46554.2969     0.40252E+00 
  46586.5590     0.40167E+00 
  46618.8212     0.40081E+00 
  46651.0834     0.39994E+00 
  46683.3455     0.39907E+00 
  46715.6077     0.39818E+00 
  46747.8698     0.39730E+00 
  46780.1320     0.39640E+00 
  46812.3942     0.39550E+00 
  46844.6563     0.39460E+00 
  46876.9185     0.39369E+00 
  46909.1806     0.39277E+00 
  46941.4428     0.39184E+00 
  46973.7050     0.39091E+00 
  47005.9671     0.38998E+00 
  47038.2293     0.38904E+00 
  47070.4914     0.38809E+00 
  47102.7536     0.38713E+00 
  47135.0158     0.38617E+00 
  47167.2779     0.38521E+00 
  47199.5401     0.38424E+00 
  47231.8022     0.38326E+00 
  47264.0644     0.38228E+00 
  47296.3266     0.38129E+00 
  47328.5887     0.38030E+00 
  47360.8509     0.37930E+00 
  47393.1130     0.37830E+00 
  47425.3752     0.37729E+00 
  47457.6374     0.37628E+00 
  47489.8995     0.37526E+00 
  47522.1617     0.37424E+00 
  47554.4238     0.37321E+00 
  47586.6860     0.37218E+00 
  47618.9482     0.37114E+00 
  47651.2103     0.37010E+00 
  47683.4725     0.36905E+00 
  47715.7346     0.36800E+00 
  47747.9968     0.36694E+00 
  47780.2590     0.36588E+00 
  47812.5211     0.36482E+00 
  47844.7833     0.36375E+00 
  47877.0454     0.36267E+00 
  47909.3076     0.36160E+00 
  47941.5698     0.36051E+00 
  47973.8319     0.35943E+00 
  48006.0941     0.35834E+00 
  48038.3562     0.35724E+00 
  48070.6184     0.35615E+00 
  48102.8806     0.35504E+00 
  48135.1427     0.35394E+00 
  48167.4049     0.35283E+00 
  48199.6670     0.35171E+00 
  48231.9292     0.35060E+00 
  48264.1914     0.34948E+00 
  48296.4535     0.34835E+00 
  48328.7157     0.34722E+00 
  48360.9778     0.34609E+00 
  48393.2400     0.34496E+00 
  48425.5022     0.34382E+00 
  48457.7643     0.34268E+00 
  48490.0265     0.34154E+00 
  48522.2886     0.34039E+00 
  48554.5508     0.33924E+00 
  48586.8130     0.33809E+00 
  48619.0751     0.33693E+00 
  48651.3373     0.33577E+00 
  48683.5994     0.33461E+00 
  48715.8616     0.33345E+00 
  48748.1238     0.33228E+00 
  48780.3859     0.33111E+00 
  48812.6481     0.32994E+00 
  48844.9102     0.32876E+00 
  48877.1724     0.32759E+00 
  48909.4346     0.32641E+00 
  48941.6967     0.32522E+00 
  48973.9589     0.32404E+00 
  49006.2210     0.32285E+00 
  49038.4832     0.32167E+00 
  49070.7454     0.32048E+00 
  49103.0075     0.31928E+00 
  49135.2697     0.31809E+00 
  49167.5318     0.31689E+00 
  49199.7940     0.31569E+00 
  49232.0562     0.31449E+00 
  49264.3183     0.31329E+00 
  49296.5805     0.31209E+00 
  49328.8426     0.31088E+00 
  49361.1048     0.30968E+00 
  49393.3670     0.30847E+00 
  49425.6291     0.30726E+00 
  49457.8913     0.30605E+00 
  49490.1534     0.30483E+00 
  49522.4156     0.30362E+00 
  49554.6778     0.30240E+00 
  49586.9399     0.30119E+00 
  49619.2021     0.29997E+00 
  49651.4642     0.29875E+00 
  49683.7264     0.29753E+00 
  49715.9886     0.29631E+00 
  49748.2507     0.29509E+00 
  49780.5129     0.29387E+00 
  49812.7750     0.29264E+00 
  49845.0372     0.29142E+00 
  49877.2994     0.29019E+00 
  49909.5615     0.28897E+00 
  49941.8237     0.28774E+00 
  49974.0858     0.28651E+00 
  50006.3480     0.28529E+00 
  50038.6102     0.28406E+00 
  50070.8723     0.28283E+00 
  50103.1345     0.28160E+00 
  50135.3966     0.28037E+00 
  50167.6588     0.27914E+00 
  50199.9210     0.27791E+00 
  50232.1831     0.27668E+00 
  50264.4453     0.27545E+00 
  50296.7074     0.27422E+00 
  50328.9696     0.27299E+00 
  50361.2318     0.27176E+00 
  50393.4939     0.27053E+00 
  50425.7561     0.26930E+00 
  50458.0182     0.26807E+00 
  50490.2804     0.26684E+00 
  50522.5426     0.26561E+00 
  50554.8047     0.26438E+00 
  50587.0669     0.26315E+00 
  50619.3290     0.26193E+00 
  50651.5912     0.26070E+00 
  50683.8534     0.25947E+00 
  50716.1155     0.25824E+00 
  50748.3777     0.25702E+00 
  50780.6398     0.25579E+00 
  50812.9020     0.25456E+00 
  50845.1642     0.25334E+00 
  50877.4263     0.25212E+00 
  50909.6885     0.25089E+00 
  50941.9506     0.24967E+00 
  50974.2128     0.24845E+00 
  51006.4750     0.24723E+00 
  51038.7371     0.24601E+00 
  51070.9993     0.24479E+00 
  51103.2614     0.24357E+00 
  51135.5236     0.24235E+00 
  51167.7858     0.24114E+00 
  51200.0479     0.23992E+00 
  51232.3101     0.23871E+00 
  51264.5722     0.23750E+00 
  51296.8344     0.23629E+00 
  51329.0966     0.23508E+00 
  51361.3587     0.23387E+00 
  51393.6209     0.23266E+00 
  51425.8830     0.23146E+00 
  51458.1452     0.23025E+00 
  51490.4074     0.22905E+00 
  51522.6695     0.22785E+00 
  51554.9317     0.22665E+00 
  51587.1938     0.22545E+00 
  51619.4560     0.22425E+00 
  51651.7182     0.22306E+00 
  51683.9803     0.22186E+00 
  51716.2425     0.22067E+00 
  51748.5046     0.21948E+00 
  51780.7668     0.21830E+00 
  51813.0290     0.21711E+00 
  51845.2911     0.21592E+00 
  51877.5533     0.21474E+00 
  51909.8154     0.21356E+00 
  51942.0776     0.21238E+00 
  51974.3398     0.21121E+00 
  52006.6019     0.21003E+00 
  52038.8641     0.20886E+00 
  52071.1262     0.20769E+00 
  52103.3884     0.20652E+00 
  52135.6506     0.20535E+00 
  52167.9127     0.20419E+00 
  52200.1749     0.20303E+00 
  52232.4370     0.20187E+00 
  52264.6992     0.20071E+00 
  52296.9614     0.19955E+00 
  52329.2235     0.19840E+00 
  52361.4857     0.19725E+00 
  52393.7478     0.19610E+00 
  52426.0100     0.19496E+00 
  52458.2722     0.19381E+00 
  52490.5343     0.19267E+00 
  52522.7965     0.19153E+00 
  52555.0586     0.19040E+00 
  52587.3208     0.18926E+00 
  52619.5830     0.18813E+00 
  52651.8451     0.18700E+00 
  52684.1073     0.18588E+00 
  52716.3694     0.18475E+00 
  52748.6316     0.18363E+00 
  52780.8938     0.18251E+00 
  52813.1559     0.18140E+00 
  52845.4181     0.18029E+00 
  52877.6802     0.17918E+00 
  52909.9424     0.17807E+00 
  52942.2046     0.17696E+00 
  52974.4667     0.17586E+00 
  53006.7289     0.17476E+00 
  53038.9910     0.17367E+00 
  53071.2532     0.17257E+00 
  53103.5154     0.17148E+00 
  53135.7775     0.17040E+00 
  53168.0397     0.16931E+00 
  53200.3018     0.16823E+00 
  53232.5640     0.16715E+00 
  53264.8262     0.16607E+00 
  53297.0883     0.16500E+00 
  53329.3505     0.16393E+00 
  53361.6126     0.16286E+00 
  53393.8748     0.16180E+00 
  53426.1370     0.16074E+00 
  53458.3991     0.15968E+00 
  53490.6613     0.15863E+00 
  53522.9234     0.15758E+00 
  53555.1856     0.15653E+00 
  53587.4478     0.15548E+00 
  53619.7099     0.15444E+00 
  53651.9721     0.15340E+00 
  53684.2342     0.15237E+00 
  53716.4964     0.15133E+00 
  53748.7586     0.15031E+00 
  53781.0207     0.14928E+00 
  53813.2829     0.14826E+00 
  53845.5450     0.14724E+00 
  53877.8072     0.14622E+00 
  53910.0694     0.14521E+00 
  53942.3315     0.14420E+00 
  53974.5937     0.14319E+00 
  54006.8558     0.14219E+00 
  54039.1180     0.14119E+00 
  54071.3802     0.14019E+00 
  54103.6423     0.13920E+00 
  54135.9045     0.13821E+00 
  54168.1666     0.13722E+00 
  54200.4288     0.13624E+00 
  54232.6910     0.13526E+00 
  54264.9531     0.13429E+00 
  54297.2153     0.13331E+00 
  54329.4774     0.13234E+00 
  54361.7396     0.13138E+00 
  54394.0018     0.13042E+00 
  54426.2639     0.12946E+00 
  54458.5261     0.12850E+00 
  54490.7882     0.12755E+00 
  54523.0504     0.12660E+00 
  54555.3126     0.12566E+00 
  54587.5747     0.12472E+00 
  54619.8369     0.12378E+00 
  54652.0990     0.12284E+00 
  54684.3612     0.12191E+00 
  54716.6234     0.12099E+00 
  54748.8855     0.12006E+00 
  54781.1477     0.11914E+00 
  54813.4098     0.11823E+00 
  54845.6720     0.11731E+00 
  54877.9342     0.11640E+00 
  54910.1963     0.11550E+00 
  54942.4585     0.11460E+00 
  54974.7206     0.11370E+00 
  55006.9828     0.11280E+00 
  55039.2450     0.11191E+00 
  55071.5071     0.11102E+00 
  55103.7693     0.11014E+00 
  55136.0314     0.10926E+00 
  55168.2936     0.10838E+00 
  55200.5558     0.10751E+00 
  55232.8179     0.10664E+00 
  55265.0801     0.10577E+00 
  55297.3422     0.10491E+00 
  55329.6044     0.10405E+00 
  55361.8666     0.10319E+00 
  55394.1287     0.10234E+00 
  55426.3909     0.10149E+00 
  55458.6530     0.10065E+00 
  55490.9152     0.99808E-01 
  55523.1774     0.98971E-01 
  55555.4395     0.98138E-01 
  55587.7017     0.97308E-01 
  55619.9638     0.96482E-01 
  55652.2260     0.95659E-01 
  55684.4882     0.94840E-01 
  55716.7503     0.94025E-01 
  55749.0125     0.93214E-01 
  55781.2746     0.92406E-01 
  55813.5368     0.91602E-01 
  55845.7990     0.90801E-01 
  55878.0611     0.90004E-01 
  55910.3233     0.89211E-01 
  55942.5854     0.88421E-01 
  55974.8476     0.87636E-01 
  56007.1098     0.86853E-01 
  56039.3719     0.86075E-01 
  56071.6341     0.85300E-01 
  56103.8962     0.84529E-01 
  56136.1584     0.83761E-01 
  56168.4206     0.82997E-01 
  56200.6827     0.82237E-01 
  56232.9449     0.81480E-01 
  56265.2070     0.80728E-01 
  56297.4692     0.79978E-01 
  56329.7314     0.79233E-01 
  56361.9935     0.78491E-01 
  56394.2557     0.77752E-01 
  56426.5178     0.77018E-01 
  56458.7800     0.76287E-01 
  56491.0422     0.75560E-01 
  56523.3043     0.74836E-01 
  56555.5665     0.74116E-01 
  56587.8286     0.73400E-01 
  56620.0908     0.72687E-01 
  56652.3530     0.71978E-01 
  56684.6151     0.71272E-01 
  56716.8773     0.70570E-01 
  56749.1394     0.69872E-01 
  56781.4016     0.69178E-01 
  56813.6638     0.68487E-01 
  56845.9259     0.67800E-01 
  56878.1881     0.67116E-01 
  56910.4502     0.66436E-01 
  56942.7124     0.65760E-01 
  56974.9746     0.65087E-01 
  57007.2367     0.64418E-01 
  57039.4989     0.63752E-01 
  57071.7610     0.63090E-01 
  57104.0232     0.62432E-01 
  57136.2854     0.61777E-01 
  57168.5475     0.61126E-01 
  57200.8097     0.60479E-01 
  57233.0718     0.59835E-01 
  57265.3340     0.59195E-01 
  57297.5962     0.58558E-01 
  57329.8583     0.57925E-01 
  57362.1205     0.57295E-01 
  57394.3826     0.56669E-01 
  57426.6448     0.56047E-01 
  57458.9070     0.55428E-01 
  57491.1691     0.54813E-01 
  57523.4313     0.54202E-01 
  57555.6934     0.53593E-01 
  57587.9556     0.52989E-01 
  57620.2178     0.52388E-01 
  57652.4799     0.51791E-01 
  57684.7421     0.51197E-01 
  57717.0042     0.50607E-01 
  57749.2664     0.50020E-01 
  57781.5286     0.49437E-01 
  57813.7907     0.48857E-01 
  57846.0529     0.48281E-01 
  57878.3150     0.47709E-01 
  57910.5772     0.47140E-01 
  57942.8394     0.46575E-01 
  57975.1015     0.46013E-01 
  58007.3637     0.45454E-01 
  58039.6258     0.44900E-01 
  58071.8880     0.44348E-01 
  58104.1502     0.43801E-01 
  58136.4123     0.43256E-01 
  58168.6745     0.42716E-01 
  58200.9366     0.42179E-01 
  58233.1988     0.41645E-01 
  58265.4610     0.41115E-01 
  58297.7231     0.40588E-01 
  58329.9853     0.40065E-01 
  58362.2474     0.39546E-01 
  58394.5096     0.39030E-01 
  58426.7718     0.38517E-01 
  58459.0339     0.38008E-01 
  58491.2961     0.37502E-01 
  58523.5582     0.37000E-01 
  58555.8204     0.36502E-01 
  58588.0826     0.36007E-01 
  58620.3447     0.35515E-01 
  58652.6069     0.35027E-01 
  58684.8690     0.34543E-01 
  58717.1312     0.34062E-01 
  58749.3934     0.33585E-01 
  58781.6555     0.33111E-01 
  58813.9177     0.32640E-01 
  58846.1798     0.32173E-01 
  58878.4420     0.31710E-01 
  58910.7042     0.31250E-01 
  58942.9663     0.30794E-01 
  58975.2285     0.30341E-01 
  59007.4906     0.29891E-01 
  59039.7528     0.29446E-01 
  59072.0150     0.29003E-01 
  59104.2771     0.28565E-01 
  59136.5393     0.28129E-01 
  59168.8014     0.27698E-01 
  59201.0636     0.27269E-01 
  59233.3258     0.26845E-01 
  59265.5879     0.26424E-01 
  59297.8501     0.26006E-01 
  59330.1122     0.25592E-01 
  59362.3744     0.25182E-01 
  59394.6366     0.24775E-01 
  59426.8987     0.24371E-01 
  59459.1609     0.23971E-01 
  59491.4230     0.23575E-01 
  59523.6852     0.23183E-01 
  59555.9474     0.22794E-01 
  59588.2095     0.22408E-01 
  59620.4717     0.22026E-01 
  59652.7338     0.21648E-01 
  59684.9960     0.21273E-01 
  59717.2582     0.20902E-01 
  59749.5203     0.20535E-01 
  59781.7825     0.20171E-01 
  59814.0446     0.19811E-01 
  59846.3068     0.19455E-01 
  59878.5690     0.19102E-01 
  59910.8311     0.18753E-01 
  59943.0933     0.18407E-01 
  59975.3554     0.18066E-01 
  60007.6176     0.17727E-01 
  60039.8798     0.17393E-01 
  60072.1419     0.17063E-01 
  60104.4041     0.16736E-01 
  60136.6662     0.16413E-01 
  60168.9284     0.16093E-01 
  60201.1906     0.15778E-01 
  60233.4527     0.15466E-01 
  60265.7149     0.15158E-01 
  60297.9770     0.14854E-01 
  60330.2392     0.14554E-01 
  60362.5014     0.14257E-01 
  60394.7635     0.13965E-01 
  60427.0257     0.13676E-01 
  60459.2878     0.13391E-01 
  60491.5500     0.13111E-01 
  60523.8122     0.12834E-01 
  60556.0743     0.12561E-01 
  60588.3365     0.12292E-01 
  60620.5986     0.12027E-01 
  60652.8608     0.11766E-01 
  60685.1230     0.11509E-01 
  60717.3851     0.11256E-01 
  60749.6473     0.11008E-01 
  60781.9094     0.10763E-01 
  60814.1716     0.10523E-01 
  60846.4338     0.10286E-01 
  60878.6959     0.10054E-01 
  60910.9581     0.98263E-02 
  60943.2202     0.96026E-02 
  60975.4824     0.93832E-02 
  61007.7446     0.91681E-02 
  61040.0067     0.89573E-02 
  61072.2689     0.87509E-02 
  61104.5310     0.85488E-02 
  61136.7932     0.83512E-02 
  61169.0554     0.81580E-02 
  61201.3175     0.79693E-02 
  61233.5797     0.77851E-02 
  61265.8418     0.76054E-02 
  61298.1040     0.74303E-02 
  61330.3662     0.72598E-02 
  61362.6283     0.70940E-02 
  61394.8905     0.69328E-02 
  61427.1526     0.67763E-02 
  61459.4148     0.66246E-02 
  61491.6770     0.64777E-02 
  61523.9391     0.63357E-02 
  61556.2013     0.61985E-02 
  61588.4634     0.60662E-02 
  61620.7256     0.59389E-02 
  61652.9878     0.58166E-02 
  61685.2499     0.56994E-02 
  61717.5121     0.55872E-02 
  61749.7742     0.54802E-02 
  61782.0364     0.53784E-02 
  61814.2986     0.52818E-02 
  61846.5607     0.51905E-02 
  61878.8229     0.51045E-02 
  61911.0850     0.50240E-02 
  61943.3472     0.49488E-02 
  61975.6094     0.48792E-02 
  62007.8715     0.48151E-02 
  62040.1337     0.47566E-02 
  62072.3958     0.47037E-02 
  62104.6580     0.46566E-02 
  62136.9202     0.46153E-02 
  62169.1823     0.45797E-02 
  62201.4445     0.45501E-02 
  62233.7066     0.45265E-02 
  62265.9688     0.45088E-02 
  62298.2310     0.44973E-02 
  62330.4931     0.44918E-02 
  62362.7553     0.44927E-02 
  62395.0174     0.44997E-02 
  62427.2796     0.45132E-02 
  62459.5418     0.45331E-02 
  62491.8039     0.45594E-02 
  62524.0661     0.45924E-02 
  62556.3282     0.46320E-02 
  62588.5904     0.46782E-02 
  62620.8526     0.47313E-02 
  62653.1147     0.47913E-02 
  62685.3769     0.48582E-02 
  62717.6390     0.49322E-02 
  62749.9012     0.50133E-02 
  62782.1634     0.51015E-02 
  62814.4255     0.51971E-02 
  62846.6877     0.53000E-02 
  62878.9498     0.54104E-02 
  62911.2120     0.55283E-02 
  62943.4742     0.56539E-02 
  62975.7363     0.57872E-02 
  63007.9985     0.59283E-02 
  63040.2606     0.60774E-02 
  63072.5228     0.62344E-02 
  63104.7850     0.63996E-02 
  63137.0471     0.65730E-02 
  63169.3093     0.67547E-02 
  63201.5714     0.69449E-02 
  63233.8336     0.71435E-02 
  63266.0958     0.73508E-02 
  63298.3579     0.75669E-02 
  63330.6201     0.77917E-02 
  63362.8822     0.80256E-02 
  63395.1444     0.82685E-02 
  63427.4066     0.85206E-02 
  63459.6687     0.87820E-02 
  63491.9309     0.90529E-02 
  63524.1930     0.93332E-02 
  63556.4552     0.96233E-02 
  63588.7174     0.99231E-02 
  63620.9795     0.10233E-01 
  63653.2417     0.10553E-01 
  63685.5038     0.10883E-01 
  63717.7660     0.11223E-01 
  63750.0282     0.11574E-01 
  63782.2903     0.11935E-01 
  63814.5525     0.12307E-01 
  63846.8146     0.12690E-01 
  63879.0768     0.13083E-01 
  63911.3390     0.13488E-01 
  63943.6011     0.13904E-01 
  63975.8633     0.14332E-01 
  64008.1254     0.14771E-01 
  64040.3876     0.15222E-01 
  64072.6498     0.15685E-01 
  64104.9119     0.16160E-01 
  64137.1741     0.16647E-01 
  64169.4362     0.17146E-01 
  64201.6984     0.17658E-01 
  64233.9606     0.18182E-01 
  64266.2227     0.18719E-01 
  64298.4849     0.19269E-01 
  64330.7470     0.19833E-01 
  64363.0092     0.20410E-01 
  64395.2714     0.21000E-01 
  64427.5335     0.21604E-01 
  64459.7957     0.22222E-01 
  64492.0578     0.22853E-01 
  64524.3200     0.23499E-01 
  64556.5822     0.24160E-01 
  64588.8443     0.24835E-01 
  64621.1065     0.25525E-01 
  64653.3686     0.26229E-01 
  64685.6308     0.26949E-01 
  64717.8930     0.27685E-01 
  64750.1551     0.28435E-01 
  64782.4173     0.29202E-01 
  64814.6794     0.29985E-01 
  64846.9416     0.30783E-01 
  64879.2038     0.31598E-01 
  64911.4659     0.32430E-01 
  64943.7281     0.33279E-01 
  64975.9902     0.34144E-01 
  65008.2524     0.35027E-01 
  65040.5146     0.35927E-01 
  65072.7767     0.36845E-01 
  65105.0389     0.37781E-01 
  65137.3010     0.38734E-01 
  65169.5632     0.39707E-01 
  65201.8254     0.40697E-01 
  65234.0875     0.41707E-01 
  65266.3497     0.42736E-01 
  65298.6118     0.43784E-01 
  65330.8740     0.44851E-01 
  65363.1362     0.45938E-01 
  65395.3983     0.47045E-01 
  65427.6605     0.48173E-01 
  65459.9226     0.49321E-01 
  65492.1848     0.50490E-01 
  65524.4470     0.51680E-01 
  65556.7091     0.52891E-01 
  65588.9713     0.54124E-01 
  65621.2334     0.55378E-01 
  65653.4956     0.56655E-01 
  65685.7578     0.57954E-01 
  65718.0199     0.59275E-01 
  65750.2821     0.60620E-01 
  65782.5442     0.61988E-01 
  65814.8064     0.63379E-01 
  65847.0686     0.64794E-01 
  65879.3307     0.66233E-01 
  65911.5929     0.67696E-01 
  65943.8550     0.69184E-01 
  65976.1172     0.70697E-01 
  66008.3794     0.72235E-01 
  66040.6415     0.73798E-01 
  66072.9037     0.75388E-01 
  66105.1658     0.77003E-01 
  66137.4280     0.78645E-01 
  66169.6902     0.80313E-01 
  66201.9523     0.82009E-01 
  66234.2145     0.83732E-01 
  66266.4766     0.85482E-01 
  66298.7388     0.87261E-01 
  66331.0010     0.89068E-01 
  66363.2631     0.90903E-01 
  66395.5253     0.92768E-01 
  66427.7874     0.94661E-01 
  66460.0496     0.96585E-01 
  66492.3118     0.98538E-01 
  66524.5739     0.10052E+00 
  66556.8361     0.10254E+00 
  66589.0982     0.10458E+00 
  66621.3604     0.10666E+00 
  66653.6226     0.10877E+00 
  66685.8847     0.11091E+00 
  66718.1469     0.11308E+00 
  66750.4090     0.11528E+00 
  66782.6712     0.11752E+00 
  66814.9334     0.11979E+00 
  66847.1955     0.12210E+00 
  66879.4577     0.12444E+00 
  66911.7198     0.12681E+00 
  66943.9820     0.12922E+00 
  66976.2442     0.13167E+00 
  67008.5063     0.13414E+00 
  67040.7685     0.13666E+00 
  67073.0306     0.13921E+00 
  67105.2928     0.14180E+00 
  67137.5550     0.14443E+00 
  67169.8171     0.14709E+00 
  67202.0793     0.14979E+00 
  67234.3414     0.15253E+00 
  67266.6036     0.15531E+00 
  67298.8658     0.15813E+00 
  67331.1279     0.16099E+00 
  67363.3901     0.16388E+00 
  67395.6522     0.16682E+00 
  67427.9144     0.16980E+00 
  67460.1766     0.17282E+00 
  67492.4387     0.17588E+00 
  67524.7009     0.17898E+00 
  67556.9630     0.18213E+00 
  67589.2252     0.18532E+00 
  67621.4874     0.18855E+00 
  67653.7495     0.19182E+00 
  67686.0117     0.19514E+00 
  67718.2738     0.19850E+00 
  67750.5360     0.20191E+00 
  67782.7982     0.20536E+00 
  67815.0603     0.20886E+00 
  67847.3225     0.21241E+00 
  67879.5846     0.21600E+00 
  67911.8468     0.21964E+00 
  67944.1090     0.22332E+00 
  67976.3711     0.22706E+00 
  68008.6333     0.23084E+00 
  68040.8954     0.23467E+00 
  68073.1576     0.23855E+00 
  68105.4198     0.24248E+00 
  68137.6819     0.24645E+00 
  68169.9441     0.25048E+00 
  68202.2062     0.25456E+00 
  68234.4684     0.25870E+00 
  68266.7306     0.26288E+00 
  68298.9927     0.26712E+00 
  68331.2549     0.27140E+00 
  68363.5170     0.27575E+00 
  68395.7792     0.28014E+00 
  68428.0414     0.28459E+00 
  68460.3035     0.28909E+00 
  68492.5657     0.29365E+00 
  68524.8278     0.29827E+00 
  68557.0900     0.30294E+00 
  68589.3522     0.30766E+00 
  68621.6143     0.31244E+00 
  68653.8765     0.31728E+00 
  68686.1386     0.32218E+00 
  68718.4008     0.32714E+00 
  68750.6630     0.33215E+00 
  68782.9251     0.33722E+00 
  68815.1873     0.34236E+00 
  68847.4494     0.34755E+00 
  68879.7116     0.35280E+00 
  68911.9738     0.35811E+00 
  68944.2359     0.36349E+00 
  68976.4981     0.36893E+00 
  69008.7602     0.37443E+00 
  69041.0224     0.37999E+00 
  69073.2846     0.38561E+00 
  69105.5467     0.39130E+00 
  69137.8089     0.39705E+00 
  69170.0710     0.40287E+00 
  69202.3332     0.40875E+00 
  69234.5954     0.41470E+00 
  69266.8575     0.42071E+00 
  69299.1197     0.42679E+00 
  69331.3818     0.43293E+00 
  69363.6440     0.43915E+00 
  69395.9062     0.44543E+00 
  69428.1683     0.45178E+00 
  69460.4305     0.45819E+00 
  69492.6926     0.46468E+00 
  69524.9548     0.47123E+00 
  69557.2170     0.47786E+00 
  69589.4791     0.48456E+00 
  69621.7413     0.49132E+00 
  69654.0034     0.49816E+00 
  69686.2656     0.50507E+00 
  69718.5278     0.51205E+00 
  69750.7899     0.51910E+00 
  69783.0521     0.52623E+00 
  69815.3142     0.53343E+00 
  69847.5764     0.54070E+00 
  69879.8386     0.54805E+00 
  69912.1007     0.55548E+00 
  69944.3629     0.56297E+00 
  69976.6250     0.57055E+00 
  70008.8872     0.57820E+00 
  70041.1494     0.58592E+00 
  70073.4115     0.59372E+00 
  70105.6737     0.60160E+00 
  70137.9358     0.60956E+00 
  70170.1980     0.61759E+00 
  70202.4602     0.62571E+00 
  70234.7223     0.63390E+00 
  70266.9845     0.64217E+00 
  70299.2466     0.65052E+00 
  70331.5088     0.65895E+00 
  70363.7710     0.66746E+00 
  70396.0331     0.67605E+00 
  70428.2953     0.68472E+00 
  70460.5574     0.69348E+00 
  70492.8196     0.70231E+00 
  70525.0818     0.71123E+00 
  70557.3439     0.72023E+00 
  70589.6061     0.72931E+00 
  70621.8682     0.73848E+00 
  70654.1304     0.74773E+00 
  70686.3926     0.75706E+00 
  70718.6547     0.76648E+00 
  70750.9169     0.77598E+00 
  70783.1790     0.78557E+00 
  70815.4412     0.79525E+00 
  70847.7034     0.80500E+00 
  70879.9655     0.81485E+00 
  70912.2277     0.82478E+00 
  70944.4898     0.83480E+00 
  70976.7520     0.84490E+00 
  71009.0142     0.85509E+00 
  71041.2763     0.86537E+00 
  71073.5385     0.87574E+00 
  71105.8006     0.88619E+00 
  71138.0628     0.89674E+00 
  71170.3250     0.90737E+00 
  71202.5871     0.91809E+00 
  71234.8493     0.92890E+00 
  71267.1114     0.93980E+00 
  71299.3736     0.95079E+00 
  71331.6358     0.96186E+00 
  71363.8979     0.97303E+00 
  71396.1601     0.98429E+00 
  71428.4222     0.99564E+00 
  71460.6844     0.10071E+01 
  71492.9466     0.10186E+01 
  71525.2087     0.10302E+01 
  71557.4709     0.10420E+01 
  71589.7330     0.10538E+01 
  71621.9952     0.10657E+01 
  71654.2574     0.10776E+01 
  71686.5195     0.10897E+01 
  71718.7817     0.11019E+01 
  71751.0438     0.11142E+01 
  71783.3060     0.11265E+01 
  71815.5682     0.11390E+01 
  71847.8303     0.11515E+01 
  71880.0925     0.11642E+01 
  71912.3546     0.11769E+01 
  71944.6168     0.11897E+01 
  71976.8790     0.12026E+01 
  72009.1411     0.12156E+01 
  72041.4033     0.12288E+01 
  72073.6654     0.12420E+01 
  72105.9276     0.12552E+01 
  72138.1898     0.12686E+01 
  72170.4519     0.12821E+01 
  72202.7141     0.12957E+01 
  72234.9762     0.13094E+01 
  72267.2384     0.13231E+01 
  72299.5006     0.13370E+01 
  72331.7627     0.13509E+01 
  72364.0249     0.13650E+01 
  72396.2870     0.13791E+01 
  72428.5492     0.13933E+01 
  72460.8114     0.14077E+01 
  72493.0735     0.14221E+01 
  72525.3357     0.14366E+01 
  72557.5978     0.14512E+01 
  72589.8600     0.14659E+01 
