  32262.1600     0.79975E+01 
  32294.4222     0.80916E+01 
  32326.6843     0.81864E+01 
  32358.9465     0.82819E+01 
  32391.2086     0.83782E+01 
  32423.4708     0.84752E+01 
  32455.7330     0.85730E+01 
  32487.9951     0.86715E+01 
  32520.2573     0.87707E+01 
  32552.5194     0.88706E+01 
  32584.7816     0.89713E+01 
  32617.0438     0.90727E+01 
  32649.3059     0.91748E+01 
  32681.5681     0.92777E+01 
  32713.8302     0.93812E+01 
  32746.0924     0.94856E+01 
  32778.3546     0.95906E+01 
  32810.6167     0.96964E+01 
  32842.8789     0.98028E+01 
  32875.1410     0.99101E+01 
  32907.4032     0.10018E+02 
  32939.6654     0.10127E+02 
  32971.9275     0.10236E+02 
  33004.1897     0.10346E+02 
  33036.4518     0.10457E+02 
  33068.7140     0.10568E+02 
  33100.9762     0.10681E+02 
  33133.2383     0.10794E+02 
  33165.5005     0.10907E+02 
  33197.7626     0.11022E+02 
  33230.0248     0.11137E+02 
  33262.2870     0.11253E+02 
  33294.5491     0.11369E+02 
  33326.8113     0.11486E+02 
  33359.0734     0.11604E+02 
  33391.3356     0.11723E+02 
  33423.5978     0.11842E+02 
  33455.8599     0.11962E+02 
  33488.1221     0.12082E+02 
  33520.3842     0.12204E+02 
  33552.6464     0.12326E+02 
  33584.9086     0.12448E+02 
  33617.1707     0.12572E+02 
  33649.4329     0.12696E+02 
  33681.6950     0.12820E+02 
  33713.9572     0.12946E+02 
  33746.2194     0.13072E+02 
  33778.4815     0.13198E+02 
  33810.7437     0.13326E+02 
  33843.0058     0.13453E+02 
  33875.2680     0.13582E+02 
  33907.5302     0.13711E+02 
  33939.7923     0.13841E+02 
  33972.0545     0.13971E+02 
  34004.3166     0.14103E+02 
  34036.5788     0.14234E+02 
  34068.8410     0.14367E+02 
  34101.1031     0.14500E+02 
  34133.3653     0.14633E+02 
  34165.6274     0.14767E+02 
  34197.8896     0.14902E+02 
  34230.1518     0.15037E+02 
  34262.4139     0.15173E+02 
  34294.6761     0.15310E+02 
  34326.9382     0.15447E+02 
  34359.2004     0.15584E+02 
  34391.4626     0.15722E+02 
  34423.7247     0.15861E+02 
  34455.9869     0.16000E+02 
  34488.2490     0.16140E+02 
  34520.5112     0.16281E+02 
  34552.7734     0.16422E+02 
  34585.0355     0.16563E+02 
  34617.2977     0.16705E+02 
  34649.5598     0.16847E+02 
  34681.8220     0.16990E+02 
  34714.0842     0.17134E+02 
  34746.3463     0.17278E+02 
  34778.6085     0.17422E+02 
  34810.8706     0.17567E+02 
  34843.1328     0.17712E+02 
  34875.3950     0.17858E+02 
  34907.6571     0.18005E+02 
  34939.9193     0.18151E+02 
  34972.1814     0.18299E+02 
  35004.4436     0.18446E+02 
  35036.7058     0.18594E+02 
  35068.9679     0.18743E+02 
  35101.2301     0.18892E+02 
  35133.4922     0.19041E+02 
  35165.7544     0.19191E+02 
  35198.0166     0.19341E+02 
  35230.2787     0.19491E+02 
  35262.5409     0.19642E+02 
  35294.8030     0.19793E+02 
  35327.0652     0.19945E+02 
  35359.3274     0.20097E+02 
  35391.5895     0.20249E+02 
  35423.8517     0.20402E+02 
  35456.1138     0.20555E+02 
  35488.3760     0.20708E+02 
  35520.6382     0.20861E+02 
  35552.9003     0.21015E+02 
  35585.1625     0.21169E+02 
  35617.4246     0.21324E+02 
  35649.6868     0.21478E+02 
  35681.9490     0.21633E+02 
  35714.2111     0.21788E+02 
  35746.4733     0.21944E+02 
  35778.7354     0.22100E+02 
  35810.9976     0.22255E+02 
  35843.2598     0.22411E+02 
  35875.5219     0.22568E+02 
  35907.7841     0.22724E+02 
  35940.0462     0.22881E+02 
  35972.3084     0.23038E+02 
  36004.5706     0.23195E+02 
  36036.8327     0.23352E+02 
  36069.0949     0.23509E+02 
  36101.3570     0.23667E+02 
  36133.6192     0.23824E+02 
  36165.8814     0.23982E+02 
  36198.1435     0.24140E+02 
  36230.4057     0.24298E+02 
  36262.6678     0.24456E+02 
  36294.9300     0.24614E+02 
  36327.1922     0.24772E+02 
  36359.4543     0.24930E+02 
  36391.7165     0.25089E+02 
  36423.9786     0.25247E+02 
  36456.2408     0.25405E+02 
  36488.5030     0.25564E+02 
  36520.7651     0.25722E+02 
  36553.0273     0.25880E+02 
  36585.2894     0.26039E+02 
  36617.5516     0.26197E+02 
  36649.8138     0.26355E+02 
  36682.0759     0.26513E+02 
  36714.3381     0.26672E+02 
  36746.6002     0.26830E+02 
  36778.8624     0.26988E+02 
  36811.1246     0.27146E+02 
  36843.3867     0.27304E+02 
  36875.6489     0.27461E+02 
  36907.9110     0.27619E+02 
  36940.1732     0.27776E+02 
  36972.4354     0.27934E+02 
  37004.6975     0.28091E+02 
  37036.9597     0.28248E+02 
  37069.2218     0.28405E+02 
  37101.4840     0.28561E+02 
  37133.7462     0.28718E+02 
  37166.0083     0.28874E+02 
  37198.2705     0.29030E+02 
  37230.5326     0.29186E+02 
  37262.7948     0.29341E+02 
  37295.0570     0.29497E+02 
  37327.3191     0.29652E+02 
  37359.5813     0.29806E+02 
  37391.8434     0.29961E+02 
  37424.1056     0.30115E+02 
  37456.3678     0.30269E+02 
  37488.6299     0.30422E+02 
  37520.8921     0.30576E+02 
  37553.1542     0.30728E+02 
  37585.4164     0.30881E+02 
  37617.6786     0.31033E+02 
  37649.9407     0.31185E+02 
  37682.2029     0.31336E+02 
  37714.4650     0.31487E+02 
  37746.7272     0.31638E+02 
  37778.9894     0.31788E+02 
  37811.2515     0.31938E+02 
  37843.5137     0.32087E+02 
  37875.7758     0.32236E+02 
  37908.0380     0.32385E+02 
  37940.3002     0.32533E+02 
  37972.5623     0.32680E+02 
  38004.8245     0.32827E+02 
  38037.0866     0.32974E+02 
  38069.3488     0.33120E+02 
  38101.6110     0.33265E+02 
  38133.8731     0.33410E+02 
  38166.1353     0.33554E+02 
  38198.3974     0.33698E+02 
  38230.6596     0.33842E+02 
  38262.9218     0.33984E+02 
  38295.1839     0.34126E+02 
  38327.4461     0.34268E+02 
  38359.7082     0.34409E+02 
  38391.9704     0.34549E+02 
  38424.2326     0.34689E+02 
  38456.4947     0.34828E+02 
  38488.7569     0.34966E+02 
  38521.0190     0.35104E+02 
  38553.2812     0.35241E+02 
  38585.5434     0.35378E+02 
  38617.8055     0.35513E+02 
  38650.0677     0.35648E+02 
  38682.3298     0.35783E+02 
  38714.5920     0.35916E+02 
  38746.8542     0.36049E+02 
  38779.1163     0.36181E+02 
  38811.3785     0.36313E+02 
  38843.6406     0.36444E+02 
  38875.9028     0.36573E+02 
  38908.1650     0.36703E+02 
  38940.4271     0.36831E+02 
  38972.6893     0.36959E+02 
  39004.9514     0.37085E+02 
  39037.2136     0.37211E+02 
  39069.4758     0.37336E+02 
  39101.7379     0.37461E+02 
  39134.0001     0.37584E+02 
  39166.2622     0.37707E+02 
  39198.5244     0.37829E+02 
  39230.7866     0.37950E+02 
  39263.0487     0.38070E+02 
  39295.3109     0.38189E+02 
  39327.5730     0.38307E+02 
  39359.8352     0.38425E+02 
  39392.0974     0.38541E+02 
  39424.3595     0.38657E+02 
  39456.6217     0.38772E+02 
  39488.8838     0.38885E+02 
  39521.1460     0.38998E+02 
  39553.4082     0.39110E+02 
  39585.6703     0.39221E+02 
  39617.9325     0.39331E+02 
  39650.1946     0.39440E+02 
  39682.4568     0.39548E+02 
  39714.7190     0.39655E+02 
  39746.9811     0.39761E+02 
  39779.2433     0.39867E+02 
  39811.5054     0.39971E+02 
  39843.7676     0.40074E+02 
  39876.0298     0.40176E+02 
  39908.2919     0.40277E+02 
  39940.5541     0.40377E+02 
  39972.8162     0.40476E+02 
  40005.0784     0.40574E+02 
  40037.3406     0.40671E+02 
  40069.6027     0.40767E+02 
  40101.8649     0.40862E+02 
  40134.1270     0.40955E+02 
  40166.3892     0.41048E+02 
  40198.6514     0.41140E+02 
  40230.9135     0.41230E+02 
  40263.1757     0.41319E+02 
  40295.4378     0.41408E+02 
  40327.7000     0.41495E+02 
  40359.9622     0.41581E+02 
  40392.2243     0.41666E+02 
  40424.4865     0.41750E+02 
  40456.7486     0.41833E+02 
  40489.0108     0.41914E+02 
  40521.2730     0.41995E+02 
  40553.5351     0.42074E+02 
  40585.7973     0.42153E+02 
  40618.0594     0.42230E+02 
  40650.3216     0.42306E+02 
  40682.5838     0.42380E+02 
  40714.8459     0.42454E+02 
  40747.1081     0.42526E+02 
  40779.3702     0.42598E+02 
  40811.6324     0.42668E+02 
  40843.8946     0.42737E+02 
  40876.1567     0.42805E+02 
  40908.4189     0.42871E+02 
  40940.6810     0.42937E+02 
  40972.9432     0.43001E+02 
  41005.2054     0.43064E+02 
  41037.4675     0.43126E+02 
  41069.7297     0.43186E+02 
  41101.9918     0.43246E+02 
  41134.2540     0.43304E+02 
  41166.5162     0.43361E+02 
  41198.7783     0.43417E+02 
  41231.0405     0.43471E+02 
  41263.3026     0.43525E+02 
  41295.5648     0.43577E+02 
  41327.8270     0.43628E+02 
  41360.0891     0.43677E+02 
  41392.3513     0.43726E+02 
  41424.6134     0.43773E+02 
  41456.8756     0.43819E+02 
  41489.1378     0.43864E+02 
  41521.3999     0.43907E+02 
  41553.6621     0.43950E+02 
  41585.9242     0.43991E+02 
  41618.1864     0.44031E+02 
  41650.4486     0.44069E+02 
  41682.7107     0.44107E+02 
  41714.9729     0.44143E+02 
  41747.2350     0.44178E+02 
  41779.4972     0.44211E+02 
  41811.7594     0.44244E+02 
  41844.0215     0.44275E+02 
  41876.2837     0.44305E+02 
  41908.5458     0.44334E+02 
  41940.8080     0.44361E+02 
  41973.0702     0.44387E+02 
  42005.3323     0.44412E+02 
  42037.5945     0.44436E+02 
  42069.8566     0.44458E+02 
  42102.1188     0.44480E+02 
  42134.3810     0.44500E+02 
  42166.6431     0.44518E+02 
  42198.9053     0.44536E+02 
  42231.1674     0.44552E+02 
  42263.4296     0.44567E+02 
  42295.6918     0.44581E+02 
  42327.9539     0.44594E+02 
  42360.2161     0.44605E+02 
  42392.4782     0.44615E+02 
  42424.7404     0.44624E+02 
  42457.0026     0.44631E+02 
  42489.2647     0.44638E+02 
  42521.5269     0.44643E+02 
  42553.7890     0.44647E+02 
  42586.0512     0.44650E+02 
  42618.3134     0.44651E+02 
  42650.5755     0.44651E+02 
  42682.8377     0.44650E+02 
  42715.0998     0.44648E+02 
  42747.3620     0.44645E+02 
  42779.6242     0.44640E+02 
  42811.8863     0.44634E+02 
  42844.1485     0.44627E+02 
  42876.4106     0.44619E+02 
  42908.6728     0.44610E+02 
  42940.9350     0.44599E+02 
  42973.1971     0.44587E+02 
  43005.4593     0.44574E+02 
  43037.7214     0.44560E+02 
  43069.9836     0.44545E+02 
  43102.2458     0.44528E+02 
  43134.5079     0.44510E+02 
  43166.7701     0.44491E+02 
  43199.0322     0.44471E+02 
  43231.2944     0.44450E+02 
  43263.5566     0.44427E+02 
  43295.8187     0.44404E+02 
  43328.0809     0.44379E+02 
  43360.3430     0.44353E+02 
  43392.6052     0.44326E+02 
  43424.8674     0.44298E+02 
  43457.1295     0.44268E+02 
  43489.3917     0.44238E+02 
  43521.6538     0.44206E+02 
  43553.9160     0.44173E+02 
  43586.1782     0.44139E+02 
  43618.4403     0.44104E+02 
  43650.7025     0.44068E+02 
  43682.9646     0.44031E+02 
  43715.2268     0.43993E+02 
  43747.4890     0.43953E+02 
  43779.7511     0.43913E+02 
  43812.0133     0.43871E+02 
  43844.2754     0.43828E+02 
  43876.5376     0.43784E+02 
  43908.7998     0.43739E+02 
  43941.0619     0.43693E+02 
  43973.3241     0.43646E+02 
  44005.5862     0.43598E+02 
  44037.8484     0.43549E+02 
  44070.1106     0.43499E+02 
  44102.3727     0.43448E+02 
  44134.6349     0.43395E+02 
  44166.8970     0.43342E+02 
  44199.1592     0.43288E+02 
  44231.4214     0.43232E+02 
  44263.6835     0.43176E+02 
  44295.9457     0.43119E+02 
  44328.2078     0.43060E+02 
  44360.4700     0.43001E+02 
  44392.7322     0.42940E+02 
  44424.9943     0.42879E+02 
  44457.2565     0.42817E+02 
  44489.5186     0.42753E+02 
  44521.7808     0.42689E+02 
  44554.0430     0.42624E+02 
  44586.3051     0.42558E+02 
  44618.5673     0.42490E+02 
  44650.8294     0.42422E+02 
  44683.0916     0.42353E+02 
  44715.3538     0.42283E+02 
  44747.6159     0.42212E+02 
  44779.8781     0.42141E+02 
  44812.1402     0.42068E+02 
  44844.4024     0.41994E+02 
  44876.6646     0.41920E+02 
  44908.9267     0.41844E+02 
  44941.1889     0.41768E+02 
  44973.4510     0.41691E+02 
  45005.7132     0.41613E+02 
  45037.9754     0.41534E+02 
  45070.2375     0.41454E+02 
  45102.4997     0.41374E+02 
  45134.7618     0.41292E+02 
  45167.0240     0.41210E+02 
  45199.2862     0.41127E+02 
  45231.5483     0.41043E+02 
  45263.8105     0.40958E+02 
  45296.0726     0.40873E+02 
  45328.3348     0.40787E+02 
  45360.5970     0.40700E+02 
  45392.8591     0.40612E+02 
  45425.1213     0.40523E+02 
  45457.3834     0.40434E+02 
  45489.6456     0.40344E+02 
  45521.9078     0.40253E+02 
  45554.1699     0.40161E+02 
  45586.4321     0.40069E+02 
  45618.6942     0.39975E+02 
  45650.9564     0.39882E+02 
  45683.2186     0.39787E+02 
  45715.4807     0.39692E+02 
  45747.7429     0.39596E+02 
  45780.0050     0.39499E+02 
  45812.2672     0.39402E+02 
  45844.5294     0.39304E+02 
  45876.7915     0.39205E+02 
  45909.0537     0.39106E+02 
  45941.3158     0.39006E+02 
  45973.5780     0.38905E+02 
  46005.8402     0.38804E+02 
  46038.1023     0.38702E+02 
  46070.3645     0.38599E+02 
  46102.6266     0.38496E+02 
  46134.8888     0.38392E+02 
  46167.1510     0.38288E+02 
  46199.4131     0.38183E+02 
  46231.6753     0.38078E+02 
  46263.9374     0.37971E+02 
  46296.1996     0.37865E+02 
  46328.4618     0.37757E+02 
  46360.7239     0.37650E+02 
  46392.9861     0.37541E+02 
  46425.2482     0.37432E+02 
  46457.5104     0.37323E+02 
  46489.7726     0.37213E+02 
  46522.0347     0.37102E+02 
  46554.2969     0.36992E+02 
  46586.5590     0.36880E+02 
  46618.8212     0.36768E+02 
  46651.0834     0.36656E+02 
  46683.3455     0.36543E+02 
  46715.6077     0.36429E+02 
  46747.8698     0.36315E+02 
  46780.1320     0.36201E+02 
  46812.3942     0.36086E+02 
  46844.6563     0.35971E+02 
  46876.9185     0.35855E+02 
  46909.1806     0.35739E+02 
  46941.4428     0.35623E+02 
  46973.7050     0.35506E+02 
  47005.9671     0.35389E+02 
  47038.2293     0.35271E+02 
  47070.4914     0.35153E+02 
  47102.7536     0.35034E+02 
  47135.0158     0.34916E+02 
  47167.2779     0.34796E+02 
  47199.5401     0.34677E+02 
  47231.8022     0.34557E+02 
  47264.0644     0.34437E+02 
  47296.3266     0.34316E+02 
  47328.5887     0.34195E+02 
  47360.8509     0.34074E+02 
  47393.1130     0.33952E+02 
  47425.3752     0.33830E+02 
  47457.6374     0.33708E+02 
  47489.8995     0.33586E+02 
  47522.1617     0.33463E+02 
  47554.4238     0.33340E+02 
  47586.6860     0.33217E+02 
  47618.9482     0.33093E+02 
  47651.2103     0.32969E+02 
  47683.4725     0.32845E+02 
  47715.7346     0.32721E+02 
  47747.9968     0.32597E+02 
  47780.2590     0.32472E+02 
  47812.5211     0.32347E+02 
  47844.7833     0.32222E+02 
  47877.0454     0.32096E+02 
  47909.3076     0.31971E+02 
  47941.5698     0.31845E+02 
  47973.8319     0.31719E+02 
  48006.0941     0.31593E+02 
  48038.3562     0.31467E+02 
  48070.6184     0.31340E+02 
  48102.8806     0.31213E+02 
  48135.1427     0.31087E+02 
  48167.4049     0.30960E+02 
  48199.6670     0.30833E+02 
  48231.9292     0.30705E+02 
  48264.1914     0.30578E+02 
  48296.4535     0.30451E+02 
  48328.7157     0.30323E+02 
  48360.9778     0.30195E+02 
  48393.2400     0.30068E+02 
  48425.5022     0.29940E+02 
  48457.7643     0.29812E+02 
  48490.0265     0.29684E+02 
  48522.2886     0.29556E+02 
  48554.5508     0.29427E+02 
  48586.8130     0.29299E+02 
  48619.0751     0.29171E+02 
  48651.3373     0.29042E+02 
  48683.5994     0.28914E+02 
  48715.8616     0.28786E+02 
  48748.1238     0.28657E+02 
  48780.3859     0.28529E+02 
  48812.6481     0.28400E+02 
  48844.9102     0.28272E+02 
  48877.1724     0.28143E+02 
  48909.4346     0.28015E+02 
  48941.6967     0.27886E+02 
  48973.9589     0.27757E+02 
  49006.2210     0.27629E+02 
  49038.4832     0.27500E+02 
  49070.7454     0.27372E+02 
  49103.0075     0.27244E+02 
  49135.2697     0.27115E+02 
  49167.5318     0.26987E+02 
  49199.7940     0.26858E+02 
  49232.0562     0.26730E+02 
  49264.3183     0.26602E+02 
  49296.5805     0.26474E+02 
  49328.8426     0.26346E+02 
  49361.1048     0.26218E+02 
  49393.3670     0.26090E+02 
  49425.6291     0.25962E+02 
  49457.8913     0.25834E+02 
  49490.1534     0.25707E+02 
  49522.4156     0.25579E+02 
  49554.6778     0.25452E+02 
  49586.9399     0.25325E+02 
  49619.2021     0.25197E+02 
  49651.4642     0.25070E+02 
  49683.7264     0.24943E+02 
  49715.9886     0.24816E+02 
  49748.2507     0.24690E+02 
  49780.5129     0.24563E+02 
  49812.7750     0.24437E+02 
  49845.0372     0.24311E+02 
  49877.2994     0.24184E+02 
  49909.5615     0.24058E+02 
  49941.8237     0.23933E+02 
  49974.0858     0.23807E+02 
  50006.3480     0.23682E+02 
  50038.6102     0.23556E+02 
  50070.8723     0.23431E+02 
  50103.1345     0.23306E+02 
  50135.3966     0.23182E+02 
  50167.6588     0.23057E+02 
  50199.9210     0.22933E+02 
  50232.1831     0.22808E+02 
  50264.4453     0.22685E+02 
  50296.7074     0.22561E+02 
  50328.9696     0.22437E+02 
  50361.2318     0.22314E+02 
  50393.4939     0.22191E+02 
  50425.7561     0.22068E+02 
  50458.0182     0.21945E+02 
  50490.2804     0.21823E+02 
  50522.5426     0.21701E+02 
  50554.8047     0.21579E+02 
  50587.0669     0.21457E+02 
  50619.3290     0.21336E+02 
  50651.5912     0.21215E+02 
  50683.8534     0.21094E+02 
  50716.1155     0.20973E+02 
  50748.3777     0.20852E+02 
  50780.6398     0.20732E+02 
  50812.9020     0.20612E+02 
  50845.1642     0.20493E+02 
  50877.4263     0.20373E+02 
  50909.6885     0.20254E+02 
  50941.9506     0.20135E+02 
  50974.2128     0.20017E+02 
  51006.4750     0.19899E+02 
  51038.7371     0.19781E+02 
  51070.9993     0.19663E+02 
  51103.2614     0.19546E+02 
  51135.5236     0.19429E+02 
  51167.7858     0.19312E+02 
  51200.0479     0.19195E+02 
  51232.3101     0.19079E+02 
  51264.5722     0.18963E+02 
  51296.8344     0.18848E+02 
  51329.0966     0.18732E+02 
  51361.3587     0.18617E+02 
  51393.6209     0.18503E+02 
  51425.8830     0.18389E+02 
  51458.1452     0.18275E+02 
  51490.4074     0.18161E+02 
  51522.6695     0.18048E+02 
  51554.9317     0.17935E+02 
  51587.1938     0.17822E+02 
  51619.4560     0.17710E+02 
  51651.7182     0.17598E+02 
  51683.9803     0.17486E+02 
  51716.2425     0.17375E+02 
  51748.5046     0.17264E+02 
  51780.7668     0.17153E+02 
  51813.0290     0.17043E+02 
  51845.2911     0.16933E+02 
  51877.5533     0.16823E+02 
  51909.8154     0.16714E+02 
  51942.0776     0.16605E+02 
  51974.3398     0.16496E+02 
  52006.6019     0.16388E+02 
  52038.8641     0.16280E+02 
  52071.1262     0.16173E+02 
  52103.3884     0.16066E+02 
  52135.6506     0.15959E+02 
  52167.9127     0.15853E+02 
  52200.1749     0.15747E+02 
  52232.4370     0.15641E+02 
  52264.6992     0.15536E+02 
  52296.9614     0.15431E+02 
  52329.2235     0.15327E+02 
  52361.4857     0.15222E+02 
  52393.7478     0.15119E+02 
  52426.0100     0.15015E+02 
  52458.2722     0.14912E+02 
  52490.5343     0.14810E+02 
  52522.7965     0.14707E+02 
  52555.0586     0.14605E+02 
  52587.3208     0.14504E+02 
  52619.5830     0.14403E+02 
  52651.8451     0.14302E+02 
  52684.1073     0.14202E+02 
  52716.3694     0.14102E+02 
  52748.6316     0.14002E+02 
  52780.8938     0.13903E+02 
  52813.1559     0.13804E+02 
  52845.4181     0.13706E+02 
  52877.6802     0.13608E+02 
  52909.9424     0.13510E+02 
  52942.2046     0.13413E+02 
  52974.4667     0.13316E+02 
  53006.7289     0.13220E+02 
  53038.9910     0.13124E+02 
  53071.2532     0.13028E+02 
  53103.5154     0.12933E+02 
  53135.7775     0.12838E+02 
  53168.0397     0.12744E+02 
  53200.3018     0.12650E+02 
  53232.5640     0.12556E+02 
  53264.8262     0.12463E+02 
  53297.0883     0.12370E+02 
  53329.3505     0.12278E+02 
  53361.6126     0.12186E+02 
  53393.8748     0.12094E+02 
  53426.1370     0.12003E+02 
  53458.3991     0.11912E+02 
  53490.6613     0.11821E+02 
  53522.9234     0.11731E+02 
  53555.1856     0.11642E+02 
  53587.4478     0.11553E+02 
  53619.7099     0.11464E+02 
  53651.9721     0.11375E+02 
  53684.2342     0.11287E+02 
  53716.4964     0.11200E+02 
  53748.7586     0.11113E+02 
  53781.0207     0.11026E+02 
  53813.2829     0.10939E+02 
  53845.5450     0.10853E+02 
  53877.8072     0.10768E+02 
  53910.0694     0.10683E+02 
  53942.3315     0.10598E+02 
  53974.5937     0.10513E+02 
  54006.8558     0.10429E+02 
  54039.1180     0.10346E+02 
  54071.3802     0.10263E+02 
  54103.6423     0.10180E+02 
  54135.9045     0.10098E+02 
  54168.1666     0.10016E+02 
  54200.4288     0.99340E+01 
  54232.6910     0.98528E+01 
  54264.9531     0.97721E+01 
  54297.2153     0.96917E+01 
  54329.4774     0.96118E+01 
  54361.7396     0.95322E+01 
  54394.0018     0.94531E+01 
  54426.2639     0.93743E+01 
  54458.5261     0.92960E+01 
  54490.7882     0.92180E+01 
  54523.0504     0.91405E+01 
  54555.3126     0.90633E+01 
  54587.5747     0.89865E+01 
  54619.8369     0.89102E+01 
  54652.0990     0.88342E+01 
  54684.3612     0.87587E+01 
  54716.6234     0.86835E+01 
  54748.8855     0.86087E+01 
  54781.1477     0.85343E+01 
  54813.4098     0.84603E+01 
  54845.6720     0.83868E+01 
  54877.9342     0.83136E+01 
  54910.1963     0.82408E+01 
  54942.4585     0.81683E+01 
  54974.7206     0.80963E+01 
  55006.9828     0.80247E+01 
  55039.2450     0.79535E+01 
  55071.5071     0.78826E+01 
  55103.7693     0.78121E+01 
  55136.0314     0.77421E+01 
  55168.2936     0.76724E+01 
  55200.5558     0.76031E+01 
  55232.8179     0.75342E+01 
  55265.0801     0.74656E+01 
  55297.3422     0.73975E+01 
  55329.6044     0.73297E+01 
  55361.8666     0.72624E+01 
  55394.1287     0.71954E+01 
  55426.3909     0.71287E+01 
  55458.6530     0.70625E+01 
  55490.9152     0.69967E+01 
  55523.1774     0.69312E+01 
  55555.4395     0.68661E+01 
  55587.7017     0.68014E+01 
  55619.9638     0.67370E+01 
  55652.2260     0.66730E+01 
  55684.4882     0.66094E+01 
  55716.7503     0.65462E+01 
  55749.0125     0.64834E+01 
  55781.2746     0.64209E+01 
  55813.5368     0.63588E+01 
  55845.7990     0.62970E+01 
  55878.0611     0.62356E+01 
  55910.3233     0.61746E+01 
  55942.5854     0.61140E+01 
  55974.8476     0.60537E+01 
  56007.1098     0.59938E+01 
  56039.3719     0.59343E+01 
  56071.6341     0.58751E+01 
  56103.8962     0.58163E+01 
  56136.1584     0.57578E+01 
  56168.4206     0.56997E+01 
  56200.6827     0.56420E+01 
  56232.9449     0.55846E+01 
  56265.2070     0.55275E+01 
  56297.4692     0.54709E+01 
  56329.7314     0.54145E+01 
  56361.9935     0.53586E+01 
  56394.2557     0.53030E+01 
  56426.5178     0.52477E+01 
  56458.7800     0.51928E+01 
  56491.0422     0.51382E+01 
  56523.3043     0.50840E+01 
  56555.5665     0.50301E+01 
  56587.8286     0.49766E+01 
  56620.0908     0.49234E+01 
  56652.3530     0.48706E+01 
  56684.6151     0.48181E+01 
  56716.8773     0.47659E+01 
  56749.1394     0.47141E+01 
  56781.4016     0.46627E+01 
  56813.6638     0.46115E+01 
  56845.9259     0.45607E+01 
  56878.1881     0.45103E+01 
  56910.4502     0.44601E+01 
  56942.7124     0.44103E+01 
  56974.9746     0.43609E+01 
  57007.2367     0.43117E+01 
  57039.4989     0.42629E+01 
  57071.7610     0.42145E+01 
  57104.0232     0.41663E+01 
  57136.2854     0.41185E+01 
  57168.5475     0.40710E+01 
  57200.8097     0.40239E+01 
  57233.0718     0.39770E+01 
  57265.3340     0.39305E+01 
  57297.5962     0.38843E+01 
  57329.8583     0.38384E+01 
  57362.1205     0.37929E+01 
  57394.3826     0.37476E+01 
  57426.6448     0.37027E+01 
  57458.9070     0.36581E+01 
  57491.1691     0.36138E+01 
  57523.4313     0.35698E+01 
  57555.6934     0.35262E+01 
  57587.9556     0.34828E+01 
  57620.2178     0.34398E+01 
  57652.4799     0.33971E+01 
  57684.7421     0.33546E+01 
  57717.0042     0.33125E+01 
  57749.2664     0.32707E+01 
  57781.5286     0.32292E+01 
  57813.7907     0.31880E+01 
  57846.0529     0.31471E+01 
  57878.3150     0.31065E+01 
  57910.5772     0.30662E+01 
  57942.8394     0.30262E+01 
  57975.1015     0.29865E+01 
  58007.3637     0.29471E+01 
  58039.6258     0.29080E+01 
  58071.8880     0.28692E+01 
  58104.1502     0.28307E+01 
  58136.4123     0.27925E+01 
  58168.6745     0.27546E+01 
  58200.9366     0.27169E+01 
  58233.1988     0.26796E+01 
  58265.4610     0.26426E+01 
  58297.7231     0.26058E+01 
  58329.9853     0.25693E+01 
  58362.2474     0.25332E+01 
  58394.5096     0.24973E+01 
  58426.7718     0.24616E+01 
  58459.0339     0.24263E+01 
  58491.2961     0.23913E+01 
  58523.5582     0.23565E+01 
  58555.8204     0.23220E+01 
  58588.0826     0.22878E+01 
  58620.3447     0.22539E+01 
  58652.6069     0.22203E+01 
  58684.8690     0.21869E+01 
  58717.1312     0.21538E+01 
  58749.3934     0.21210E+01 
  58781.6555     0.20885E+01 
  58813.9177     0.20563E+01 
  58846.1798     0.20243E+01 
  58878.4420     0.19926E+01 
  58910.7042     0.19611E+01 
  58942.9663     0.19300E+01 
  58975.2285     0.18991E+01 
  59007.4906     0.18685E+01 
  59039.7528     0.18381E+01 
  59072.0150     0.18080E+01 
  59104.2771     0.17782E+01 
  59136.5393     0.17487E+01 
  59168.8014     0.17194E+01 
  59201.0636     0.16904E+01 
  59233.3258     0.16617E+01 
  59265.5879     0.16332E+01 
  59297.8501     0.16050E+01 
  59330.1122     0.15770E+01 
  59362.3744     0.15493E+01 
  59394.6366     0.15219E+01 
  59426.8987     0.14948E+01 
  59459.1609     0.14679E+01 
  59491.4230     0.14412E+01 
  59523.6852     0.14148E+01 
  59555.9474     0.13887E+01 
  59588.2095     0.13629E+01 
  59620.4717     0.13373E+01 
  59652.7338     0.13120E+01 
  59684.9960     0.12869E+01 
  59717.2582     0.12621E+01 
  59749.5203     0.12375E+01 
  59781.7825     0.12132E+01 
  59814.0446     0.11892E+01 
  59846.3068     0.11654E+01 
  59878.5690     0.11419E+01 
  59910.8311     0.11186E+01 
  59943.0933     0.10956E+01 
  59975.3554     0.10728E+01 
  60007.6176     0.10503E+01 
  60039.8798     0.10281E+01 
  60072.1419     0.10061E+01 
  60104.4041     0.98438E+00 
  60136.6662     0.96291E+00 
  60168.9284     0.94169E+00 
  60201.1906     0.92073E+00 
  60233.4527     0.90003E+00 
  60265.7149     0.87958E+00 
  60297.9770     0.85939E+00 
  60330.2392     0.83946E+00 
  60362.5014     0.81979E+00 
  60394.7635     0.80037E+00 
  60427.0257     0.78120E+00 
  60459.2878     0.76230E+00 
  60491.5500     0.74365E+00 
  60523.8122     0.72526E+00 
  60556.0743     0.70713E+00 
  60588.3365     0.68926E+00 
  60620.5986     0.67165E+00 
  60652.8608     0.65429E+00 
  60685.1230     0.63720E+00 
  60717.3851     0.62037E+00 
  60749.6473     0.60380E+00 
  60781.9094     0.58749E+00 
  60814.1716     0.57144E+00 
  60846.4338     0.55565E+00 
  60878.6959     0.54013E+00 
  60910.9581     0.52487E+00 
  60943.2202     0.50988E+00 
  60975.4824     0.49515E+00 
  61007.7446     0.48070E+00 
  61040.0067     0.46650E+00 
  61072.2689     0.45258E+00 
  61104.5310     0.43893E+00 
  61136.7932     0.42554E+00 
  61169.0554     0.41243E+00 
  61201.3175     0.39959E+00 
  61233.5797     0.38703E+00 
  61265.8418     0.37474E+00 
  61298.1040     0.36273E+00 
  61330.3662     0.35099E+00 
  61362.6283     0.33953E+00 
  61394.8905     0.32836E+00 
  61427.1526     0.31746E+00 
  61459.4148     0.30685E+00 
  61491.6770     0.29653E+00 
  61523.9391     0.28649E+00 
  61556.2013     0.27674E+00 
  61588.4634     0.26728E+00 
  61620.7256     0.25811E+00 
  61652.9878     0.24924E+00 
  61685.2499     0.24066E+00 
  61717.5121     0.23238E+00 
  61749.7742     0.22440E+00 
  61782.0364     0.21672E+00 
  61814.2986     0.20934E+00 
  61846.5607     0.20227E+00 
  61878.8229     0.19551E+00 
  61911.0850     0.18906E+00 
  61943.3472     0.18293E+00 
  61975.6094     0.17710E+00 
  62007.8715     0.17160E+00 
  62040.1337     0.16642E+00 
  62072.3958     0.16156E+00 
  62104.6580     0.15703E+00 
  62136.9202     0.15283E+00 
  62169.1823     0.14896E+00 
  62201.4445     0.14543E+00 
  62233.7066     0.14223E+00 
  62265.9688     0.13938E+00 
  62298.2310     0.13687E+00 
  62330.4931     0.13471E+00 
  62362.7553     0.13290E+00 
  62395.0174     0.13145E+00 
  62427.2796     0.13035E+00 
  62459.5418     0.12962E+00 
  62491.8039     0.12926E+00 
  62524.0661     0.12926E+00 
  62556.3282     0.12964E+00 
  62588.5904     0.13040E+00 
  62620.8526     0.13154E+00 
  62653.1147     0.13306E+00 
  62685.3769     0.13498E+00 
  62717.6390     0.13730E+00 
  62749.9012     0.14001E+00 
  62782.1634     0.14313E+00 
  62814.4255     0.14666E+00 
  62846.6877     0.15060E+00 
  62878.9498     0.15497E+00 
  62911.2120     0.15975E+00 
  62943.4742     0.16497E+00 
  62975.7363     0.17063E+00 
  63007.9985     0.17672E+00 
  63040.2606     0.18326E+00 
  63072.5228     0.19026E+00 
  63104.7850     0.19771E+00 
  63137.0471     0.20563E+00 
  63169.3093     0.21401E+00 
  63201.5714     0.22287E+00 
  63233.8336     0.23222E+00 
  63266.0958     0.24206E+00 
  63298.3579     0.25239E+00 
  63330.6201     0.26322E+00 
  63362.8822     0.27457E+00 
  63395.1444     0.28643E+00 
  63427.4066     0.29881E+00 
  63459.6687     0.31173E+00 
  63491.9309     0.32518E+00 
  63524.1930     0.33918E+00 
  63556.4552     0.35374E+00 
  63588.7174     0.36886E+00 
  63620.9795     0.38455E+00 
  63653.2417     0.40081E+00 
  63685.5038     0.41767E+00 
  63717.7660     0.43512E+00 
  63750.0282     0.45317E+00 
  63782.2903     0.47184E+00 
  63814.5525     0.49113E+00 
  63846.8146     0.51106E+00 
  63879.0768     0.53162E+00 
  63911.3390     0.55284E+00 
  63943.6011     0.57472E+00 
  63975.8633     0.59726E+00 
  64008.1254     0.62049E+00 
  64040.3876     0.64441E+00 
  64072.6498     0.66904E+00 
  64104.9119     0.69438E+00 
  64137.1741     0.72044E+00 
  64169.4362     0.74723E+00 
  64201.6984     0.77478E+00 
  64233.9606     0.80308E+00 
  64266.2227     0.83215E+00 
  64298.4849     0.86200E+00 
  64330.7470     0.89265E+00 
  64363.0092     0.92411E+00 
  64395.2714     0.95638E+00 
  64427.5335     0.98949E+00 
  64459.7957     0.10234E+01 
  64492.0578     0.10583E+01 
  64524.3200     0.10939E+01 
  64556.5822     0.11305E+01 
  64588.8443     0.11680E+01 
  64621.1065     0.12064E+01 
  64653.3686     0.12457E+01 
  64685.6308     0.12860E+01 
  64717.8930     0.13272E+01 
  64750.1551     0.13694E+01 
  64782.4173     0.14126E+01 
  64814.6794     0.14568E+01 
  64846.9416     0.15020E+01 
  64879.2038     0.15482E+01 
  64911.4659     0.15955E+01 
  64943.7281     0.16439E+01 
  64975.9902     0.16934E+01 
  65008.2524     0.17440E+01 
  65040.5146     0.17957E+01 
  65072.7767     0.18485E+01 
  65105.0389     0.19025E+01 
  65137.3010     0.19577E+01 
  65169.5632     0.20141E+01 
  65201.8254     0.20717E+01 
  65234.0875     0.21305E+01 
  65266.3497     0.21906E+01 
  65298.6118     0.22520E+01 
  65330.8740     0.23146E+01 
  65363.1362     0.23786E+01 
  65395.3983     0.24440E+01 
  65427.6605     0.25106E+01 
  65459.9226     0.25787E+01 
  65492.1848     0.26482E+01 
  65524.4470     0.27191E+01 
  65556.7091     0.27914E+01 
  65588.9713     0.28652E+01 
  65621.2334     0.29406E+01 
  65653.4956     0.30174E+01 
  65685.7578     0.30958E+01 
  65718.0199     0.31757E+01 
  65750.2821     0.32572E+01 
  65782.5442     0.33404E+01 
  65814.8064     0.34252E+01 
  65847.0686     0.35116E+01 
  65879.3307     0.35998E+01 
  65911.5929     0.36897E+01 
  65943.8550     0.37813E+01 
  65976.1172     0.38747E+01 
  66008.3794     0.39699E+01 
  66040.6415     0.40669E+01 
  66072.9037     0.41658E+01 
  66105.1658     0.42666E+01 
  66137.4280     0.43692E+01 
  66169.6902     0.44739E+01 
  66201.9523     0.45805E+01 
  66234.2145     0.46891E+01 
  66266.4766     0.47997E+01 
  66298.7388     0.49124E+01 
  66331.0010     0.50272E+01 
  66363.2631     0.51442E+01 
  66395.5253     0.52633E+01 
  66427.7874     0.53846E+01 
  66460.0496     0.55081E+01 
  66492.3118     0.56339E+01 
  66524.5739     0.57620E+01 
  66556.8361     0.58924E+01 
  66589.0982     0.60251E+01 
  66621.3604     0.61603E+01 
  66653.6226     0.62979E+01 
  66685.8847     0.64380E+01 
  66718.1469     0.65805E+01 
  66750.4090     0.67257E+01 
  66782.6712     0.68734E+01 
  66814.9334     0.70237E+01 
  66847.1955     0.71766E+01 
  66879.4577     0.73323E+01 
  66911.7198     0.74907E+01 
  66943.9820     0.76518E+01 
  66976.2442     0.78158E+01 
  67008.5063     0.79826E+01 
  67040.7685     0.81524E+01 
  67073.0306     0.83250E+01 
  67105.2928     0.85006E+01 
  67137.5550     0.86792E+01 
  67169.8171     0.88609E+01 
  67202.0793     0.90457E+01 
  67234.3414     0.92336E+01 
  67266.6036     0.94248E+01 
  67298.8658     0.96191E+01 
  67331.1279     0.98167E+01 
  67363.3901     0.10018E+02 
  67395.6522     0.10222E+02 
  67427.9144     0.10430E+02 
  67460.1766     0.10641E+02 
  67492.4387     0.10856E+02 
  67524.7009     0.11074E+02 
  67556.9630     0.11296E+02 
  67589.2252     0.11521E+02 
  67621.4874     0.11750E+02 
  67653.7495     0.11983E+02 
  67686.0117     0.12220E+02 
  67718.2738     0.12460E+02 
  67750.5360     0.12705E+02 
  67782.7982     0.12953E+02 
  67815.0603     0.13205E+02 
  67847.3225     0.13462E+02 
  67879.5846     0.13722E+02 
  67911.8468     0.13987E+02 
  67944.1090     0.14256E+02 
  67976.3711     0.14529E+02 
  68008.6333     0.14806E+02 
  68040.8954     0.15088E+02 
  68073.1576     0.15374E+02 
  68105.4198     0.15665E+02 
  68137.6819     0.15960E+02 
  68169.9441     0.16260E+02 
  68202.2062     0.16564E+02 
  68234.4684     0.16873E+02 
  68266.7306     0.17187E+02 
  68298.9927     0.17505E+02 
  68331.2549     0.17829E+02 
  68363.5170     0.18157E+02 
  68395.7792     0.18490E+02 
  68428.0414     0.18829E+02 
  68460.3035     0.19172E+02 
  68492.5657     0.19521E+02 
  68524.8278     0.19874E+02 
  68557.0900     0.20234E+02 
  68589.3522     0.20598E+02 
  68621.6143     0.20968E+02 
  68653.8765     0.21343E+02 
  68686.1386     0.21724E+02 
  68718.4008     0.22110E+02 
  68750.6630     0.22502E+02 
  68782.9251     0.22900E+02 
  68815.1873     0.23303E+02 
  68847.4494     0.23712E+02 
  68879.7116     0.24127E+02 
  68911.9738     0.24548E+02 
  68944.2359     0.24975E+02 
  68976.4981     0.25408E+02 
  69008.7602     0.25848E+02 
  69041.0224     0.26293E+02 
  69073.2846     0.26745E+02 
  69105.5467     0.27203E+02 
  69137.8089     0.27667E+02 
  69170.0710     0.28138E+02 
  69202.3332     0.28615E+02 
  69234.5954     0.29099E+02 
  69266.8575     0.29590E+02 
  69299.1197     0.30087E+02 
  69331.3818     0.30592E+02 
  69363.6440     0.31103E+02 
  69395.9062     0.31621E+02 
  69428.1683     0.32145E+02 
  69460.4305     0.32677E+02 
  69492.6926     0.33216E+02 
  69524.9548     0.33763E+02 
  69557.2170     0.34316E+02 
  69589.4791     0.34877E+02 
  69621.7413     0.35445E+02 
  69654.0034     0.36021E+02 
  69686.2656     0.36604E+02 
  69718.5278     0.37195E+02 
  69750.7899     0.37793E+02 
  69783.0521     0.38399E+02 
  69815.3142     0.39013E+02 
  69847.5764     0.39635E+02 
  69879.8386     0.40264E+02 
  69912.1007     0.40902E+02 
  69944.3629     0.41548E+02 
  69976.6250     0.42202E+02 
  70008.8872     0.42864E+02 
  70041.1494     0.43534E+02 
  70073.4115     0.44213E+02 
  70105.6737     0.44900E+02 
  70137.9358     0.45595E+02 
  70170.1980     0.46299E+02 
  70202.4602     0.47012E+02 
  70234.7223     0.47733E+02 
  70266.9845     0.48463E+02 
  70299.2466     0.49201E+02 
  70331.5088     0.49949E+02 
  70363.7710     0.50706E+02 
  70396.0331     0.51471E+02 
  70428.2953     0.52246E+02 
  70460.5574     0.53029E+02 
  70492.8196     0.53822E+02 
  70525.0818     0.54624E+02 
  70557.3439     0.55436E+02 
  70589.6061     0.56256E+02 
  70621.8682     0.57087E+02 
  70654.1304     0.57926E+02 
  70686.3926     0.58776E+02 
  70718.6547     0.59634E+02 
  70750.9169     0.60503E+02 
  70783.1790     0.61381E+02 
  70815.4412     0.62269E+02 
  70847.7034     0.63168E+02 
  70879.9655     0.64075E+02 
  70912.2277     0.64993E+02 
  70944.4898     0.65921E+02 
  70976.7520     0.66859E+02 
  71009.0142     0.67808E+02 
  71041.2763     0.68766E+02 
  71073.5385     0.69735E+02 
  71105.8006     0.70714E+02 
  71138.0628     0.71704E+02 
  71170.3250     0.72704E+02 
  71202.5871     0.73714E+02 
  71234.8493     0.74735E+02 
  71267.1114     0.75767E+02 
  71299.3736     0.76809E+02 
  71331.6358     0.77862E+02 
  71363.8979     0.78926E+02 
  71396.1601     0.80001E+02 
  71428.4222     0.81086E+02 
  71460.6844     0.82183E+02 
  71492.9466     0.83290E+02 
  71525.2087     0.84408E+02 
  71557.4709     0.85538E+02 
  71589.7330     0.86679E+02 
  71621.9952     0.87830E+02 
  71654.2574     0.88993E+02 
  71686.5195     0.90168E+02 
  71718.7817     0.91353E+02 
  71751.0438     0.92550E+02 
  71783.3060     0.93758E+02 
  71815.5682     0.94978E+02 
  71847.8303     0.96209E+02 
  71880.0925     0.97452E+02 
  71912.3546     0.98706E+02 
  71944.6168     0.99972E+02 
  71976.8790     0.10125E+03 
  72009.1411     0.10254E+03 
  72041.4033     0.10384E+03 
  72073.6654     0.10515E+03 
  72105.9276     0.10648E+03 
  72138.1898     0.10781E+03 
  72170.4519     0.10916E+03 
  72202.7141     0.11052E+03 
  72234.9762     0.11189E+03 
  72267.2384     0.11327E+03 
  72299.5006     0.11467E+03 
  72331.7627     0.11608E+03 
  72364.0249     0.11750E+03 
  72396.2870     0.11893E+03 
  72428.5492     0.12037E+03 
  72460.8114     0.12182E+03 
  72493.0735     0.12329E+03 
  72525.3357     0.12477E+03 
  72557.5978     0.12626E+03 
  72589.8600     0.12777E+03 
