  32262.1600     0.15105E+03 
  32294.4222     0.15266E+03 
  32326.6843     0.15428E+03 
  32358.9465     0.15591E+03 
  32391.2086     0.15755E+03 
  32423.4708     0.15920E+03 
  32455.7330     0.16086E+03 
  32487.9951     0.16253E+03 
  32520.2573     0.16421E+03 
  32552.5194     0.16591E+03 
  32584.7816     0.16761E+03 
  32617.0438     0.16933E+03 
  32649.3059     0.17105E+03 
  32681.5681     0.17279E+03 
  32713.8302     0.17454E+03 
  32746.0924     0.17630E+03 
  32778.3546     0.17807E+03 
  32810.6167     0.17985E+03 
  32842.8789     0.18164E+03 
  32875.1410     0.18344E+03 
  32907.4032     0.18525E+03 
  32939.6654     0.18708E+03 
  32971.9275     0.18891E+03 
  33004.1897     0.19075E+03 
  33036.4518     0.19261E+03 
  33068.7140     0.19447E+03 
  33100.9762     0.19635E+03 
  33133.2383     0.19823E+03 
  33165.5005     0.20013E+03 
  33197.7626     0.20204E+03 
  33230.0248     0.20395E+03 
  33262.2870     0.20588E+03 
  33294.5491     0.20782E+03 
  33326.8113     0.20977E+03 
  33359.0734     0.21173E+03 
  33391.3356     0.21369E+03 
  33423.5978     0.21567E+03 
  33455.8599     0.21766E+03 
  33488.1221     0.21966E+03 
  33520.3842     0.22167E+03 
  33552.6464     0.22369E+03 
  33584.9086     0.22571E+03 
  33617.1707     0.22775E+03 
  33649.4329     0.22980E+03 
  33681.6950     0.23186E+03 
  33713.9572     0.23392E+03 
  33746.2194     0.23600E+03 
  33778.4815     0.23809E+03 
  33810.7437     0.24018E+03 
  33843.0058     0.24229E+03 
  33875.2680     0.24440E+03 
  33907.5302     0.24652E+03 
  33939.7923     0.24866E+03 
  33972.0545     0.25080E+03 
  34004.3166     0.25295E+03 
  34036.5788     0.25511E+03 
  34068.8410     0.25728E+03 
  34101.1031     0.25946E+03 
  34133.3653     0.26164E+03 
  34165.6274     0.26384E+03 
  34197.8896     0.26604E+03 
  34230.1518     0.26826E+03 
  34262.4139     0.27048E+03 
  34294.6761     0.27271E+03 
  34326.9382     0.27495E+03 
  34359.2004     0.27719E+03 
  34391.4626     0.27945E+03 
  34423.7247     0.28171E+03 
  34455.9869     0.28398E+03 
  34488.2490     0.28626E+03 
  34520.5112     0.28854E+03 
  34552.7734     0.29084E+03 
  34585.0355     0.29314E+03 
  34617.2977     0.29545E+03 
  34649.5598     0.29777E+03 
  34681.8220     0.30009E+03 
  34714.0842     0.30242E+03 
  34746.3463     0.30476E+03 
  34778.6085     0.30711E+03 
  34810.8706     0.30946E+03 
  34843.1328     0.31182E+03 
  34875.3950     0.31419E+03 
  34907.6571     0.31656E+03 
  34939.9193     0.31894E+03 
  34972.1814     0.32133E+03 
  35004.4436     0.32372E+03 
  35036.7058     0.32612E+03 
  35068.9679     0.32852E+03 
  35101.2301     0.33093E+03 
  35133.4922     0.33335E+03 
  35165.7544     0.33578E+03 
  35198.0166     0.33821E+03 
  35230.2787     0.34064E+03 
  35262.5409     0.34308E+03 
  35294.8030     0.34553E+03 
  35327.0652     0.34798E+03 
  35359.3274     0.35043E+03 
  35391.5895     0.35290E+03 
  35423.8517     0.35536E+03 
  35456.1138     0.35783E+03 
  35488.3760     0.36031E+03 
  35520.6382     0.36279E+03 
  35552.9003     0.36528E+03 
  35585.1625     0.36777E+03 
  35617.4246     0.37026E+03 
  35649.6868     0.37276E+03 
  35681.9490     0.37526E+03 
  35714.2111     0.37777E+03 
  35746.4733     0.38028E+03 
  35778.7354     0.38279E+03 
  35810.9976     0.38531E+03 
  35843.2598     0.38783E+03 
  35875.5219     0.39035E+03 
  35907.7841     0.39288E+03 
  35940.0462     0.39541E+03 
  35972.3084     0.39794E+03 
  36004.5706     0.40048E+03 
  36036.8327     0.40301E+03 
  36069.0949     0.40556E+03 
  36101.3570     0.40810E+03 
  36133.6192     0.41064E+03 
  36165.8814     0.41319E+03 
  36198.1435     0.41574E+03 
  36230.4057     0.41829E+03 
  36262.6678     0.42084E+03 
  36294.9300     0.42340E+03 
  36327.1922     0.42595E+03 
  36359.4543     0.42851E+03 
  36391.7165     0.43107E+03 
  36423.9786     0.43362E+03 
  36456.2408     0.43618E+03 
  36488.5030     0.43874E+03 
  36520.7651     0.44131E+03 
  36553.0273     0.44387E+03 
  36585.2894     0.44643E+03 
  36617.5516     0.44899E+03 
  36649.8138     0.45155E+03 
  36682.0759     0.45411E+03 
  36714.3381     0.45667E+03 
  36746.6002     0.45923E+03 
  36778.8624     0.46179E+03 
  36811.1246     0.46435E+03 
  36843.3867     0.46691E+03 
  36875.6489     0.46947E+03 
  36907.9110     0.47202E+03 
  36940.1732     0.47458E+03 
  36972.4354     0.47713E+03 
  37004.6975     0.47968E+03 
  37036.9597     0.48223E+03 
  37069.2218     0.48478E+03 
  37101.4840     0.48732E+03 
  37133.7462     0.48987E+03 
  37166.0083     0.49241E+03 
  37198.2705     0.49495E+03 
  37230.5326     0.49748E+03 
  37262.7948     0.50001E+03 
  37295.0570     0.50254E+03 
  37327.3191     0.50507E+03 
  37359.5813     0.50759E+03 
  37391.8434     0.51011E+03 
  37424.1056     0.51263E+03 
  37456.3678     0.51514E+03 
  37488.6299     0.51765E+03 
  37520.8921     0.52015E+03 
  37553.1542     0.52265E+03 
  37585.4164     0.52515E+03 
  37617.6786     0.52764E+03 
  37649.9407     0.53013E+03 
  37682.2029     0.53261E+03 
  37714.4650     0.53509E+03 
  37746.7272     0.53756E+03 
  37778.9894     0.54002E+03 
  37811.2515     0.54249E+03 
  37843.5137     0.54494E+03 
  37875.7758     0.54739E+03 
  37908.0380     0.54983E+03 
  37940.3002     0.55227E+03 
  37972.5623     0.55470E+03 
  38004.8245     0.55713E+03 
  38037.0866     0.55955E+03 
  38069.3488     0.56196E+03 
  38101.6110     0.56437E+03 
  38133.8731     0.56676E+03 
  38166.1353     0.56916E+03 
  38198.3974     0.57154E+03 
  38230.6596     0.57392E+03 
  38262.9218     0.57629E+03 
  38295.1839     0.57865E+03 
  38327.4461     0.58100E+03 
  38359.7082     0.58335E+03 
  38391.9704     0.58569E+03 
  38424.2326     0.58802E+03 
  38456.4947     0.59034E+03 
  38488.7569     0.59265E+03 
  38521.0190     0.59495E+03 
  38553.2812     0.59725E+03 
  38585.5434     0.59954E+03 
  38617.8055     0.60181E+03 
  38650.0677     0.60408E+03 
  38682.3298     0.60634E+03 
  38714.5920     0.60859E+03 
  38746.8542     0.61083E+03 
  38779.1163     0.61306E+03 
  38811.3785     0.61528E+03 
  38843.6406     0.61749E+03 
  38875.9028     0.61969E+03 
  38908.1650     0.62188E+03 
  38940.4271     0.62405E+03 
  38972.6893     0.62622E+03 
  39004.9514     0.62838E+03 
  39037.2136     0.63053E+03 
  39069.4758     0.63266E+03 
  39101.7379     0.63479E+03 
  39134.0001     0.63690E+03 
  39166.2622     0.63900E+03 
  39198.5244     0.64109E+03 
  39230.7866     0.64317E+03 
  39263.0487     0.64523E+03 
  39295.3109     0.64729E+03 
  39327.5730     0.64933E+03 
  39359.8352     0.65136E+03 
  39392.0974     0.65338E+03 
  39424.3595     0.65538E+03 
  39456.6217     0.65738E+03 
  39488.8838     0.65936E+03 
  39521.1460     0.66132E+03 
  39553.4082     0.66328E+03 
  39585.6703     0.66522E+03 
  39617.9325     0.66715E+03 
  39650.1946     0.66906E+03 
  39682.4568     0.67096E+03 
  39714.7190     0.67285E+03 
  39746.9811     0.67473E+03 
  39779.2433     0.67659E+03 
  39811.5054     0.67843E+03 
  39843.7676     0.68027E+03 
  39876.0298     0.68209E+03 
  39908.2919     0.68389E+03 
  39940.5541     0.68568E+03 
  39972.8162     0.68746E+03 
  40005.0784     0.68922E+03 
  40037.3406     0.69096E+03 
  40069.6027     0.69270E+03 
  40101.8649     0.69441E+03 
  40134.1270     0.69611E+03 
  40166.3892     0.69780E+03 
  40198.6514     0.69947E+03 
  40230.9135     0.70113E+03 
  40263.1757     0.70277E+03 
  40295.4378     0.70440E+03 
  40327.7000     0.70601E+03 
  40359.9622     0.70760E+03 
  40392.2243     0.70918E+03 
  40424.4865     0.71075E+03 
  40456.7486     0.71229E+03 
  40489.0108     0.71382E+03 
  40521.2730     0.71534E+03 
  40553.5351     0.71684E+03 
  40585.7973     0.71832E+03 
  40618.0594     0.71979E+03 
  40650.3216     0.72124E+03 
  40682.5838     0.72267E+03 
  40714.8459     0.72409E+03 
  40747.1081     0.72549E+03 
  40779.3702     0.72687E+03 
  40811.6324     0.72824E+03 
  40843.8946     0.72959E+03 
  40876.1567     0.73093E+03 
  40908.4189     0.73224E+03 
  40940.6810     0.73354E+03 
  40972.9432     0.73482E+03 
  41005.2054     0.73609E+03 
  41037.4675     0.73734E+03 
  41069.7297     0.73857E+03 
  41101.9918     0.73978E+03 
  41134.2540     0.74097E+03 
  41166.5162     0.74215E+03 
  41198.7783     0.74331E+03 
  41231.0405     0.74446E+03 
  41263.3026     0.74558E+03 
  41295.5648     0.74669E+03 
  41327.8270     0.74778E+03 
  41360.0891     0.74885E+03 
  41392.3513     0.74990E+03 
  41424.6134     0.75094E+03 
  41456.8756     0.75195E+03 
  41489.1378     0.75295E+03 
  41521.3999     0.75393E+03 
  41553.6621     0.75490E+03 
  41585.9242     0.75584E+03 
  41618.1864     0.75677E+03 
  41650.4486     0.75768E+03 
  41682.7107     0.75857E+03 
  41714.9729     0.75944E+03 
  41747.2350     0.76029E+03 
  41779.4972     0.76113E+03 
  41811.7594     0.76194E+03 
  41844.0215     0.76274E+03 
  41876.2837     0.76352E+03 
  41908.5458     0.76428E+03 
  41940.8080     0.76502E+03 
  41973.0702     0.76575E+03 
  42005.3323     0.76645E+03 
  42037.5945     0.76714E+03 
  42069.8566     0.76780E+03 
  42102.1188     0.76845E+03 
  42134.3810     0.76908E+03 
  42166.6431     0.76969E+03 
  42198.9053     0.77029E+03 
  42231.1674     0.77086E+03 
  42263.4296     0.77141E+03 
  42295.6918     0.77195E+03 
  42327.9539     0.77247E+03 
  42360.2161     0.77297E+03 
  42392.4782     0.77345E+03 
  42424.7404     0.77391E+03 
  42457.0026     0.77435E+03 
  42489.2647     0.77477E+03 
  42521.5269     0.77517E+03 
  42553.7890     0.77556E+03 
  42586.0512     0.77593E+03 
  42618.3134     0.77627E+03 
  42650.5755     0.77660E+03 
  42682.8377     0.77691E+03 
  42715.0998     0.77720E+03 
  42747.3620     0.77747E+03 
  42779.6242     0.77773E+03 
  42811.8863     0.77796E+03 
  42844.1485     0.77818E+03 
  42876.4106     0.77837E+03 
  42908.6728     0.77855E+03 
  42940.9350     0.77871E+03 
  42973.1971     0.77885E+03 
  43005.4593     0.77897E+03 
  43037.7214     0.77908E+03 
  43069.9836     0.77916E+03 
  43102.2458     0.77923E+03 
  43134.5079     0.77927E+03 
  43166.7701     0.77930E+03 
  43199.0322     0.77931E+03 
  43231.2944     0.77930E+03 
  43263.5566     0.77927E+03 
  43295.8187     0.77923E+03 
  43328.0809     0.77916E+03 
  43360.3430     0.77908E+03 
  43392.6052     0.77898E+03 
  43424.8674     0.77886E+03 
  43457.1295     0.77872E+03 
  43489.3917     0.77856E+03 
  43521.6538     0.77839E+03 
  43553.9160     0.77819E+03 
  43586.1782     0.77798E+03 
  43618.4403     0.77775E+03 
  43650.7025     0.77750E+03 
  43682.9646     0.77724E+03 
  43715.2268     0.77695E+03 
  43747.4890     0.77665E+03 
  43779.7511     0.77633E+03 
  43812.0133     0.77599E+03 
  43844.2754     0.77564E+03 
  43876.5376     0.77526E+03 
  43908.7998     0.77487E+03 
  43941.0619     0.77446E+03 
  43973.3241     0.77403E+03 
  44005.5862     0.77359E+03 
  44037.8484     0.77313E+03 
  44070.1106     0.77265E+03 
  44102.3727     0.77215E+03 
  44134.6349     0.77164E+03 
  44166.8970     0.77110E+03 
  44199.1592     0.77055E+03 
  44231.4214     0.76999E+03 
  44263.6835     0.76940E+03 
  44295.9457     0.76880E+03 
  44328.2078     0.76819E+03 
  44360.4700     0.76755E+03 
  44392.7322     0.76690E+03 
  44424.9943     0.76623E+03 
  44457.2565     0.76555E+03 
  44489.5186     0.76484E+03 
  44521.7808     0.76413E+03 
  44554.0430     0.76339E+03 
  44586.3051     0.76264E+03 
  44618.5673     0.76187E+03 
  44650.8294     0.76109E+03 
  44683.0916     0.76029E+03 
  44715.3538     0.75947E+03 
  44747.6159     0.75864E+03 
  44779.8781     0.75779E+03 
  44812.1402     0.75692E+03 
  44844.4024     0.75604E+03 
  44876.6646     0.75515E+03 
  44908.9267     0.75423E+03 
  44941.1889     0.75331E+03 
  44973.4510     0.75236E+03 
  45005.7132     0.75140E+03 
  45037.9754     0.75043E+03 
  45070.2375     0.74944E+03 
  45102.4997     0.74844E+03 
  45134.7618     0.74742E+03 
  45167.0240     0.74638E+03 
  45199.2862     0.74533E+03 
  45231.5483     0.74427E+03 
  45263.8105     0.74319E+03 
  45296.0726     0.74209E+03 
  45328.3348     0.74098E+03 
  45360.5970     0.73986E+03 
  45392.8591     0.73872E+03 
  45425.1213     0.73757E+03 
  45457.3834     0.73640E+03 
  45489.6456     0.73522E+03 
  45521.9078     0.73403E+03 
  45554.1699     0.73282E+03 
  45586.4321     0.73160E+03 
  45618.6942     0.73036E+03 
  45650.9564     0.72911E+03 
  45683.2186     0.72785E+03 
  45715.4807     0.72657E+03 
  45747.7429     0.72528E+03 
  45780.0050     0.72398E+03 
  45812.2672     0.72266E+03 
  45844.5294     0.72133E+03 
  45876.7915     0.71999E+03 
  45909.0537     0.71863E+03 
  45941.3158     0.71726E+03 
  45973.5780     0.71588E+03 
  46005.8402     0.71449E+03 
  46038.1023     0.71308E+03 
  46070.3645     0.71166E+03 
  46102.6266     0.71023E+03 
  46134.8888     0.70879E+03 
  46167.1510     0.70733E+03 
  46199.4131     0.70586E+03 
  46231.6753     0.70438E+03 
  46263.9374     0.70289E+03 
  46296.1996     0.70139E+03 
  46328.4618     0.69988E+03 
  46360.7239     0.69835E+03 
  46392.9861     0.69681E+03 
  46425.2482     0.69526E+03 
  46457.5104     0.69370E+03 
  46489.7726     0.69213E+03 
  46522.0347     0.69055E+03 
  46554.2969     0.68896E+03 
  46586.5590     0.68736E+03 
  46618.8212     0.68574E+03 
  46651.0834     0.68412E+03 
  46683.3455     0.68248E+03 
  46715.6077     0.68084E+03 
  46747.8698     0.67918E+03 
  46780.1320     0.67752E+03 
  46812.3942     0.67584E+03 
  46844.6563     0.67416E+03 
  46876.9185     0.67246E+03 
  46909.1806     0.67076E+03 
  46941.4428     0.66904E+03 
  46973.7050     0.66732E+03 
  47005.9671     0.66558E+03 
  47038.2293     0.66384E+03 
  47070.4914     0.66209E+03 
  47102.7536     0.66033E+03 
  47135.0158     0.65856E+03 
  47167.2779     0.65678E+03 
  47199.5401     0.65500E+03 
  47231.8022     0.65320E+03 
  47264.0644     0.65140E+03 
  47296.3266     0.64958E+03 
  47328.5887     0.64776E+03 
  47360.8509     0.64594E+03 
  47393.1130     0.64410E+03 
  47425.3752     0.64225E+03 
  47457.6374     0.64040E+03 
  47489.8995     0.63854E+03 
  47522.1617     0.63667E+03 
  47554.4238     0.63480E+03 
  47586.6860     0.63292E+03 
  47618.9482     0.63103E+03 
  47651.2103     0.62913E+03 
  47683.4725     0.62723E+03 
  47715.7346     0.62532E+03 
  47747.9968     0.62340E+03 
  47780.2590     0.62147E+03 
  47812.5211     0.61954E+03 
  47844.7833     0.61760E+03 
  47877.0454     0.61566E+03 
  47909.3076     0.61371E+03 
  47941.5698     0.61175E+03 
  47973.8319     0.60979E+03 
  48006.0941     0.60782E+03 
  48038.3562     0.60585E+03 
  48070.6184     0.60387E+03 
  48102.8806     0.60188E+03 
  48135.1427     0.59989E+03 
  48167.4049     0.59789E+03 
  48199.6670     0.59589E+03 
  48231.9292     0.59388E+03 
  48264.1914     0.59187E+03 
  48296.4535     0.58985E+03 
  48328.7157     0.58783E+03 
  48360.9778     0.58580E+03 
  48393.2400     0.58377E+03 
  48425.5022     0.58173E+03 
  48457.7643     0.57969E+03 
  48490.0265     0.57765E+03 
  48522.2886     0.57560E+03 
  48554.5508     0.57354E+03 
  48586.8130     0.57148E+03 
  48619.0751     0.56942E+03 
  48651.3373     0.56736E+03 
  48683.5994     0.56529E+03 
  48715.8616     0.56321E+03 
  48748.1238     0.56113E+03 
  48780.3859     0.55905E+03 
  48812.6481     0.55697E+03 
  48844.9102     0.55488E+03 
  48877.1724     0.55279E+03 
  48909.4346     0.55070E+03 
  48941.6967     0.54860E+03 
  48973.9589     0.54650E+03 
  49006.2210     0.54440E+03 
  49038.4832     0.54229E+03 
  49070.7454     0.54019E+03 
  49103.0075     0.53808E+03 
  49135.2697     0.53596E+03 
  49167.5318     0.53385E+03 
  49199.7940     0.53173E+03 
  49232.0562     0.52961E+03 
  49264.3183     0.52749E+03 
  49296.5805     0.52537E+03 
  49328.8426     0.52324E+03 
  49361.1048     0.52112E+03 
  49393.3670     0.51899E+03 
  49425.6291     0.51686E+03 
  49457.8913     0.51472E+03 
  49490.1534     0.51259E+03 
  49522.4156     0.51046E+03 
  49554.6778     0.50832E+03 
  49586.9399     0.50619E+03 
  49619.2021     0.50405E+03 
  49651.4642     0.50191E+03 
  49683.7264     0.49977E+03 
  49715.9886     0.49763E+03 
  49748.2507     0.49549E+03 
  49780.5129     0.49335E+03 
  49812.7750     0.49121E+03 
  49845.0372     0.48906E+03 
  49877.2994     0.48692E+03 
  49909.5615     0.48478E+03 
  49941.8237     0.48263E+03 
  49974.0858     0.48049E+03 
  50006.3480     0.47835E+03 
  50038.6102     0.47620E+03 
  50070.8723     0.47406E+03 
  50103.1345     0.47192E+03 
  50135.3966     0.46978E+03 
  50167.6588     0.46763E+03 
  50199.9210     0.46549E+03 
  50232.1831     0.46335E+03 
  50264.4453     0.46121E+03 
  50296.7074     0.45907E+03 
  50328.9696     0.45693E+03 
  50361.2318     0.45480E+03 
  50393.4939     0.45266E+03 
  50425.7561     0.45052E+03 
  50458.0182     0.44839E+03 
  50490.2804     0.44625E+03 
  50522.5426     0.44412E+03 
  50554.8047     0.44199E+03 
  50587.0669     0.43986E+03 
  50619.3290     0.43773E+03 
  50651.5912     0.43561E+03 
  50683.8534     0.43348E+03 
  50716.1155     0.43136E+03 
  50748.3777     0.42924E+03 
  50780.6398     0.42712E+03 
  50812.9020     0.42500E+03 
  50845.1642     0.42289E+03 
  50877.4263     0.42077E+03 
  50909.6885     0.41866E+03 
  50941.9506     0.41655E+03 
  50974.2128     0.41444E+03 
  51006.4750     0.41234E+03 
  51038.7371     0.41024E+03 
  51070.9993     0.40814E+03 
  51103.2614     0.40604E+03 
  51135.5236     0.40394E+03 
  51167.7858     0.40185E+03 
  51200.0479     0.39976E+03 
  51232.3101     0.39768E+03 
  51264.5722     0.39559E+03 
  51296.8344     0.39351E+03 
  51329.0966     0.39143E+03 
  51361.3587     0.38936E+03 
  51393.6209     0.38729E+03 
  51425.8830     0.38522E+03 
  51458.1452     0.38315E+03 
  51490.4074     0.38109E+03 
  51522.6695     0.37903E+03 
  51554.9317     0.37697E+03 
  51587.1938     0.37492E+03 
  51619.4560     0.37287E+03 
  51651.7182     0.37083E+03 
  51683.9803     0.36878E+03 
  51716.2425     0.36675E+03 
  51748.5046     0.36471E+03 
  51780.7668     0.36268E+03 
  51813.0290     0.36065E+03 
  51845.2911     0.35863E+03 
  51877.5533     0.35661E+03 
  51909.8154     0.35459E+03 
  51942.0776     0.35258E+03 
  51974.3398     0.35057E+03 
  52006.6019     0.34857E+03 
  52038.8641     0.34657E+03 
  52071.1262     0.34458E+03 
  52103.3884     0.34259E+03 
  52135.6506     0.34060E+03 
  52167.9127     0.33862E+03 
  52200.1749     0.33664E+03 
  52232.4370     0.33466E+03 
  52264.6992     0.33270E+03 
  52296.9614     0.33073E+03 
  52329.2235     0.32877E+03 
  52361.4857     0.32681E+03 
  52393.7478     0.32486E+03 
  52426.0100     0.32292E+03 
  52458.2722     0.32098E+03 
  52490.5343     0.31904E+03 
  52522.7965     0.31711E+03 
  52555.0586     0.31518E+03 
  52587.3208     0.31326E+03 
  52619.5830     0.31134E+03 
  52651.8451     0.30942E+03 
  52684.1073     0.30752E+03 
  52716.3694     0.30561E+03 
  52748.6316     0.30372E+03 
  52780.8938     0.30182E+03 
  52813.1559     0.29994E+03 
  52845.4181     0.29805E+03 
  52877.6802     0.29618E+03 
  52909.9424     0.29430E+03 
  52942.2046     0.29244E+03 
  52974.4667     0.29057E+03 
  53006.7289     0.28872E+03 
  53038.9910     0.28687E+03 
  53071.2532     0.28502E+03 
  53103.5154     0.28318E+03 
  53135.7775     0.28134E+03 
  53168.0397     0.27951E+03 
  53200.3018     0.27769E+03 
  53232.5640     0.27587E+03 
  53264.8262     0.27406E+03 
  53297.0883     0.27225E+03 
  53329.3505     0.27045E+03 
  53361.6126     0.26865E+03 
  53393.8748     0.26686E+03 
  53426.1370     0.26508E+03 
  53458.3991     0.26330E+03 
  53490.6613     0.26152E+03 
  53522.9234     0.25975E+03 
  53555.1856     0.25799E+03 
  53587.4478     0.25623E+03 
  53619.7099     0.25448E+03 
  53651.9721     0.25274E+03 
  53684.2342     0.25100E+03 
  53716.4964     0.24927E+03 
  53748.7586     0.24754E+03 
  53781.0207     0.24582E+03 
  53813.2829     0.24410E+03 
  53845.5450     0.24239E+03 
  53877.8072     0.24069E+03 
  53910.0694     0.23899E+03 
  53942.3315     0.23730E+03 
  53974.5937     0.23561E+03 
  54006.8558     0.23393E+03 
  54039.1180     0.23226E+03 
  54071.3802     0.23059E+03 
  54103.6423     0.22893E+03 
  54135.9045     0.22727E+03 
  54168.1666     0.22562E+03 
  54200.4288     0.22398E+03 
  54232.6910     0.22234E+03 
  54264.9531     0.22071E+03 
  54297.2153     0.21908E+03 
  54329.4774     0.21746E+03 
  54361.7396     0.21585E+03 
  54394.0018     0.21424E+03 
  54426.2639     0.21264E+03 
  54458.5261     0.21105E+03 
  54490.7882     0.20946E+03 
  54523.0504     0.20788E+03 
  54555.3126     0.20630E+03 
  54587.5747     0.20473E+03 
  54619.8369     0.20317E+03 
  54652.0990     0.20161E+03 
  54684.3612     0.20006E+03 
  54716.6234     0.19851E+03 
  54748.8855     0.19698E+03 
  54781.1477     0.19544E+03 
  54813.4098     0.19392E+03 
  54845.6720     0.19240E+03 
  54877.9342     0.19088E+03 
  54910.1963     0.18938E+03 
  54942.4585     0.18788E+03 
  54974.7206     0.18638E+03 
  55006.9828     0.18489E+03 
  55039.2450     0.18341E+03 
  55071.5071     0.18194E+03 
  55103.7693     0.18047E+03 
  55136.0314     0.17901E+03 
  55168.2936     0.17755E+03 
  55200.5558     0.17610E+03 
  55232.8179     0.17465E+03 
  55265.0801     0.17322E+03 
  55297.3422     0.17179E+03 
  55329.6044     0.17036E+03 
  55361.8666     0.16894E+03 
  55394.1287     0.16753E+03 
  55426.3909     0.16612E+03 
  55458.6530     0.16473E+03 
  55490.9152     0.16333E+03 
  55523.1774     0.16195E+03 
  55555.4395     0.16056E+03 
  55587.7017     0.15919E+03 
  55619.9638     0.15782E+03 
  55652.2260     0.15646E+03 
  55684.4882     0.15511E+03 
  55716.7503     0.15376E+03 
  55749.0125     0.15242E+03 
  55781.2746     0.15108E+03 
  55813.5368     0.14975E+03 
  55845.7990     0.14843E+03 
  55878.0611     0.14711E+03 
  55910.3233     0.14580E+03 
  55942.5854     0.14449E+03 
  55974.8476     0.14320E+03 
  56007.1098     0.14190E+03 
  56039.3719     0.14062E+03 
  56071.6341     0.13934E+03 
  56103.8962     0.13807E+03 
  56136.1584     0.13680E+03 
  56168.4206     0.13554E+03 
  56200.6827     0.13429E+03 
  56232.9449     0.13304E+03 
  56265.2070     0.13180E+03 
  56297.4692     0.13056E+03 
  56329.7314     0.12933E+03 
  56361.9935     0.12811E+03 
  56394.2557     0.12689E+03 
  56426.5178     0.12568E+03 
  56458.7800     0.12448E+03 
  56491.0422     0.12328E+03 
  56523.3043     0.12209E+03 
  56555.5665     0.12091E+03 
  56587.8286     0.11973E+03 
  56620.0908     0.11855E+03 
  56652.3530     0.11739E+03 
  56684.6151     0.11623E+03 
  56716.8773     0.11507E+03 
  56749.1394     0.11393E+03 
  56781.4016     0.11278E+03 
  56813.6638     0.11165E+03 
  56845.9259     0.11052E+03 
  56878.1881     0.10940E+03 
  56910.4502     0.10828E+03 
  56942.7124     0.10717E+03 
  56974.9746     0.10606E+03 
  57007.2367     0.10496E+03 
  57039.4989     0.10387E+03 
  57071.7610     0.10279E+03 
  57104.0232     0.10171E+03 
  57136.2854     0.10063E+03 
  57168.5475     0.99563E+02 
  57200.8097     0.98501E+02 
  57233.0718     0.97445E+02 
  57265.3340     0.96395E+02 
  57297.5962     0.95351E+02 
  57329.8583     0.94313E+02 
  57362.1205     0.93281E+02 
  57394.3826     0.92255E+02 
  57426.6448     0.91236E+02 
  57458.9070     0.90222E+02 
  57491.1691     0.89214E+02 
  57523.4313     0.88213E+02 
  57555.6934     0.87217E+02 
  57587.9556     0.86227E+02 
  57620.2178     0.85243E+02 
  57652.4799     0.84265E+02 
  57684.7421     0.83294E+02 
  57717.0042     0.82328E+02 
  57749.2664     0.81368E+02 
  57781.5286     0.80414E+02 
  57813.7907     0.79466E+02 
  57846.0529     0.78524E+02 
  57878.3150     0.77587E+02 
  57910.5772     0.76657E+02 
  57942.8394     0.75732E+02 
  57975.1015     0.74814E+02 
  58007.3637     0.73901E+02 
  58039.6258     0.72994E+02 
  58071.8880     0.72093E+02 
  58104.1502     0.71198E+02 
  58136.4123     0.70309E+02 
  58168.6745     0.69426E+02 
  58200.9366     0.68548E+02 
  58233.1988     0.67676E+02 
  58265.4610     0.66811E+02 
  58297.7231     0.65950E+02 
  58329.9853     0.65096E+02 
  58362.2474     0.64248E+02 
  58394.5096     0.63405E+02 
  58426.7718     0.62568E+02 
  58459.0339     0.61737E+02 
  58491.2961     0.60912E+02 
  58523.5582     0.60093E+02 
  58555.8204     0.59279E+02 
  58588.0826     0.58471E+02 
  58620.3447     0.57669E+02 
  58652.6069     0.56872E+02 
  58684.8690     0.56082E+02 
  58717.1312     0.55297E+02 
  58749.3934     0.54518E+02 
  58781.6555     0.53744E+02 
  58813.9177     0.52977E+02 
  58846.1798     0.52215E+02 
  58878.4420     0.51459E+02 
  58910.7042     0.50708E+02 
  58942.9663     0.49964E+02 
  58975.2285     0.49225E+02 
  59007.4906     0.48492E+02 
  59039.7528     0.47764E+02 
  59072.0150     0.47043E+02 
  59104.2771     0.46327E+02 
  59136.5393     0.45616E+02 
  59168.8014     0.44912E+02 
  59201.0636     0.44213E+02 
  59233.3258     0.43520E+02 
  59265.5879     0.42833E+02 
  59297.8501     0.42151E+02 
  59330.1122     0.41476E+02 
  59362.3744     0.40806E+02 
  59394.6366     0.40141E+02 
  59426.8987     0.39483E+02 
  59459.1609     0.38830E+02 
  59491.4230     0.38183E+02 
  59523.6852     0.37542E+02 
  59555.9474     0.36906E+02 
  59588.2095     0.36277E+02 
  59620.4717     0.35653E+02 
  59652.7338     0.35035E+02 
  59684.9960     0.34423E+02 
  59717.2582     0.33816E+02 
  59749.5203     0.33216E+02 
  59781.7825     0.32621E+02 
  59814.0446     0.32032E+02 
  59846.3068     0.31449E+02 
  59878.5690     0.30871E+02 
  59910.8311     0.30300E+02 
  59943.0933     0.29735E+02 
  59975.3554     0.29175E+02 
  60007.6176     0.28621E+02 
  60039.8798     0.28074E+02 
  60072.1419     0.27532E+02 
  60104.4041     0.26996E+02 
  60136.6662     0.26466E+02 
  60168.9284     0.25942E+02 
  60201.1906     0.25424E+02 
  60233.4527     0.24913E+02 
  60265.7149     0.24407E+02 
  60297.9770     0.23907E+02 
  60330.2392     0.23413E+02 
  60362.5014     0.22926E+02 
  60394.7635     0.22445E+02 
  60427.0257     0.21969E+02 
  60459.2878     0.21500E+02 
  60491.5500     0.21037E+02 
  60523.8122     0.20581E+02 
  60556.0743     0.20130E+02 
  60588.3365     0.19686E+02 
  60620.5986     0.19248E+02 
  60652.8608     0.18817E+02 
  60685.1230     0.18392E+02 
  60717.3851     0.17973E+02 
  60749.6473     0.17561E+02 
  60781.9094     0.17155E+02 
  60814.1716     0.16756E+02 
  60846.4338     0.16363E+02 
  60878.6959     0.15977E+02 
  60910.9581     0.15597E+02 
  60943.2202     0.15224E+02 
  60975.4824     0.14858E+02 
  61007.7446     0.14499E+02 
  61040.0067     0.14146E+02 
  61072.2689     0.13800E+02 
  61104.5310     0.13461E+02 
  61136.7932     0.13128E+02 
  61169.0554     0.12803E+02 
  61201.3175     0.12485E+02 
  61233.5797     0.12174E+02 
  61265.8418     0.11870E+02 
  61298.1040     0.11573E+02 
  61330.3662     0.11283E+02 
  61362.6283     0.11000E+02 
  61394.8905     0.10725E+02 
  61427.1526     0.10457E+02 
  61459.4148     0.10197E+02 
  61491.6770     0.99436E+01 
  61523.9391     0.96981E+01 
  61556.2013     0.94603E+01 
  61588.4634     0.92301E+01 
  61620.7256     0.90077E+01 
  61652.9878     0.87930E+01 
  61685.2499     0.85862E+01 
  61717.5121     0.83874E+01 
  61749.7742     0.81966E+01 
  61782.0364     0.80138E+01 
  61814.2986     0.78392E+01 
  61846.5607     0.76728E+01 
  61878.8229     0.75148E+01 
  61911.0850     0.73651E+01 
  61943.3472     0.72240E+01 
  61975.6094     0.70913E+01 
  62007.8715     0.69674E+01 
  62040.1337     0.68521E+01 
  62072.3958     0.67457E+01 
  62104.6580     0.66482E+01 
  62136.9202     0.65597E+01 
  62169.1823     0.64803E+01 
  62201.4445     0.64101E+01 
  62233.7066     0.63492E+01 
  62265.9688     0.62977E+01 
  62298.2310     0.62556E+01 
  62330.4931     0.62232E+01 
  62362.7553     0.62005E+01 
  62395.0174     0.61877E+01 
  62427.2796     0.61847E+01 
  62459.5418     0.61918E+01 
  62491.8039     0.62091E+01 
  62524.0661     0.62367E+01 
  62556.3282     0.62746E+01 
  62588.5904     0.63231E+01 
  62620.8526     0.63822E+01 
  62653.1147     0.64521E+01 
  62685.3769     0.65329E+01 
  62717.6390     0.66248E+01 
  62749.9012     0.67278E+01 
  62782.1634     0.68422E+01 
  62814.4255     0.69679E+01 
  62846.6877     0.71053E+01 
  62878.9498     0.72544E+01 
  62911.2120     0.74155E+01 
  62943.4742     0.75885E+01 
  62975.7363     0.77737E+01 
  63007.9985     0.79713E+01 
  63040.2606     0.81814E+01 
  63072.5228     0.84041E+01 
  63104.7850     0.86397E+01 
  63137.0471     0.88883E+01 
  63169.3093     0.91500E+01 
  63201.5714     0.94251E+01 
  63233.8336     0.97137E+01 
  63266.0958     0.10016E+02 
  63298.3579     0.10332E+02 
  63330.6201     0.10662E+02 
  63362.8822     0.11007E+02 
  63395.1444     0.11366E+02 
  63427.4066     0.11739E+02 
  63459.6687     0.12128E+02 
  63491.9309     0.12531E+02 
  63524.1930     0.12950E+02 
  63556.4552     0.13384E+02 
  63588.7174     0.13834E+02 
  63620.9795     0.14299E+02 
  63653.2417     0.14781E+02 
  63685.5038     0.15279E+02 
  63717.7660     0.15793E+02 
  63750.0282     0.16325E+02 
  63782.2903     0.16873E+02 
  63814.5525     0.17438E+02 
  63846.8146     0.18021E+02 
  63879.0768     0.18622E+02 
  63911.3390     0.19241E+02 
  63943.6011     0.19877E+02 
  63975.8633     0.20533E+02 
  64008.1254     0.21207E+02 
  64040.3876     0.21899E+02 
  64072.6498     0.22612E+02 
  64104.9119     0.23343E+02 
  64137.1741     0.24095E+02 
  64169.4362     0.24866E+02 
  64201.6984     0.25658E+02 
  64233.9606     0.26470E+02 
  64266.2227     0.27304E+02 
  64298.4849     0.28158E+02 
  64330.7470     0.29034E+02 
  64363.0092     0.29932E+02 
  64395.2714     0.30852E+02 
  64427.5335     0.31794E+02 
  64459.7957     0.32759E+02 
  64492.0578     0.33748E+02 
  64524.3200     0.34759E+02 
  64556.5822     0.35794E+02 
  64588.8443     0.36853E+02 
  64621.1065     0.37937E+02 
  64653.3686     0.39045E+02 
  64685.6308     0.40178E+02 
  64717.8930     0.41337E+02 
  64750.1551     0.42521E+02 
  64782.4173     0.43732E+02 
  64814.6794     0.44969E+02 
  64846.9416     0.46233E+02 
  64879.2038     0.47524E+02 
  64911.4659     0.48842E+02 
  64943.7281     0.50189E+02 
  64975.9902     0.51564E+02 
  65008.2524     0.52968E+02 
  65040.5146     0.54400E+02 
  65072.7767     0.55863E+02 
  65105.0389     0.57355E+02 
  65137.3010     0.58878E+02 
  65169.5632     0.60431E+02 
  65201.8254     0.62016E+02 
  65234.0875     0.63632E+02 
  65266.3497     0.65280E+02 
  65298.6118     0.66961E+02 
  65330.8740     0.68674E+02 
  65363.1362     0.70421E+02 
  65395.3983     0.72202E+02 
  65427.6605     0.74017E+02 
  65459.9226     0.75867E+02 
  65492.1848     0.77752E+02 
  65524.4470     0.79673E+02 
  65556.7091     0.81630E+02 
  65588.9713     0.83623E+02 
  65621.2334     0.85654E+02 
  65653.4956     0.87722E+02 
  65685.7578     0.89828E+02 
  65718.0199     0.91973E+02 
  65750.2821     0.94157E+02 
  65782.5442     0.96381E+02 
  65814.8064     0.98645E+02 
  65847.0686     0.10095E+03 
  65879.3307     0.10329E+03 
  65911.5929     0.10568E+03 
  65943.8550     0.10811E+03 
  65976.1172     0.11058E+03 
  66008.3794     0.11310E+03 
  66040.6415     0.11566E+03 
  66072.9037     0.11826E+03 
  66105.1658     0.12091E+03 
  66137.4280     0.12361E+03 
  66169.6902     0.12635E+03 
  66201.9523     0.12914E+03 
  66234.2145     0.13197E+03 
  66266.4766     0.13486E+03 
  66298.7388     0.13779E+03 
  66331.0010     0.14077E+03 
  66363.2631     0.14380E+03 
  66395.5253     0.14688E+03 
  66427.7874     0.15001E+03 
  66460.0496     0.15320E+03 
  66492.3118     0.15643E+03 
  66524.5739     0.15972E+03 
  66556.8361     0.16306E+03 
  66589.0982     0.16646E+03 
  66621.3604     0.16991E+03 
  66653.6226     0.17342E+03 
  66685.8847     0.17698E+03 
  66718.1469     0.18060E+03 
  66750.4090     0.18428E+03 
  66782.6712     0.18802E+03 
  66814.9334     0.19181E+03 
  66847.1955     0.19567E+03 
  66879.4577     0.19958E+03 
  66911.7198     0.20356E+03 
  66943.9820     0.20759E+03 
  66976.2442     0.21169E+03 
  67008.5063     0.21586E+03 
  67040.7685     0.22008E+03 
  67073.0306     0.22437E+03 
  67105.2928     0.22873E+03 
  67137.5550     0.23315E+03 
  67169.8171     0.23764E+03 
  67202.0793     0.24220E+03 
  67234.3414     0.24682E+03 
  67266.6036     0.25151E+03 
  67298.8658     0.25628E+03 
  67331.1279     0.26111E+03 
  67363.3901     0.26602E+03 
  67395.6522     0.27099E+03 
  67427.9144     0.27604E+03 
  67460.1766     0.28117E+03 
  67492.4387     0.28636E+03 
  67524.7009     0.29164E+03 
  67556.9630     0.29699E+03 
  67589.2252     0.30241E+03 
  67621.4874     0.30791E+03 
  67653.7495     0.31350E+03 
  67686.0117     0.31916E+03 
  67718.2738     0.32490E+03 
  67750.5360     0.33072E+03 
  67782.7982     0.33662E+03 
  67815.0603     0.34261E+03 
  67847.3225     0.34868E+03 
  67879.5846     0.35483E+03 
  67911.8468     0.36107E+03 
  67944.1090     0.36739E+03 
  67976.3711     0.37380E+03 
  68008.6333     0.38030E+03 
  68040.8954     0.38689E+03 
  68073.1576     0.39356E+03 
  68105.4198     0.40033E+03 
  68137.6819     0.40718E+03 
  68169.9441     0.41413E+03 
  68202.2062     0.42117E+03 
  68234.4684     0.42831E+03 
  68266.7306     0.43553E+03 
  68298.9927     0.44286E+03 
  68331.2549     0.45028E+03 
  68363.5170     0.45780E+03 
  68395.7792     0.46541E+03 
  68428.0414     0.47312E+03 
  68460.3035     0.48094E+03 
  68492.5657     0.48885E+03 
  68524.8278     0.49687E+03 
  68557.0900     0.50498E+03 
  68589.3522     0.51320E+03 
  68621.6143     0.52153E+03 
  68653.8765     0.52996E+03 
  68686.1386     0.53849E+03 
  68718.4008     0.54714E+03 
  68750.6630     0.55589E+03 
  68782.9251     0.56475E+03 
  68815.1873     0.57371E+03 
  68847.4494     0.58279E+03 
  68879.7116     0.59198E+03 
  68911.9738     0.60128E+03 
  68944.2359     0.61070E+03 
  68976.4981     0.62023E+03 
  69008.7602     0.62987E+03 
  69041.0224     0.63963E+03 
  69073.2846     0.64951E+03 
  69105.5467     0.65950E+03 
  69137.8089     0.66962E+03 
  69170.0710     0.67985E+03 
  69202.3332     0.69020E+03 
  69234.5954     0.70067E+03 
  69266.8575     0.71127E+03 
  69299.1197     0.72199E+03 
  69331.3818     0.73283E+03 
  69363.6440     0.74380E+03 
  69395.9062     0.75489E+03 
  69428.1683     0.76611E+03 
  69460.4305     0.77745E+03 
  69492.6926     0.78893E+03 
  69524.9548     0.80053E+03 
  69557.2170     0.81227E+03 
  69589.4791     0.82413E+03 
  69621.7413     0.83613E+03 
  69654.0034     0.84826E+03 
  69686.2656     0.86052E+03 
  69718.5278     0.87292E+03 
  69750.7899     0.88545E+03 
  69783.0521     0.89812E+03 
  69815.3142     0.91093E+03 
  69847.5764     0.92387E+03 
  69879.8386     0.93696E+03 
  69912.1007     0.95018E+03 
  69944.3629     0.96354E+03 
  69976.6250     0.97704E+03 
  70008.8872     0.99069E+03 
  70041.1494     0.10045E+04 
  70073.4115     0.10184E+04 
  70105.6737     0.10325E+04 
  70137.9358     0.10467E+04 
  70170.1980     0.10611E+04 
  70202.4602     0.10756E+04 
  70234.7223     0.10903E+04 
  70266.9845     0.11051E+04 
  70299.2466     0.11200E+04 
  70331.5088     0.11351E+04 
  70363.7710     0.11504E+04 
  70396.0331     0.11658E+04 
  70428.2953     0.11814E+04 
  70460.5574     0.11971E+04 
  70492.8196     0.12130E+04 
  70525.0818     0.12290E+04 
  70557.3439     0.12452E+04 
  70589.6061     0.12615E+04 
  70621.8682     0.12780E+04 
  70654.1304     0.12947E+04 
  70686.3926     0.13115E+04 
  70718.6547     0.13284E+04 
  70750.9169     0.13456E+04 
  70783.1790     0.13629E+04 
  70815.4412     0.13803E+04 
  70847.7034     0.13979E+04 
  70879.9655     0.14157E+04 
  70912.2277     0.14336E+04 
  70944.4898     0.14517E+04 
  70976.7520     0.14700E+04 
  71009.0142     0.14884E+04 
  71041.2763     0.15070E+04 
  71073.5385     0.15258E+04 
  71105.8006     0.15447E+04 
  71138.0628     0.15638E+04 
  71170.3250     0.15830E+04 
  71202.5871     0.16025E+04 
  71234.8493     0.16221E+04 
  71267.1114     0.16418E+04 
  71299.3736     0.16618E+04 
  71331.6358     0.16819E+04 
  71363.8979     0.17021E+04 
  71396.1601     0.17226E+04 
  71428.4222     0.17432E+04 
  71460.6844     0.17640E+04 
  71492.9466     0.17849E+04 
  71525.2087     0.18061E+04 
  71557.4709     0.18274E+04 
  71589.7330     0.18488E+04 
  71621.9952     0.18705E+04 
  71654.2574     0.18923E+04 
  71686.5195     0.19143E+04 
  71718.7817     0.19365E+04 
  71751.0438     0.19588E+04 
  71783.3060     0.19813E+04 
  71815.5682     0.20040E+04 
  71847.8303     0.20269E+04 
  71880.0925     0.20499E+04 
  71912.3546     0.20732E+04 
  71944.6168     0.20966E+04 
  71976.8790     0.21201E+04 
  72009.1411     0.21439E+04 
  72041.4033     0.21678E+04 
  72073.6654     0.21919E+04 
  72105.9276     0.22162E+04 
  72138.1898     0.22407E+04 
  72170.4519     0.22653E+04 
  72202.7141     0.22901E+04 
  72234.9762     0.23151E+04 
  72267.2384     0.23403E+04 
  72299.5006     0.23657E+04 
  72331.7627     0.23912E+04 
  72364.0249     0.24169E+04 
  72396.2870     0.24428E+04 
  72428.5492     0.24688E+04 
  72460.8114     0.24951E+04 
  72493.0735     0.25215E+04 
  72525.3357     0.25481E+04 
  72557.5978     0.25748E+04 
  72589.8600     0.26018E+04 
