  32262.1600     0.14425E-04 
  32294.4222     0.14649E-04 
  32326.6843     0.14874E-04 
  32358.9465     0.15103E-04 
  32391.2086     0.15334E-04 
  32423.4708     0.15567E-04 
  32455.7330     0.15803E-04 
  32487.9951     0.16042E-04 
  32520.2573     0.16283E-04 
  32552.5194     0.16526E-04 
  32584.7816     0.16773E-04 
  32617.0438     0.17022E-04 
  32649.3059     0.17273E-04 
  32681.5681     0.17527E-04 
  32713.8302     0.17784E-04 
  32746.0924     0.18043E-04 
  32778.3546     0.18305E-04 
  32810.6167     0.18569E-04 
  32842.8789     0.18836E-04 
  32875.1410     0.19106E-04 
  32907.4032     0.19378E-04 
  32939.6654     0.19653E-04 
  32971.9275     0.19931E-04 
  33004.1897     0.20211E-04 
  33036.4518     0.20494E-04 
  33068.7140     0.20779E-04 
  33100.9762     0.21068E-04 
  33133.2383     0.21358E-04 
  33165.5005     0.21652E-04 
  33197.7626     0.21948E-04 
  33230.0248     0.22246E-04 
  33262.2870     0.22548E-04 
  33294.5491     0.22852E-04 
  33326.8113     0.23158E-04 
  33359.0734     0.23467E-04 
  33391.3356     0.23779E-04 
  33423.5978     0.24094E-04 
  33455.8599     0.24411E-04 
  33488.1221     0.24730E-04 
  33520.3842     0.25052E-04 
  33552.6464     0.25377E-04 
  33584.9086     0.25705E-04 
  33617.1707     0.26035E-04 
  33649.4329     0.26367E-04 
  33681.6950     0.26702E-04 
  33713.9572     0.27040E-04 
  33746.2194     0.27380E-04 
  33778.4815     0.27723E-04 
  33810.7437     0.28068E-04 
  33843.0058     0.28416E-04 
  33875.2680     0.28766E-04 
  33907.5302     0.29119E-04 
  33939.7923     0.29474E-04 
  33972.0545     0.29832E-04 
  34004.3166     0.30192E-04 
  34036.5788     0.30554E-04 
  34068.8410     0.30919E-04 
  34101.1031     0.31287E-04 
  34133.3653     0.31656E-04 
  34165.6274     0.32029E-04 
  34197.8896     0.32403E-04 
  34230.1518     0.32780E-04 
  34262.4139     0.33159E-04 
  34294.6761     0.33541E-04 
  34326.9382     0.33924E-04 
  34359.2004     0.34310E-04 
  34391.4626     0.34699E-04 
  34423.7247     0.35089E-04 
  34455.9869     0.35482E-04 
  34488.2490     0.35877E-04 
  34520.5112     0.36274E-04 
  34552.7734     0.36673E-04 
  34585.0355     0.37074E-04 
  34617.2977     0.37478E-04 
  34649.5598     0.37883E-04 
  34681.8220     0.38291E-04 
  34714.0842     0.38700E-04 
  34746.3463     0.39112E-04 
  34778.6085     0.39525E-04 
  34810.8706     0.39941E-04 
  34843.1328     0.40358E-04 
  34875.3950     0.40777E-04 
  34907.6571     0.41198E-04 
  34939.9193     0.41621E-04 
  34972.1814     0.42046E-04 
  35004.4436     0.42472E-04 
  35036.7058     0.42901E-04 
  35068.9679     0.43331E-04 
  35101.2301     0.43762E-04 
  35133.4922     0.44196E-04 
  35165.7544     0.44630E-04 
  35198.0166     0.45067E-04 
  35230.2787     0.45505E-04 
  35262.5409     0.45944E-04 
  35294.8030     0.46385E-04 
  35327.0652     0.46828E-04 
  35359.3274     0.47272E-04 
  35391.5895     0.47717E-04 
  35423.8517     0.48164E-04 
  35456.1138     0.48612E-04 
  35488.3760     0.49061E-04 
  35520.6382     0.49511E-04 
  35552.9003     0.49963E-04 
  35585.1625     0.50416E-04 
  35617.4246     0.50870E-04 
  35649.6868     0.51325E-04 
  35681.9490     0.51781E-04 
  35714.2111     0.52238E-04 
  35746.4733     0.52696E-04 
  35778.7354     0.53155E-04 
  35810.9976     0.53615E-04 
  35843.2598     0.54076E-04 
  35875.5219     0.54537E-04 
  35907.7841     0.55000E-04 
  35940.0462     0.55463E-04 
  35972.3084     0.55927E-04 
  36004.5706     0.56391E-04 
  36036.8327     0.56856E-04 
  36069.0949     0.57322E-04 
  36101.3570     0.57788E-04 
  36133.6192     0.58254E-04 
  36165.8814     0.58722E-04 
  36198.1435     0.59189E-04 
  36230.4057     0.59657E-04 
  36262.6678     0.60125E-04 
  36294.9300     0.60593E-04 
  36327.1922     0.61062E-04 
  36359.4543     0.61531E-04 
  36391.7165     0.61999E-04 
  36423.9786     0.62468E-04 
  36456.2408     0.62937E-04 
  36488.5030     0.63406E-04 
  36520.7651     0.63875E-04 
  36553.0273     0.64344E-04 
  36585.2894     0.64813E-04 
  36617.5516     0.65282E-04 
  36649.8138     0.65750E-04 
  36682.0759     0.66218E-04 
  36714.3381     0.66686E-04 
  36746.6002     0.67153E-04 
  36778.8624     0.67620E-04 
  36811.1246     0.68086E-04 
  36843.3867     0.68552E-04 
  36875.6489     0.69018E-04 
  36907.9110     0.69483E-04 
  36940.1732     0.69947E-04 
  36972.4354     0.70410E-04 
  37004.6975     0.70873E-04 
  37036.9597     0.71335E-04 
  37069.2218     0.71796E-04 
  37101.4840     0.72256E-04 
  37133.7462     0.72716E-04 
  37166.0083     0.73174E-04 
  37198.2705     0.73632E-04 
  37230.5326     0.74088E-04 
  37262.7948     0.74543E-04 
  37295.0570     0.74997E-04 
  37327.3191     0.75450E-04 
  37359.5813     0.75901E-04 
  37391.8434     0.76352E-04 
  37424.1056     0.76801E-04 
  37456.3678     0.77248E-04 
  37488.6299     0.77694E-04 
  37520.8921     0.78139E-04 
  37553.1542     0.78582E-04 
  37585.4164     0.79024E-04 
  37617.6786     0.79464E-04 
  37649.9407     0.79902E-04 
  37682.2029     0.80338E-04 
  37714.4650     0.80773E-04 
  37746.7272     0.81206E-04 
  37778.9894     0.81637E-04 
  37811.2515     0.82067E-04 
  37843.5137     0.82494E-04 
  37875.7758     0.82920E-04 
  37908.0380     0.83343E-04 
  37940.3002     0.83764E-04 
  37972.5623     0.84184E-04 
  38004.8245     0.84601E-04 
  38037.0866     0.85016E-04 
  38069.3488     0.85428E-04 
  38101.6110     0.85839E-04 
  38133.8731     0.86247E-04 
  38166.1353     0.86653E-04 
  38198.3974     0.87056E-04 
  38230.6596     0.87457E-04 
  38262.9218     0.87856E-04 
  38295.1839     0.88252E-04 
  38327.4461     0.88645E-04 
  38359.7082     0.89036E-04 
  38391.9704     0.89424E-04 
  38424.2326     0.89810E-04 
  38456.4947     0.90193E-04 
  38488.7569     0.90573E-04 
  38521.0190     0.90950E-04 
  38553.2812     0.91324E-04 
  38585.5434     0.91696E-04 
  38617.8055     0.92065E-04 
  38650.0677     0.92431E-04 
  38682.3298     0.92793E-04 
  38714.5920     0.93153E-04 
  38746.8542     0.93510E-04 
  38779.1163     0.93864E-04 
  38811.3785     0.94214E-04 
  38843.6406     0.94562E-04 
  38875.9028     0.94906E-04 
  38908.1650     0.95247E-04 
  38940.4271     0.95585E-04 
  38972.6893     0.95920E-04 
  39004.9514     0.96251E-04 
  39037.2136     0.96579E-04 
  39069.4758     0.96903E-04 
  39101.7379     0.97225E-04 
  39134.0001     0.97542E-04 
  39166.2622     0.97857E-04 
  39198.5244     0.98167E-04 
  39230.7866     0.98475E-04 
  39263.0487     0.98779E-04 
  39295.3109     0.99079E-04 
  39327.5730     0.99375E-04 
  39359.8352     0.99668E-04 
  39392.0974     0.99958E-04 
  39424.3595     0.10024E-03 
  39456.6217     0.10053E-03 
  39488.8838     0.10080E-03 
  39521.1460     0.10108E-03 
  39553.4082     0.10135E-03 
  39585.6703     0.10162E-03 
  39617.9325     0.10188E-03 
  39650.1946     0.10214E-03 
  39682.4568     0.10239E-03 
  39714.7190     0.10265E-03 
  39746.9811     0.10289E-03 
  39779.2433     0.10314E-03 
  39811.5054     0.10338E-03 
  39843.7676     0.10361E-03 
  39876.0298     0.10384E-03 
  39908.2919     0.10407E-03 
  39940.5541     0.10430E-03 
  39972.8162     0.10452E-03 
  40005.0784     0.10473E-03 
  40037.3406     0.10494E-03 
  40069.6027     0.10515E-03 
  40101.8649     0.10535E-03 
  40134.1270     0.10555E-03 
  40166.3892     0.10575E-03 
  40198.6514     0.10594E-03 
  40230.9135     0.10613E-03 
  40263.1757     0.10631E-03 
  40295.4378     0.10649E-03 
  40327.7000     0.10666E-03 
  40359.9622     0.10683E-03 
  40392.2243     0.10700E-03 
  40424.4865     0.10716E-03 
  40456.7486     0.10732E-03 
  40489.0108     0.10747E-03 
  40521.2730     0.10762E-03 
  40553.5351     0.10777E-03 
  40585.7973     0.10791E-03 
  40618.0594     0.10805E-03 
  40650.3216     0.10818E-03 
  40682.5838     0.10831E-03 
  40714.8459     0.10843E-03 
  40747.1081     0.10855E-03 
  40779.3702     0.10867E-03 
  40811.6324     0.10878E-03 
  40843.8946     0.10888E-03 
  40876.1567     0.10899E-03 
  40908.4189     0.10908E-03 
  40940.6810     0.10918E-03 
  40972.9432     0.10927E-03 
  41005.2054     0.10935E-03 
  41037.4675     0.10943E-03 
  41069.7297     0.10951E-03 
  41101.9918     0.10958E-03 
  41134.2540     0.10965E-03 
  41166.5162     0.10972E-03 
  41198.7783     0.10978E-03 
  41231.0405     0.10983E-03 
  41263.3026     0.10988E-03 
  41295.5648     0.10993E-03 
  41327.8270     0.10997E-03 
  41360.0891     0.11001E-03 
  41392.3513     0.11005E-03 
  41424.6134     0.11008E-03 
  41456.8756     0.11010E-03 
  41489.1378     0.11012E-03 
  41521.3999     0.11014E-03 
  41553.6621     0.11015E-03 
  41585.9242     0.11016E-03 
  41618.1864     0.11017E-03 
  41650.4486     0.11017E-03 
  41682.7107     0.11017E-03 
  41714.9729     0.11016E-03 
  41747.2350     0.11015E-03 
  41779.4972     0.11013E-03 
  41811.7594     0.11011E-03 
  41844.0215     0.11009E-03 
  41876.2837     0.11006E-03 
  41908.5458     0.11003E-03 
  41940.8080     0.10999E-03 
  41973.0702     0.10995E-03 
  42005.3323     0.10991E-03 
  42037.5945     0.10986E-03 
  42069.8566     0.10981E-03 
  42102.1188     0.10975E-03 
  42134.3810     0.10969E-03 
  42166.6431     0.10962E-03 
  42198.9053     0.10956E-03 
  42231.1674     0.10948E-03 
  42263.4296     0.10941E-03 
  42295.6918     0.10933E-03 
  42327.9539     0.10925E-03 
  42360.2161     0.10916E-03 
  42392.4782     0.10907E-03 
  42424.7404     0.10897E-03 
  42457.0026     0.10887E-03 
  42489.2647     0.10877E-03 
  42521.5269     0.10866E-03 
  42553.7890     0.10855E-03 
  42586.0512     0.10844E-03 
  42618.3134     0.10832E-03 
  42650.5755     0.10820E-03 
  42682.8377     0.10808E-03 
  42715.0998     0.10795E-03 
  42747.3620     0.10782E-03 
  42779.6242     0.10768E-03 
  42811.8863     0.10754E-03 
  42844.1485     0.10740E-03 
  42876.4106     0.10725E-03 
  42908.6728     0.10710E-03 
  42940.9350     0.10695E-03 
  42973.1971     0.10679E-03 
  43005.4593     0.10664E-03 
  43037.7214     0.10647E-03 
  43069.9836     0.10631E-03 
  43102.2458     0.10614E-03 
  43134.5079     0.10596E-03 
  43166.7701     0.10579E-03 
  43199.0322     0.10561E-03 
  43231.2944     0.10542E-03 
  43263.5566     0.10524E-03 
  43295.8187     0.10505E-03 
  43328.0809     0.10486E-03 
  43360.3430     0.10466E-03 
  43392.6052     0.10446E-03 
  43424.8674     0.10426E-03 
  43457.1295     0.10406E-03 
  43489.3917     0.10385E-03 
  43521.6538     0.10364E-03 
  43553.9160     0.10342E-03 
  43586.1782     0.10321E-03 
  43618.4403     0.10299E-03 
  43650.7025     0.10277E-03 
  43682.9646     0.10254E-03 
  43715.2268     0.10231E-03 
  43747.4890     0.10208E-03 
  43779.7511     0.10185E-03 
  43812.0133     0.10161E-03 
  43844.2754     0.10138E-03 
  43876.5376     0.10113E-03 
  43908.7998     0.10089E-03 
  43941.0619     0.10064E-03 
  43973.3241     0.10039E-03 
  44005.5862     0.10014E-03 
  44037.8484     0.99888E-04 
  44070.1106     0.99631E-04 
  44102.3727     0.99372E-04 
  44134.6349     0.99111E-04 
  44166.8970     0.98847E-04 
  44199.1592     0.98581E-04 
  44231.4214     0.98312E-04 
  44263.6835     0.98041E-04 
  44295.9457     0.97768E-04 
  44328.2078     0.97492E-04 
  44360.4700     0.97215E-04 
  44392.7322     0.96935E-04 
  44424.9943     0.96653E-04 
  44457.2565     0.96369E-04 
  44489.5186     0.96083E-04 
  44521.7808     0.95795E-04 
  44554.0430     0.95505E-04 
  44586.3051     0.95213E-04 
  44618.5673     0.94918E-04 
  44650.8294     0.94622E-04 
  44683.0916     0.94324E-04 
  44715.3538     0.94025E-04 
  44747.6159     0.93723E-04 
  44779.8781     0.93419E-04 
  44812.1402     0.93114E-04 
  44844.4024     0.92807E-04 
  44876.6646     0.92498E-04 
  44908.9267     0.92188E-04 
  44941.1889     0.91876E-04 
  44973.4510     0.91562E-04 
  45005.7132     0.91247E-04 
  45037.9754     0.90930E-04 
  45070.2375     0.90612E-04 
  45102.4997     0.90292E-04 
  45134.7618     0.89971E-04 
  45167.0240     0.89648E-04 
  45199.2862     0.89324E-04 
  45231.5483     0.88998E-04 
  45263.8105     0.88671E-04 
  45296.0726     0.88343E-04 
  45328.3348     0.88014E-04 
  45360.5970     0.87683E-04 
  45392.8591     0.87351E-04 
  45425.1213     0.87017E-04 
  45457.3834     0.86683E-04 
  45489.6456     0.86347E-04 
  45521.9078     0.86011E-04 
  45554.1699     0.85673E-04 
  45586.4321     0.85334E-04 
  45618.6942     0.84994E-04 
  45650.9564     0.84653E-04 
  45683.2186     0.84312E-04 
  45715.4807     0.83969E-04 
  45747.7429     0.83625E-04 
  45780.0050     0.83280E-04 
  45812.2672     0.82935E-04 
  45844.5294     0.82589E-04 
  45876.7915     0.82242E-04 
  45909.0537     0.81894E-04 
  45941.3158     0.81545E-04 
  45973.5780     0.81196E-04 
  46005.8402     0.80846E-04 
  46038.1023     0.80495E-04 
  46070.3645     0.80143E-04 
  46102.6266     0.79791E-04 
  46134.8888     0.79439E-04 
  46167.1510     0.79086E-04 
  46199.4131     0.78732E-04 
  46231.6753     0.78378E-04 
  46263.9374     0.78023E-04 
  46296.1996     0.77668E-04 
  46328.4618     0.77313E-04 
  46360.7239     0.76957E-04 
  46392.9861     0.76600E-04 
  46425.2482     0.76243E-04 
  46457.5104     0.75886E-04 
  46489.7726     0.75529E-04 
  46522.0347     0.75171E-04 
  46554.2969     0.74814E-04 
  46586.5590     0.74455E-04 
  46618.8212     0.74097E-04 
  46651.0834     0.73739E-04 
  46683.3455     0.73380E-04 
  46715.6077     0.73021E-04 
  46747.8698     0.72662E-04 
  46780.1320     0.72303E-04 
  46812.3942     0.71944E-04 
  46844.6563     0.71585E-04 
  46876.9185     0.71226E-04 
  46909.1806     0.70866E-04 
  46941.4428     0.70507E-04 
  46973.7050     0.70148E-04 
  47005.9671     0.69789E-04 
  47038.2293     0.69430E-04 
  47070.4914     0.69071E-04 
  47102.7536     0.68712E-04 
  47135.0158     0.68354E-04 
  47167.2779     0.67995E-04 
  47199.5401     0.67637E-04 
  47231.8022     0.67279E-04 
  47264.0644     0.66921E-04 
  47296.3266     0.66564E-04 
  47328.5887     0.66206E-04 
  47360.8509     0.65850E-04 
  47393.1130     0.65493E-04 
  47425.3752     0.65137E-04 
  47457.6374     0.64781E-04 
  47489.8995     0.64425E-04 
  47522.1617     0.64070E-04 
  47554.4238     0.63715E-04 
  47586.6860     0.63360E-04 
  47618.9482     0.63007E-04 
  47651.2103     0.62653E-04 
  47683.4725     0.62300E-04 
  47715.7346     0.61947E-04 
  47747.9968     0.61595E-04 
  47780.2590     0.61244E-04 
  47812.5211     0.60893E-04 
  47844.7833     0.60543E-04 
  47877.0454     0.60193E-04 
  47909.3076     0.59844E-04 
  47941.5698     0.59495E-04 
  47973.8319     0.59147E-04 
  48006.0941     0.58800E-04 
  48038.3562     0.58453E-04 
  48070.6184     0.58107E-04 
  48102.8806     0.57762E-04 
  48135.1427     0.57417E-04 
  48167.4049     0.57073E-04 
  48199.6670     0.56730E-04 
  48231.9292     0.56388E-04 
  48264.1914     0.56046E-04 
  48296.4535     0.55705E-04 
  48328.7157     0.55365E-04 
  48360.9778     0.55026E-04 
  48393.2400     0.54687E-04 
  48425.5022     0.54350E-04 
  48457.7643     0.54013E-04 
  48490.0265     0.53677E-04 
  48522.2886     0.53342E-04 
  48554.5508     0.53008E-04 
  48586.8130     0.52674E-04 
  48619.0751     0.52342E-04 
  48651.3373     0.52010E-04 
  48683.5994     0.51680E-04 
  48715.8616     0.51350E-04 
  48748.1238     0.51022E-04 
  48780.3859     0.50694E-04 
  48812.6481     0.50367E-04 
  48844.9102     0.50041E-04 
  48877.1724     0.49716E-04 
  48909.4346     0.49393E-04 
  48941.6967     0.49070E-04 
  48973.9589     0.48748E-04 
  49006.2210     0.48427E-04 
  49038.4832     0.48108E-04 
  49070.7454     0.47789E-04 
  49103.0075     0.47471E-04 
  49135.2697     0.47155E-04 
  49167.5318     0.46839E-04 
  49199.7940     0.46525E-04 
  49232.0562     0.46212E-04 
  49264.3183     0.45899E-04 
  49296.5805     0.45588E-04 
  49328.8426     0.45278E-04 
  49361.1048     0.44969E-04 
  49393.3670     0.44662E-04 
  49425.6291     0.44355E-04 
  49457.8913     0.44050E-04 
  49490.1534     0.43745E-04 
  49522.4156     0.43442E-04 
  49554.6778     0.43140E-04 
  49586.9399     0.42839E-04 
  49619.2021     0.42540E-04 
  49651.4642     0.42241E-04 
  49683.7264     0.41944E-04 
  49715.9886     0.41648E-04 
  49748.2507     0.41353E-04 
  49780.5129     0.41060E-04 
  49812.7750     0.40767E-04 
  49845.0372     0.40476E-04 
  49877.2994     0.40186E-04 
  49909.5615     0.39897E-04 
  49941.8237     0.39609E-04 
  49974.0858     0.39323E-04 
  50006.3480     0.39038E-04 
  50038.6102     0.38754E-04 
  50070.8723     0.38472E-04 
  50103.1345     0.38190E-04 
  50135.3966     0.37910E-04 
  50167.6588     0.37631E-04 
  50199.9210     0.37354E-04 
  50232.1831     0.37077E-04 
  50264.4453     0.36802E-04 
  50296.7074     0.36529E-04 
  50328.9696     0.36256E-04 
  50361.2318     0.35985E-04 
  50393.4939     0.35715E-04 
  50425.7561     0.35446E-04 
  50458.0182     0.35179E-04 
  50490.2804     0.34913E-04 
  50522.5426     0.34648E-04 
  50554.8047     0.34384E-04 
  50587.0669     0.34122E-04 
  50619.3290     0.33861E-04 
  50651.5912     0.33602E-04 
  50683.8534     0.33343E-04 
  50716.1155     0.33086E-04 
  50748.3777     0.32830E-04 
  50780.6398     0.32576E-04 
  50812.9020     0.32323E-04 
  50845.1642     0.32071E-04 
  50877.4263     0.31820E-04 
  50909.6885     0.31571E-04 
  50941.9506     0.31323E-04 
  50974.2128     0.31076E-04 
  51006.4750     0.30831E-04 
  51038.7371     0.30587E-04 
  51070.9993     0.30344E-04 
  51103.2614     0.30103E-04 
  51135.5236     0.29863E-04 
  51167.7858     0.29624E-04 
  51200.0479     0.29386E-04 
  51232.3101     0.29150E-04 
  51264.5722     0.28915E-04 
  51296.8344     0.28682E-04 
  51329.0966     0.28449E-04 
  51361.3587     0.28218E-04 
  51393.6209     0.27989E-04 
  51425.8830     0.27760E-04 
  51458.1452     0.27533E-04 
  51490.4074     0.27307E-04 
  51522.6695     0.27083E-04 
  51554.9317     0.26860E-04 
  51587.1938     0.26638E-04 
  51619.4560     0.26417E-04 
  51651.7182     0.26198E-04 
  51683.9803     0.25980E-04 
  51716.2425     0.25763E-04 
  51748.5046     0.25547E-04 
  51780.7668     0.25333E-04 
  51813.0290     0.25120E-04 
  51845.2911     0.24908E-04 
  51877.5533     0.24698E-04 
  51909.8154     0.24489E-04 
  51942.0776     0.24281E-04 
  51974.3398     0.24074E-04 
  52006.6019     0.23869E-04 
  52038.8641     0.23665E-04 
  52071.1262     0.23462E-04 
  52103.3884     0.23260E-04 
  52135.6506     0.23060E-04 
  52167.9127     0.22861E-04 
  52200.1749     0.22663E-04 
  52232.4370     0.22467E-04 
  52264.6992     0.22271E-04 
  52296.9614     0.22077E-04 
  52329.2235     0.21884E-04 
  52361.4857     0.21693E-04 
  52393.7478     0.21502E-04 
  52426.0100     0.21313E-04 
  52458.2722     0.21125E-04 
  52490.5343     0.20938E-04 
  52522.7965     0.20753E-04 
  52555.0586     0.20569E-04 
  52587.3208     0.20386E-04 
  52619.5830     0.20204E-04 
  52651.8451     0.20023E-04 
  52684.1073     0.19843E-04 
  52716.3694     0.19665E-04 
  52748.6316     0.19488E-04 
  52780.8938     0.19312E-04 
  52813.1559     0.19137E-04 
  52845.4181     0.18964E-04 
  52877.6802     0.18791E-04 
  52909.9424     0.18620E-04 
  52942.2046     0.18450E-04 
  52974.4667     0.18281E-04 
  53006.7289     0.18113E-04 
  53038.9910     0.17947E-04 
  53071.2532     0.17781E-04 
  53103.5154     0.17617E-04 
  53135.7775     0.17454E-04 
  53168.0397     0.17291E-04 
  53200.3018     0.17131E-04 
  53232.5640     0.16971E-04 
  53264.8262     0.16812E-04 
  53297.0883     0.16654E-04 
  53329.3505     0.16498E-04 
  53361.6126     0.16343E-04 
  53393.8748     0.16188E-04 
  53426.1370     0.16035E-04 
  53458.3991     0.15883E-04 
  53490.6613     0.15732E-04 
  53522.9234     0.15582E-04 
  53555.1856     0.15433E-04 
  53587.4478     0.15286E-04 
  53619.7099     0.15139E-04 
  53651.9721     0.14993E-04 
  53684.2342     0.14849E-04 
  53716.4964     0.14705E-04 
  53748.7586     0.14563E-04 
  53781.0207     0.14421E-04 
  53813.2829     0.14281E-04 
  53845.5450     0.14142E-04 
  53877.8072     0.14003E-04 
  53910.0694     0.13866E-04 
  53942.3315     0.13730E-04 
  53974.5937     0.13595E-04 
  54006.8558     0.13460E-04 
  54039.1180     0.13327E-04 
  54071.3802     0.13195E-04 
  54103.6423     0.13064E-04 
  54135.9045     0.12934E-04 
  54168.1666     0.12804E-04 
  54200.4288     0.12676E-04 
  54232.6910     0.12549E-04 
  54264.9531     0.12422E-04 
  54297.2153     0.12297E-04 
  54329.4774     0.12173E-04 
  54361.7396     0.12049E-04 
  54394.0018     0.11927E-04 
  54426.2639     0.11805E-04 
  54458.5261     0.11684E-04 
  54490.7882     0.11565E-04 
  54523.0504     0.11446E-04 
  54555.3126     0.11328E-04 
  54587.5747     0.11211E-04 
  54619.8369     0.11095E-04 
  54652.0990     0.10980E-04 
  54684.3612     0.10866E-04 
  54716.6234     0.10753E-04 
  54748.8855     0.10640E-04 
  54781.1477     0.10529E-04 
  54813.4098     0.10418E-04 
  54845.6720     0.10308E-04 
  54877.9342     0.10200E-04 
  54910.1963     0.10092E-04 
  54942.4585     0.99844E-05 
  54974.7206     0.98781E-05 
  55006.9828     0.97726E-05 
  55039.2450     0.96681E-05 
  55071.5071     0.95643E-05 
  55103.7693     0.94614E-05 
  55136.0314     0.93594E-05 
  55168.2936     0.92581E-05 
  55200.5558     0.91577E-05 
  55232.8179     0.90581E-05 
  55265.0801     0.89593E-05 
  55297.3422     0.88613E-05 
  55329.6044     0.87641E-05 
  55361.8666     0.86678E-05 
  55394.1287     0.85722E-05 
  55426.3909     0.84774E-05 
  55458.6530     0.83834E-05 
  55490.9152     0.82901E-05 
  55523.1774     0.81977E-05 
  55555.4395     0.81060E-05 
  55587.7017     0.80150E-05 
  55619.9638     0.79248E-05 
  55652.2260     0.78354E-05 
  55684.4882     0.77468E-05 
  55716.7503     0.76588E-05 
  55749.0125     0.75716E-05 
  55781.2746     0.74852E-05 
  55813.5368     0.73995E-05 
  55845.7990     0.73145E-05 
  55878.0611     0.72302E-05 
  55910.3233     0.71466E-05 
  55942.5854     0.70638E-05 
  55974.8476     0.69816E-05 
  56007.1098     0.69002E-05 
  56039.3719     0.68194E-05 
  56071.6341     0.67394E-05 
  56103.8962     0.66600E-05 
  56136.1584     0.65813E-05 
  56168.4206     0.65033E-05 
  56200.6827     0.64260E-05 
  56232.9449     0.63493E-05 
  56265.2070     0.62733E-05 
  56297.4692     0.61980E-05 
  56329.7314     0.61233E-05 
  56361.9935     0.60493E-05 
  56394.2557     0.59759E-05 
  56426.5178     0.59031E-05 
  56458.7800     0.58310E-05 
  56491.0422     0.57595E-05 
  56523.3043     0.56887E-05 
  56555.5665     0.56185E-05 
  56587.8286     0.55489E-05 
  56620.0908     0.54799E-05 
  56652.3530     0.54115E-05 
  56684.6151     0.53438E-05 
  56716.8773     0.52766E-05 
  56749.1394     0.52101E-05 
  56781.4016     0.51441E-05 
  56813.6638     0.50787E-05 
  56845.9259     0.50139E-05 
  56878.1881     0.49497E-05 
  56910.4502     0.48861E-05 
  56942.7124     0.48231E-05 
  56974.9746     0.47606E-05 
  57007.2367     0.46987E-05 
  57039.4989     0.46373E-05 
  57071.7610     0.45765E-05 
  57104.0232     0.45163E-05 
  57136.2854     0.44566E-05 
  57168.5475     0.43975E-05 
  57200.8097     0.43389E-05 
  57233.0718     0.42808E-05 
  57265.3340     0.42233E-05 
  57297.5962     0.41663E-05 
  57329.8583     0.41098E-05 
  57362.1205     0.40539E-05 
  57394.3826     0.39985E-05 
  57426.6448     0.39436E-05 
  57458.9070     0.38892E-05 
  57491.1691     0.38353E-05 
  57523.4313     0.37819E-05 
  57555.6934     0.37291E-05 
  57587.9556     0.36767E-05 
  57620.2178     0.36248E-05 
  57652.4799     0.35734E-05 
  57684.7421     0.35225E-05 
  57717.0042     0.34721E-05 
  57749.2664     0.34221E-05 
  57781.5286     0.33727E-05 
  57813.7907     0.33237E-05 
  57846.0529     0.32752E-05 
  57878.3150     0.32271E-05 
  57910.5772     0.31796E-05 
  57942.8394     0.31324E-05 
  57975.1015     0.30858E-05 
  58007.3637     0.30396E-05 
  58039.6258     0.29938E-05 
  58071.8880     0.29485E-05 
  58104.1502     0.29036E-05 
  58136.4123     0.28592E-05 
  58168.6745     0.28152E-05 
  58200.9366     0.27717E-05 
  58233.1988     0.27285E-05 
  58265.4610     0.26858E-05 
  58297.7231     0.26436E-05 
  58329.9853     0.26017E-05 
  58362.2474     0.25603E-05 
  58394.5096     0.25193E-05 
  58426.7718     0.24787E-05 
  58459.0339     0.24386E-05 
  58491.2961     0.23988E-05 
  58523.5582     0.23594E-05 
  58555.8204     0.23205E-05 
  58588.0826     0.22819E-05 
  58620.3447     0.22438E-05 
  58652.6069     0.22060E-05 
  58684.8690     0.21687E-05 
  58717.1312     0.21317E-05 
  58749.3934     0.20951E-05 
  58781.6555     0.20589E-05 
  58813.9177     0.20231E-05 
  58846.1798     0.19876E-05 
  58878.4420     0.19526E-05 
  58910.7042     0.19179E-05 
  58942.9663     0.18836E-05 
  58975.2285     0.18496E-05 
  59007.4906     0.18160E-05 
  59039.7528     0.17828E-05 
  59072.0150     0.17500E-05 
  59104.2771     0.17175E-05 
  59136.5393     0.16854E-05 
  59168.8014     0.16536E-05 
  59201.0636     0.16222E-05 
  59233.3258     0.15911E-05 
  59265.5879     0.15604E-05 
  59297.8501     0.15301E-05 
  59330.1122     0.15000E-05 
  59362.3744     0.14704E-05 
  59394.6366     0.14410E-05 
  59426.8987     0.14121E-05 
  59459.1609     0.13834E-05 
  59491.4230     0.13551E-05 
  59523.6852     0.13271E-05 
  59555.9474     0.12995E-05 
  59588.2095     0.12722E-05 
  59620.4717     0.12452E-05 
  59652.7338     0.12185E-05 
  59684.9960     0.11922E-05 
  59717.2582     0.11662E-05 
  59749.5203     0.11405E-05 
  59781.7825     0.11151E-05 
  59814.0446     0.10901E-05 
  59846.3068     0.10654E-05 
  59878.5690     0.10409E-05 
  59910.8311     0.10168E-05 
  59943.0933     0.99306E-06 
  59975.3554     0.96959E-06 
  60007.6176     0.94643E-06 
  60039.8798     0.92358E-06 
  60072.1419     0.90104E-06 
  60104.4041     0.87880E-06 
  60136.6662     0.85687E-06 
  60168.9284     0.83524E-06 
  60201.1906     0.81392E-06 
  60233.4527     0.79290E-06 
  60265.7149     0.77217E-06 
  60297.9770     0.75175E-06 
  60330.2392     0.73162E-06 
  60362.5014     0.71180E-06 
  60394.7635     0.69227E-06 
  60427.0257     0.67303E-06 
  60459.2878     0.65409E-06 
  60491.5500     0.63544E-06 
  60523.8122     0.61709E-06 
  60556.0743     0.59902E-06 
  60588.3365     0.58125E-06 
  60620.5986     0.56377E-06 
  60652.8608     0.54658E-06 
  60685.1230     0.52968E-06 
  60717.3851     0.51306E-06 
  60749.6473     0.49673E-06 
  60781.9094     0.48069E-06 
  60814.1716     0.46494E-06 
  60846.4338     0.44947E-06 
  60878.6959     0.43429E-06 
  60910.9581     0.41940E-06 
  60943.2202     0.40479E-06 
  60975.4824     0.39046E-06 
  61007.7446     0.37642E-06 
  61040.0067     0.36266E-06 
  61072.2689     0.34919E-06 
  61104.5310     0.33599E-06 
  61136.7932     0.32309E-06 
  61169.0554     0.31046E-06 
  61201.3175     0.29812E-06 
  61233.5797     0.28607E-06 
  61265.8418     0.27429E-06 
  61298.1040     0.26280E-06 
  61330.3662     0.25159E-06 
  61362.6283     0.24067E-06 
  61394.8905     0.23003E-06 
  61427.1526     0.21968E-06 
  61459.4148     0.20960E-06 
  61491.6770     0.19982E-06 
  61523.9391     0.19032E-06 
  61556.2013     0.18110E-06 
  61588.4634     0.17217E-06 
  61620.7256     0.16353E-06 
  61652.9878     0.15517E-06 
  61685.2499     0.14710E-06 
  61717.5121     0.13932E-06 
  61749.7742     0.13183E-06 
  61782.0364     0.12463E-06 
  61814.2986     0.11772E-06 
  61846.5607     0.11110E-06 
  61878.8229     0.10478E-06 
  61911.0850     0.98744E-07 
  61943.3472     0.93006E-07 
  61975.6094     0.87563E-07 
  62007.8715     0.82416E-07 
  62040.1337     0.77567E-07 
  62072.3958     0.73018E-07 
  62104.6580     0.68768E-07 
  62136.9202     0.64821E-07 
  62169.1823     0.61176E-07 
  62201.4445     0.57836E-07 
  62233.7066     0.54802E-07 
  62265.9688     0.52076E-07 
  62298.2310     0.49659E-07 
  62330.4931     0.47553E-07 
  62362.7553     0.45760E-07 
  62395.0174     0.44282E-07 
  62427.2796     0.43121E-07 
  62459.5418     0.42277E-07 
  62491.8039     0.41755E-07 
  62524.0661     0.41555E-07 
  62556.3282     0.41681E-07 
  62588.5904     0.42133E-07 
  62620.8526     0.42915E-07 
  62653.1147     0.44029E-07 
  62685.3769     0.45477E-07 
  62717.6390     0.47262E-07 
  62749.9012     0.49386E-07 
  62782.1634     0.51853E-07 
  62814.4255     0.54665E-07 
  62846.6877     0.57825E-07 
  62878.9498     0.61336E-07 
  62911.2120     0.65200E-07 
  62943.4742     0.69422E-07 
  62975.7363     0.74004E-07 
  63007.9985     0.78949E-07 
  63040.2606     0.84261E-07 
  63072.5228     0.89944E-07 
  63104.7850     0.96001E-07 
  63137.0471     0.10243E-06 
  63169.3093     0.10925E-06 
  63201.5714     0.11645E-06 
  63233.8336     0.12404E-06 
  63266.0958     0.13202E-06 
  63298.3579     0.14041E-06 
  63330.6201     0.14919E-06 
  63362.8822     0.15838E-06 
  63395.1444     0.16798E-06 
  63427.4066     0.17799E-06 
  63459.6687     0.18842E-06 
  63491.9309     0.19928E-06 
  63524.1930     0.21057E-06 
  63556.4552     0.22230E-06 
  63588.7174     0.23446E-06 
  63620.9795     0.24707E-06 
  63653.2417     0.26013E-06 
  63685.5038     0.27364E-06 
  63717.7660     0.28762E-06 
  63750.0282     0.30207E-06 
  63782.2903     0.31699E-06 
  63814.5525     0.33239E-06 
  63846.8146     0.34828E-06 
  63879.0768     0.36466E-06 
  63911.3390     0.38153E-06 
  63943.6011     0.39892E-06 
  63975.8633     0.41682E-06 
  64008.1254     0.43524E-06 
  64040.3876     0.45418E-06 
  64072.6498     0.47367E-06 
  64104.9119     0.49369E-06 
  64137.1741     0.51426E-06 
  64169.4362     0.53540E-06 
  64201.6984     0.55710E-06 
  64233.9606     0.57937E-06 
  64266.2227     0.60223E-06 
  64298.4849     0.62567E-06 
  64330.7470     0.64972E-06 
  64363.0092     0.67438E-06 
  64395.2714     0.69966E-06 
  64427.5335     0.72557E-06 
  64459.7957     0.75211E-06 
  64492.0578     0.77931E-06 
  64524.3200     0.80716E-06 
  64556.5822     0.83568E-06 
  64588.8443     0.86488E-06 
  64621.1065     0.89477E-06 
  64653.3686     0.92536E-06 
  64685.6308     0.95667E-06 
  64717.8930     0.98870E-06 
  64750.1551     0.10215E-05 
  64782.4173     0.10550E-05 
  64814.6794     0.10893E-05 
  64846.9416     0.11243E-05 
  64879.2038     0.11602E-05 
  64911.4659     0.11968E-05 
  64943.7281     0.12343E-05 
  64975.9902     0.12725E-05 
  65008.2524     0.13117E-05 
  65040.5146     0.13516E-05 
  65072.7767     0.13925E-05 
  65105.0389     0.14342E-05 
  65137.3010     0.14769E-05 
  65169.5632     0.15204E-05 
  65201.8254     0.15649E-05 
  65234.0875     0.16104E-05 
  65266.3497     0.16568E-05 
  65298.6118     0.17042E-05 
  65330.8740     0.17526E-05 
  65363.1362     0.18021E-05 
  65395.3983     0.18525E-05 
  65427.6605     0.19041E-05 
  65459.9226     0.19567E-05 
  65492.1848     0.20104E-05 
  65524.4470     0.20652E-05 
  65556.7091     0.21212E-05 
  65588.9713     0.21783E-05 
  65621.2334     0.22366E-05 
  65653.4956     0.22961E-05 
  65685.7578     0.23569E-05 
  65718.0199     0.24189E-05 
  65750.2821     0.24821E-05 
  65782.5442     0.25467E-05 
  65814.8064     0.26126E-05 
  65847.0686     0.26799E-05 
  65879.3307     0.27485E-05 
  65911.5929     0.28185E-05 
  65943.8550     0.28899E-05 
  65976.1172     0.29628E-05 
  66008.3794     0.30372E-05 
  66040.6415     0.31131E-05 
  66072.9037     0.31906E-05 
  66105.1658     0.32696E-05 
  66137.4280     0.33502E-05 
  66169.6902     0.34324E-05 
  66201.9523     0.35164E-05 
  66234.2145     0.36020E-05 
  66266.4766     0.36893E-05 
  66298.7388     0.37784E-05 
  66331.0010     0.38693E-05 
  66363.2631     0.39621E-05 
  66395.5253     0.40567E-05 
  66427.7874     0.41533E-05 
  66460.0496     0.42517E-05 
  66492.3118     0.43522E-05 
  66524.5739     0.44547E-05 
  66556.8361     0.45593E-05 
  66589.0982     0.46659E-05 
  66621.3604     0.47748E-05 
  66653.6226     0.48858E-05 
  66685.8847     0.49990E-05 
  66718.1469     0.51146E-05 
  66750.4090     0.52324E-05 
  66782.6712     0.53527E-05 
  66814.9334     0.54753E-05 
  66847.1955     0.56005E-05 
  66879.4577     0.57281E-05 
  66911.7198     0.58583E-05 
  66943.9820     0.59912E-05 
  66976.2442     0.61267E-05 
  67008.5063     0.62650E-05 
  67040.7685     0.64060E-05 
  67073.0306     0.65499E-05 
  67105.2928     0.66967E-05 
  67137.5550     0.68464E-05 
  67169.8171     0.69992E-05 
  67202.0793     0.71550E-05 
  67234.3414     0.73139E-05 
  67266.6036     0.74761E-05 
  67298.8658     0.76416E-05 
  67331.1279     0.78103E-05 
  67363.3901     0.79825E-05 
  67395.6522     0.81581E-05 
  67427.9144     0.83373E-05 
  67460.1766     0.85201E-05 
  67492.4387     0.87065E-05 
  67524.7009     0.88967E-05 
  67556.9630     0.90908E-05 
  67589.2252     0.92887E-05 
  67621.4874     0.94906E-05 
  67653.7495     0.96966E-05 
  67686.0117     0.99068E-05 
  67718.2738     0.10121E-04 
  67750.5360     0.10340E-04 
  67782.7982     0.10563E-04 
  67815.0603     0.10790E-04 
  67847.3225     0.11023E-04 
  67879.5846     0.11259E-04 
  67911.8468     0.11501E-04 
  67944.1090     0.11747E-04 
  67976.3711     0.11999E-04 
  68008.6333     0.12255E-04 
  68040.8954     0.12517E-04 
  68073.1576     0.12783E-04 
  68105.4198     0.13055E-04 
  68137.6819     0.13333E-04 
  68169.9441     0.13616E-04 
  68202.2062     0.13905E-04 
  68234.4684     0.14199E-04 
  68266.7306     0.14500E-04 
  68298.9927     0.14806E-04 
  68331.2549     0.15119E-04 
  68363.5170     0.15437E-04 
  68395.7792     0.15763E-04 
  68428.0414     0.16094E-04 
  68460.3035     0.16432E-04 
  68492.5657     0.16777E-04 
  68524.8278     0.17129E-04 
  68557.0900     0.17488E-04 
  68589.3522     0.17853E-04 
  68621.6143     0.18226E-04 
  68653.8765     0.18607E-04 
  68686.1386     0.18995E-04 
  68718.4008     0.19390E-04 
  68750.6630     0.19794E-04 
  68782.9251     0.20205E-04 
  68815.1873     0.20625E-04 
  68847.4494     0.21052E-04 
  68879.7116     0.21488E-04 
  68911.9738     0.21933E-04 
  68944.2359     0.22386E-04 
  68976.4981     0.22848E-04 
  69008.7602     0.23319E-04 
  69041.0224     0.23800E-04 
  69073.2846     0.24289E-04 
  69105.5467     0.24789E-04 
  69137.8089     0.25298E-04 
  69170.0710     0.25816E-04 
  69202.3332     0.26345E-04 
  69234.5954     0.26884E-04 
  69266.8575     0.27433E-04 
  69299.1197     0.27993E-04 
  69331.3818     0.28564E-04 
  69363.6440     0.29146E-04 
  69395.9062     0.29738E-04 
  69428.1683     0.30342E-04 
  69460.4305     0.30958E-04 
  69492.6926     0.31585E-04 
  69524.9548     0.32224E-04 
  69557.2170     0.32875E-04 
  69589.4791     0.33539E-04 
  69621.7413     0.34215E-04 
  69654.0034     0.34904E-04 
  69686.2656     0.35606E-04 
  69718.5278     0.36321E-04 
  69750.7899     0.37049E-04 
  69783.0521     0.37791E-04 
  69815.3142     0.38546E-04 
  69847.5764     0.39316E-04 
  69879.8386     0.40100E-04 
  69912.1007     0.40898E-04 
  69944.3629     0.41712E-04 
  69976.6250     0.42540E-04 
  70008.8872     0.43383E-04 
  70041.1494     0.44242E-04 
  70073.4115     0.45116E-04 
  70105.6737     0.46006E-04 
  70137.9358     0.46913E-04 
  70170.1980     0.47835E-04 
  70202.4602     0.48775E-04 
  70234.7223     0.49731E-04 
  70266.9845     0.50705E-04 
  70299.2466     0.51696E-04 
  70331.5088     0.52704E-04 
  70363.7710     0.53731E-04 
  70396.0331     0.54775E-04 
  70428.2953     0.55838E-04 
  70460.5574     0.56920E-04 
  70492.8196     0.58021E-04 
  70525.0818     0.59141E-04 
  70557.3439     0.60281E-04 
  70589.6061     0.61440E-04 
  70621.8682     0.62620E-04 
  70654.1304     0.63820E-04 
  70686.3926     0.65041E-04 
  70718.6547     0.66282E-04 
  70750.9169     0.67545E-04 
  70783.1790     0.68829E-04 
  70815.4412     0.70135E-04 
  70847.7034     0.71463E-04 
  70879.9655     0.72814E-04 
  70912.2277     0.74187E-04 
  70944.4898     0.75583E-04 
  70976.7520     0.77003E-04 
  71009.0142     0.78446E-04 
  71041.2763     0.79913E-04 
  71073.5385     0.81404E-04 
  71105.8006     0.82919E-04 
  71138.0628     0.84460E-04 
  71170.3250     0.86025E-04 
  71202.5871     0.87616E-04 
  71234.8493     0.89232E-04 
  71267.1114     0.90875E-04 
  71299.3736     0.92543E-04 
  71331.6358     0.94239E-04 
  71363.8979     0.95961E-04 
  71396.1601     0.97711E-04 
  71428.4222     0.99488E-04 
  71460.6844     0.10129E-03 
  71492.9466     0.10313E-03 
  71525.2087     0.10499E-03 
  71557.4709     0.10688E-03 
  71589.7330     0.10880E-03 
  71621.9952     0.11075E-03 
  71654.2574     0.11273E-03 
  71686.5195     0.11473E-03 
  71718.7817     0.11677E-03 
  71751.0438     0.11884E-03 
  71783.3060     0.12094E-03 
  71815.5682     0.12308E-03 
  71847.8303     0.12524E-03 
  71880.0925     0.12744E-03 
  71912.3546     0.12966E-03 
  71944.6168     0.13192E-03 
  71976.8790     0.13422E-03 
  72009.1411     0.13654E-03 
  72041.4033     0.13890E-03 
  72073.6654     0.14130E-03 
  72105.9276     0.14372E-03 
  72138.1898     0.14619E-03 
  72170.4519     0.14868E-03 
  72202.7141     0.15122E-03 
  72234.9762     0.15378E-03 
  72267.2384     0.15639E-03 
  72299.5006     0.15903E-03 
  72331.7627     0.16170E-03 
  72364.0249     0.16441E-03 
  72396.2870     0.16716E-03 
  72428.5492     0.16995E-03 
  72460.8114     0.17277E-03 
  72493.0735     0.17563E-03 
  72525.3357     0.17853E-03 
  72557.5978     0.18146E-03 
  72589.8600     0.18444E-03 
