  32262.1600     0.20039E+00 
  32294.4222     0.20297E+00 
  32326.6843     0.20557E+00 
  32358.9465     0.20820E+00 
  32391.2086     0.21085E+00 
  32423.4708     0.21352E+00 
  32455.7330     0.21622E+00 
  32487.9951     0.21894E+00 
  32520.2573     0.22169E+00 
  32552.5194     0.22446E+00 
  32584.7816     0.22725E+00 
  32617.0438     0.23006E+00 
  32649.3059     0.23290E+00 
  32681.5681     0.23577E+00 
  32713.8302     0.23865E+00 
  32746.0924     0.24156E+00 
  32778.3546     0.24450E+00 
  32810.6167     0.24745E+00 
  32842.8789     0.25043E+00 
  32875.1410     0.25344E+00 
  32907.4032     0.25647E+00 
  32939.6654     0.25952E+00 
  32971.9275     0.26260E+00 
  33004.1897     0.26570E+00 
  33036.4518     0.26882E+00 
  33068.7140     0.27197E+00 
  33100.9762     0.27514E+00 
  33133.2383     0.27834E+00 
  33165.5005     0.28155E+00 
  33197.7626     0.28480E+00 
  33230.0248     0.28806E+00 
  33262.2870     0.29135E+00 
  33294.5491     0.29467E+00 
  33326.8113     0.29800E+00 
  33359.0734     0.30136E+00 
  33391.3356     0.30475E+00 
  33423.5978     0.30815E+00 
  33455.8599     0.31158E+00 
  33488.1221     0.31504E+00 
  33520.3842     0.31851E+00 
  33552.6464     0.32201E+00 
  33584.9086     0.32554E+00 
  33617.1707     0.32908E+00 
  33649.4329     0.33265E+00 
  33681.6950     0.33624E+00 
  33713.9572     0.33986E+00 
  33746.2194     0.34350E+00 
  33778.4815     0.34716E+00 
  33810.7437     0.35084E+00 
  33843.0058     0.35455E+00 
  33875.2680     0.35827E+00 
  33907.5302     0.36202E+00 
  33939.7923     0.36580E+00 
  33972.0545     0.36959E+00 
  34004.3166     0.37341E+00 
  34036.5788     0.37724E+00 
  34068.8410     0.38110E+00 
  34101.1031     0.38499E+00 
  34133.3653     0.38889E+00 
  34165.6274     0.39281E+00 
  34197.8896     0.39676E+00 
  34230.1518     0.40072E+00 
  34262.4139     0.40471E+00 
  34294.6761     0.40872E+00 
  34326.9382     0.41275E+00 
  34359.2004     0.41680E+00 
  34391.4626     0.42087E+00 
  34423.7247     0.42496E+00 
  34455.9869     0.42907E+00 
  34488.2490     0.43320E+00 
  34520.5112     0.43735E+00 
  34552.7734     0.44152E+00 
  34585.0355     0.44571E+00 
  34617.2977     0.44992E+00 
  34649.5598     0.45414E+00 
  34681.8220     0.45839E+00 
  34714.0842     0.46265E+00 
  34746.3463     0.46694E+00 
  34778.6085     0.47124E+00 
  34810.8706     0.47556E+00 
  34843.1328     0.47989E+00 
  34875.3950     0.48425E+00 
  34907.6571     0.48862E+00 
  34939.9193     0.49301E+00 
  34972.1814     0.49742E+00 
  35004.4436     0.50184E+00 
  35036.7058     0.50628E+00 
  35068.9679     0.51073E+00 
  35101.2301     0.51521E+00 
  35133.4922     0.51969E+00 
  35165.7544     0.52420E+00 
  35198.0166     0.52872E+00 
  35230.2787     0.53325E+00 
  35262.5409     0.53780E+00 
  35294.8030     0.54236E+00 
  35327.0652     0.54694E+00 
  35359.3274     0.55153E+00 
  35391.5895     0.55614E+00 
  35423.8517     0.56076E+00 
  35456.1138     0.56539E+00 
  35488.3760     0.57004E+00 
  35520.6382     0.57470E+00 
  35552.9003     0.57937E+00 
  35585.1625     0.58405E+00 
  35617.4246     0.58875E+00 
  35649.6868     0.59346E+00 
  35681.9490     0.59818E+00 
  35714.2111     0.60291E+00 
  35746.4733     0.60765E+00 
  35778.7354     0.61240E+00 
  35810.9976     0.61716E+00 
  35843.2598     0.62193E+00 
  35875.5219     0.62671E+00 
  35907.7841     0.63150E+00 
  35940.0462     0.63630E+00 
  35972.3084     0.64111E+00 
  36004.5706     0.64593E+00 
  36036.8327     0.65075E+00 
  36069.0949     0.65558E+00 
  36101.3570     0.66042E+00 
  36133.6192     0.66527E+00 
  36165.8814     0.67012E+00 
  36198.1435     0.67498E+00 
  36230.4057     0.67985E+00 
  36262.6678     0.68472E+00 
  36294.9300     0.68960E+00 
  36327.1922     0.69448E+00 
  36359.4543     0.69937E+00 
  36391.7165     0.70426E+00 
  36423.9786     0.70916E+00 
  36456.2408     0.71406E+00 
  36488.5030     0.71896E+00 
  36520.7651     0.72386E+00 
  36553.0273     0.72877E+00 
  36585.2894     0.73368E+00 
  36617.5516     0.73860E+00 
  36649.8138     0.74351E+00 
  36682.0759     0.74843E+00 
  36714.3381     0.75334E+00 
  36746.6002     0.75826E+00 
  36778.8624     0.76318E+00 
  36811.1246     0.76810E+00 
  36843.3867     0.77301E+00 
  36875.6489     0.77793E+00 
  36907.9110     0.78284E+00 
  36940.1732     0.78775E+00 
  36972.4354     0.79267E+00 
  37004.6975     0.79757E+00 
  37036.9597     0.80248E+00 
  37069.2218     0.80738E+00 
  37101.4840     0.81228E+00 
  37133.7462     0.81718E+00 
  37166.0083     0.82207E+00 
  37198.2705     0.82695E+00 
  37230.5326     0.83183E+00 
  37262.7948     0.83671E+00 
  37295.0570     0.84158E+00 
  37327.3191     0.84644E+00 
  37359.5813     0.85130E+00 
  37391.8434     0.85615E+00 
  37424.1056     0.86099E+00 
  37456.3678     0.86583E+00 
  37488.6299     0.87066E+00 
  37520.8921     0.87547E+00 
  37553.1542     0.88028E+00 
  37585.4164     0.88509E+00 
  37617.6786     0.88988E+00 
  37649.9407     0.89466E+00 
  37682.2029     0.89943E+00 
  37714.4650     0.90419E+00 
  37746.7272     0.90894E+00 
  37778.9894     0.91367E+00 
  37811.2515     0.91840E+00 
  37843.5137     0.92311E+00 
  37875.7758     0.92781E+00 
  37908.0380     0.93250E+00 
  37940.3002     0.93718E+00 
  37972.5623     0.94184E+00 
  38004.8245     0.94648E+00 
  38037.0866     0.95111E+00 
  38069.3488     0.95573E+00 
  38101.6110     0.96033E+00 
  38133.8731     0.96492E+00 
  38166.1353     0.96949E+00 
  38198.3974     0.97404E+00 
  38230.6596     0.97858E+00 
  38262.9218     0.98310E+00 
  38295.1839     0.98760E+00 
  38327.4461     0.99209E+00 
  38359.7082     0.99655E+00 
  38391.9704     0.10010E+01 
  38424.2326     0.10054E+01 
  38456.4947     0.10098E+01 
  38488.7569     0.10142E+01 
  38521.0190     0.10186E+01 
  38553.2812     0.10229E+01 
  38585.5434     0.10273E+01 
  38617.8055     0.10316E+01 
  38650.0677     0.10359E+01 
  38682.3298     0.10401E+01 
  38714.5920     0.10444E+01 
  38746.8542     0.10486E+01 
  38779.1163     0.10528E+01 
  38811.3785     0.10570E+01 
  38843.6406     0.10611E+01 
  38875.9028     0.10652E+01 
  38908.1650     0.10693E+01 
  38940.4271     0.10734E+01 
  38972.6893     0.10775E+01 
  39004.9514     0.10815E+01 
  39037.2136     0.10855E+01 
  39069.4758     0.10895E+01 
  39101.7379     0.10934E+01 
  39134.0001     0.10973E+01 
  39166.2622     0.11012E+01 
  39198.5244     0.11051E+01 
  39230.7866     0.11089E+01 
  39263.0487     0.11128E+01 
  39295.3109     0.11165E+01 
  39327.5730     0.11203E+01 
  39359.8352     0.11240E+01 
  39392.0974     0.11277E+01 
  39424.3595     0.11314E+01 
  39456.6217     0.11350E+01 
  39488.8838     0.11386E+01 
  39521.1460     0.11422E+01 
  39553.4082     0.11458E+01 
  39585.6703     0.11493E+01 
  39617.9325     0.11528E+01 
  39650.1946     0.11562E+01 
  39682.4568     0.11597E+01 
  39714.7190     0.11631E+01 
  39746.9811     0.11664E+01 
  39779.2433     0.11697E+01 
  39811.5054     0.11730E+01 
  39843.7676     0.11763E+01 
  39876.0298     0.11795E+01 
  39908.2919     0.11827E+01 
  39940.5541     0.11859E+01 
  39972.8162     0.11890E+01 
  40005.0784     0.11921E+01 
  40037.3406     0.11952E+01 
  40069.6027     0.11982E+01 
  40101.8649     0.12012E+01 
  40134.1270     0.12042E+01 
  40166.3892     0.12071E+01 
  40198.6514     0.12100E+01 
  40230.9135     0.12128E+01 
  40263.1757     0.12156E+01 
  40295.4378     0.12184E+01 
  40327.7000     0.12211E+01 
  40359.9622     0.12239E+01 
  40392.2243     0.12265E+01 
  40424.4865     0.12292E+01 
  40456.7486     0.12317E+01 
  40489.0108     0.12343E+01 
  40521.2730     0.12368E+01 
  40553.5351     0.12393E+01 
  40585.7973     0.12418E+01 
  40618.0594     0.12442E+01 
  40650.3216     0.12465E+01 
  40682.5838     0.12489E+01 
  40714.8459     0.12512E+01 
  40747.1081     0.12534E+01 
  40779.3702     0.12556E+01 
  40811.6324     0.12578E+01 
  40843.8946     0.12599E+01 
  40876.1567     0.12620E+01 
  40908.4189     0.12641E+01 
  40940.6810     0.12661E+01 
  40972.9432     0.12681E+01 
  41005.2054     0.12700E+01 
  41037.4675     0.12719E+01 
  41069.7297     0.12738E+01 
  41101.9918     0.12756E+01 
  41134.2540     0.12774E+01 
  41166.5162     0.12791E+01 
  41198.7783     0.12808E+01 
  41231.0405     0.12825E+01 
  41263.3026     0.12841E+01 
  41295.5648     0.12857E+01 
  41327.8270     0.12872E+01 
  41360.0891     0.12887E+01 
  41392.3513     0.12902E+01 
  41424.6134     0.12916E+01 
  41456.8756     0.12930E+01 
  41489.1378     0.12943E+01 
  41521.3999     0.12956E+01 
  41553.6621     0.12969E+01 
  41585.9242     0.12981E+01 
  41618.1864     0.12993E+01 
  41650.4486     0.13004E+01 
  41682.7107     0.13015E+01 
  41714.9729     0.13025E+01 
  41747.2350     0.13035E+01 
  41779.4972     0.13045E+01 
  41811.7594     0.13054E+01 
  41844.0215     0.13063E+01 
  41876.2837     0.13072E+01 
  41908.5458     0.13080E+01 
  41940.8080     0.13087E+01 
  41973.0702     0.13094E+01 
  42005.3323     0.13101E+01 
  42037.5945     0.13107E+01 
  42069.8566     0.13113E+01 
  42102.1188     0.13119E+01 
  42134.3810     0.13124E+01 
  42166.6431     0.13129E+01 
  42198.9053     0.13133E+01 
  42231.1674     0.13137E+01 
  42263.4296     0.13140E+01 
  42295.6918     0.13143E+01 
  42327.9539     0.13146E+01 
  42360.2161     0.13148E+01 
  42392.4782     0.13150E+01 
  42424.7404     0.13152E+01 
  42457.0026     0.13153E+01 
  42489.2647     0.13153E+01 
  42521.5269     0.13153E+01 
  42553.7890     0.13153E+01 
  42586.0512     0.13153E+01 
  42618.3134     0.13152E+01 
  42650.5755     0.13150E+01 
  42682.8377     0.13148E+01 
  42715.0998     0.13146E+01 
  42747.3620     0.13144E+01 
  42779.6242     0.13141E+01 
  42811.8863     0.13137E+01 
  42844.1485     0.13133E+01 
  42876.4106     0.13129E+01 
  42908.6728     0.13125E+01 
  42940.9350     0.13120E+01 
  42973.1971     0.13114E+01 
  43005.4593     0.13108E+01 
  43037.7214     0.13102E+01 
  43069.9836     0.13096E+01 
  43102.2458     0.13089E+01 
  43134.5079     0.13081E+01 
  43166.7701     0.13074E+01 
  43199.0322     0.13065E+01 
  43231.2944     0.13057E+01 
  43263.5566     0.13048E+01 
  43295.8187     0.13039E+01 
  43328.0809     0.13029E+01 
  43360.3430     0.13019E+01 
  43392.6052     0.13009E+01 
  43424.8674     0.12998E+01 
  43457.1295     0.12987E+01 
  43489.3917     0.12975E+01 
  43521.6538     0.12964E+01 
  43553.9160     0.12951E+01 
  43586.1782     0.12939E+01 
  43618.4403     0.12926E+01 
  43650.7025     0.12913E+01 
  43682.9646     0.12899E+01 
  43715.2268     0.12885E+01 
  43747.4890     0.12870E+01 
  43779.7511     0.12856E+01 
  43812.0133     0.12841E+01 
  43844.2754     0.12825E+01 
  43876.5376     0.12809E+01 
  43908.7998     0.12793E+01 
  43941.0619     0.12777E+01 
  43973.3241     0.12760E+01 
  44005.5862     0.12743E+01 
  44037.8484     0.12725E+01 
  44070.1106     0.12707E+01 
  44102.3727     0.12689E+01 
  44134.6349     0.12671E+01 
  44166.8970     0.12652E+01 
  44199.1592     0.12633E+01 
  44231.4214     0.12613E+01 
  44263.6835     0.12593E+01 
  44295.9457     0.12573E+01 
  44328.2078     0.12553E+01 
  44360.4700     0.12532E+01 
  44392.7322     0.12511E+01 
  44424.9943     0.12489E+01 
  44457.2565     0.12468E+01 
  44489.5186     0.12446E+01 
  44521.7808     0.12423E+01 
  44554.0430     0.12401E+01 
  44586.3051     0.12378E+01 
  44618.5673     0.12355E+01 
  44650.8294     0.12331E+01 
  44683.0916     0.12307E+01 
  44715.3538     0.12283E+01 
  44747.6159     0.12259E+01 
  44779.8781     0.12234E+01 
  44812.1402     0.12209E+01 
  44844.4024     0.12184E+01 
  44876.6646     0.12159E+01 
  44908.9267     0.12133E+01 
  44941.1889     0.12107E+01 
  44973.4510     0.12080E+01 
  45005.7132     0.12054E+01 
  45037.9754     0.12027E+01 
  45070.2375     0.12000E+01 
  45102.4997     0.11972E+01 
  45134.7618     0.11945E+01 
  45167.0240     0.11917E+01 
  45199.2862     0.11889E+01 
  45231.5483     0.11860E+01 
  45263.8105     0.11832E+01 
  45296.0726     0.11803E+01 
  45328.3348     0.11774E+01 
  45360.5970     0.11744E+01 
  45392.8591     0.11715E+01 
  45425.1213     0.11685E+01 
  45457.3834     0.11655E+01 
  45489.6456     0.11625E+01 
  45521.9078     0.11594E+01 
  45554.1699     0.11563E+01 
  45586.4321     0.11532E+01 
  45618.6942     0.11501E+01 
  45650.9564     0.11470E+01 
  45683.2186     0.11438E+01 
  45715.4807     0.11406E+01 
  45747.7429     0.11374E+01 
  45780.0050     0.11342E+01 
  45812.2672     0.11310E+01 
  45844.5294     0.11277E+01 
  45876.7915     0.11244E+01 
  45909.0537     0.11211E+01 
  45941.3158     0.11178E+01 
  45973.5780     0.11145E+01 
  46005.8402     0.11111E+01 
  46038.1023     0.11077E+01 
  46070.3645     0.11044E+01 
  46102.6266     0.11009E+01 
  46134.8888     0.10975E+01 
  46167.1510     0.10941E+01 
  46199.4131     0.10906E+01 
  46231.6753     0.10871E+01 
  46263.9374     0.10836E+01 
  46296.1996     0.10801E+01 
  46328.4618     0.10766E+01 
  46360.7239     0.10731E+01 
  46392.9861     0.10695E+01 
  46425.2482     0.10659E+01 
  46457.5104     0.10624E+01 
  46489.7726     0.10588E+01 
  46522.0347     0.10551E+01 
  46554.2969     0.10515E+01 
  46586.5590     0.10479E+01 
  46618.8212     0.10442E+01 
  46651.0834     0.10405E+01 
  46683.3455     0.10369E+01 
  46715.6077     0.10332E+01 
  46747.8698     0.10295E+01 
  46780.1320     0.10258E+01 
  46812.3942     0.10220E+01 
  46844.6563     0.10183E+01 
  46876.9185     0.10145E+01 
  46909.1806     0.10108E+01 
  46941.4428     0.10070E+01 
  46973.7050     0.10032E+01 
  47005.9671     0.99943E+00 
  47038.2293     0.99562E+00 
  47070.4914     0.99181E+00 
  47102.7536     0.98799E+00 
  47135.0158     0.98416E+00 
  47167.2779     0.98032E+00 
  47199.5401     0.97647E+00 
  47231.8022     0.97261E+00 
  47264.0644     0.96875E+00 
  47296.3266     0.96488E+00 
  47328.5887     0.96100E+00 
  47360.8509     0.95711E+00 
  47393.1130     0.95322E+00 
  47425.3752     0.94932E+00 
  47457.6374     0.94541E+00 
  47489.8995     0.94149E+00 
  47522.1617     0.93757E+00 
  47554.4238     0.93365E+00 
  47586.6860     0.92972E+00 
  47618.9482     0.92578E+00 
  47651.2103     0.92184E+00 
  47683.4725     0.91789E+00 
  47715.7346     0.91394E+00 
  47747.9968     0.90999E+00 
  47780.2590     0.90603E+00 
  47812.5211     0.90206E+00 
  47844.7833     0.89810E+00 
  47877.0454     0.89412E+00 
  47909.3076     0.89015E+00 
  47941.5698     0.88617E+00 
  47973.8319     0.88219E+00 
  48006.0941     0.87821E+00 
  48038.3562     0.87423E+00 
  48070.6184     0.87024E+00 
  48102.8806     0.86625E+00 
  48135.1427     0.86226E+00 
  48167.4049     0.85827E+00 
  48199.6670     0.85427E+00 
  48231.9292     0.85028E+00 
  48264.1914     0.84629E+00 
  48296.4535     0.84229E+00 
  48328.7157     0.83829E+00 
  48360.9778     0.83430E+00 
  48393.2400     0.83030E+00 
  48425.5022     0.82631E+00 
  48457.7643     0.82231E+00 
  48490.0265     0.81832E+00 
  48522.2886     0.81432E+00 
  48554.5508     0.81033E+00 
  48586.8130     0.80634E+00 
  48619.0751     0.80235E+00 
  48651.3373     0.79836E+00 
  48683.5994     0.79437E+00 
  48715.8616     0.79039E+00 
  48748.1238     0.78640E+00 
  48780.3859     0.78242E+00 
  48812.6481     0.77844E+00 
  48844.9102     0.77447E+00 
  48877.1724     0.77050E+00 
  48909.4346     0.76653E+00 
  48941.6967     0.76256E+00 
  48973.9589     0.75860E+00 
  49006.2210     0.75464E+00 
  49038.4832     0.75069E+00 
  49070.7454     0.74674E+00 
  49103.0075     0.74279E+00 
  49135.2697     0.73885E+00 
  49167.5318     0.73491E+00 
  49199.7940     0.73098E+00 
  49232.0562     0.72705E+00 
  49264.3183     0.72313E+00 
  49296.5805     0.71921E+00 
  49328.8426     0.71530E+00 
  49361.1048     0.71139E+00 
  49393.3670     0.70749E+00 
  49425.6291     0.70359E+00 
  49457.8913     0.69970E+00 
  49490.1534     0.69582E+00 
  49522.4156     0.69194E+00 
  49554.6778     0.68807E+00 
  49586.9399     0.68421E+00 
  49619.2021     0.68035E+00 
  49651.4642     0.67650E+00 
  49683.7264     0.67265E+00 
  49715.9886     0.66882E+00 
  49748.2507     0.66499E+00 
  49780.5129     0.66117E+00 
  49812.7750     0.65735E+00 
  49845.0372     0.65354E+00 
  49877.2994     0.64974E+00 
  49909.5615     0.64595E+00 
  49941.8237     0.64217E+00 
  49974.0858     0.63839E+00 
  50006.3480     0.63463E+00 
  50038.6102     0.63087E+00 
  50070.8723     0.62712E+00 
  50103.1345     0.62338E+00 
  50135.3966     0.61965E+00 
  50167.6588     0.61592E+00 
  50199.9210     0.61221E+00 
  50232.1831     0.60850E+00 
  50264.4453     0.60481E+00 
  50296.7074     0.60112E+00 
  50328.9696     0.59744E+00 
  50361.2318     0.59378E+00 
  50393.4939     0.59012E+00 
  50425.7561     0.58647E+00 
  50458.0182     0.58283E+00 
  50490.2804     0.57920E+00 
  50522.5426     0.57559E+00 
  50554.8047     0.57198E+00 
  50587.0669     0.56838E+00 
  50619.3290     0.56479E+00 
  50651.5912     0.56121E+00 
  50683.8534     0.55765E+00 
  50716.1155     0.55409E+00 
  50748.3777     0.55055E+00 
  50780.6398     0.54701E+00 
  50812.9020     0.54349E+00 
  50845.1642     0.53998E+00 
  50877.4263     0.53647E+00 
  50909.6885     0.53298E+00 
  50941.9506     0.52951E+00 
  50974.2128     0.52604E+00 
  51006.4750     0.52258E+00 
  51038.7371     0.51914E+00 
  51070.9993     0.51570E+00 
  51103.2614     0.51228E+00 
  51135.5236     0.50887E+00 
  51167.7858     0.50547E+00 
  51200.0479     0.50208E+00 
  51232.3101     0.49871E+00 
  51264.5722     0.49535E+00 
  51296.8344     0.49199E+00 
  51329.0966     0.48865E+00 
  51361.3587     0.48533E+00 
  51393.6209     0.48201E+00 
  51425.8830     0.47871E+00 
  51458.1452     0.47542E+00 
  51490.4074     0.47214E+00 
  51522.6695     0.46888E+00 
  51554.9317     0.46562E+00 
  51587.1938     0.46238E+00 
  51619.4560     0.45915E+00 
  51651.7182     0.45594E+00 
  51683.9803     0.45273E+00 
  51716.2425     0.44954E+00 
  51748.5046     0.44636E+00 
  51780.7668     0.44320E+00 
  51813.0290     0.44005E+00 
  51845.2911     0.43691E+00 
  51877.5533     0.43378E+00 
  51909.8154     0.43067E+00 
  51942.0776     0.42756E+00 
  51974.3398     0.42448E+00 
  52006.6019     0.42140E+00 
  52038.8641     0.41834E+00 
  52071.1262     0.41529E+00 
  52103.3884     0.41225E+00 
  52135.6506     0.40923E+00 
  52167.9127     0.40622E+00 
  52200.1749     0.40322E+00 
  52232.4370     0.40024E+00 
  52264.6992     0.39727E+00 
  52296.9614     0.39431E+00 
  52329.2235     0.39137E+00 
  52361.4857     0.38844E+00 
  52393.7478     0.38552E+00 
  52426.0100     0.38262E+00 
  52458.2722     0.37973E+00 
  52490.5343     0.37685E+00 
  52522.7965     0.37398E+00 
  52555.0586     0.37113E+00 
  52587.3208     0.36830E+00 
  52619.5830     0.36547E+00 
  52651.8451     0.36266E+00 
  52684.1073     0.35986E+00 
  52716.3694     0.35708E+00 
  52748.6316     0.35431E+00 
  52780.8938     0.35155E+00 
  52813.1559     0.34881E+00 
  52845.4181     0.34608E+00 
  52877.6802     0.34336E+00 
  52909.9424     0.34066E+00 
  52942.2046     0.33797E+00 
  52974.4667     0.33529E+00 
  53006.7289     0.33263E+00 
  53038.9910     0.32998E+00 
  53071.2532     0.32734E+00 
  53103.5154     0.32472E+00 
  53135.7775     0.32211E+00 
  53168.0397     0.31951E+00 
  53200.3018     0.31693E+00 
  53232.5640     0.31436E+00 
  53264.8262     0.31181E+00 
  53297.0883     0.30926E+00 
  53329.3505     0.30673E+00 
  53361.6126     0.30422E+00 
  53393.8748     0.30172E+00 
  53426.1370     0.29923E+00 
  53458.3991     0.29675E+00 
  53490.6613     0.29429E+00 
  53522.9234     0.29184E+00 
  53555.1856     0.28940E+00 
  53587.4478     0.28698E+00 
  53619.7099     0.28457E+00 
  53651.9721     0.28217E+00 
  53684.2342     0.27979E+00 
  53716.4964     0.27742E+00 
  53748.7586     0.27506E+00 
  53781.0207     0.27272E+00 
  53813.2829     0.27039E+00 
  53845.5450     0.26807E+00 
  53877.8072     0.26577E+00 
  53910.0694     0.26348E+00 
  53942.3315     0.26120E+00 
  53974.5937     0.25894E+00 
  54006.8558     0.25668E+00 
  54039.1180     0.25444E+00 
  54071.3802     0.25222E+00 
  54103.6423     0.25001E+00 
  54135.9045     0.24781E+00 
  54168.1666     0.24562E+00 
  54200.4288     0.24344E+00 
  54232.6910     0.24128E+00 
  54264.9531     0.23913E+00 
  54297.2153     0.23700E+00 
  54329.4774     0.23487E+00 
  54361.7396     0.23276E+00 
  54394.0018     0.23066E+00 
  54426.2639     0.22858E+00 
  54458.5261     0.22651E+00 
  54490.7882     0.22445E+00 
  54523.0504     0.22240E+00 
  54555.3126     0.22036E+00 
  54587.5747     0.21834E+00 
  54619.8369     0.21633E+00 
  54652.0990     0.21433E+00 
  54684.3612     0.21235E+00 
  54716.6234     0.21037E+00 
  54748.8855     0.20841E+00 
  54781.1477     0.20646E+00 
  54813.4098     0.20453E+00 
  54845.6720     0.20260E+00 
  54877.9342     0.20069E+00 
  54910.1963     0.19879E+00 
  54942.4585     0.19690E+00 
  54974.7206     0.19503E+00 
  55006.9828     0.19316E+00 
  55039.2450     0.19131E+00 
  55071.5071     0.18947E+00 
  55103.7693     0.18764E+00 
  55136.0314     0.18582E+00 
  55168.2936     0.18402E+00 
  55200.5558     0.18223E+00 
  55232.8179     0.18045E+00 
  55265.0801     0.17868E+00 
  55297.3422     0.17692E+00 
  55329.6044     0.17517E+00 
  55361.8666     0.17344E+00 
  55394.1287     0.17171E+00 
  55426.3909     0.17000E+00 
  55458.6530     0.16830E+00 
  55490.9152     0.16661E+00 
  55523.1774     0.16494E+00 
  55555.4395     0.16327E+00 
  55587.7017     0.16162E+00 
  55619.9638     0.15997E+00 
  55652.2260     0.15834E+00 
  55684.4882     0.15672E+00 
  55716.7503     0.15511E+00 
  55749.0125     0.15351E+00 
  55781.2746     0.15192E+00 
  55813.5368     0.15034E+00 
  55845.7990     0.14878E+00 
  55878.0611     0.14722E+00 
  55910.3233     0.14568E+00 
  55942.5854     0.14414E+00 
  55974.8476     0.14262E+00 
  56007.1098     0.14111E+00 
  56039.3719     0.13960E+00 
  56071.6341     0.13811E+00 
  56103.8962     0.13663E+00 
  56136.1584     0.13516E+00 
  56168.4206     0.13370E+00 
  56200.6827     0.13225E+00 
  56232.9449     0.13081E+00 
  56265.2070     0.12939E+00 
  56297.4692     0.12797E+00 
  56329.7314     0.12656E+00 
  56361.9935     0.12516E+00 
  56394.2557     0.12377E+00 
  56426.5178     0.12240E+00 
  56458.7800     0.12103E+00 
  56491.0422     0.11967E+00 
  56523.3043     0.11832E+00 
  56555.5665     0.11698E+00 
  56587.8286     0.11566E+00 
  56620.0908     0.11434E+00 
  56652.3530     0.11303E+00 
  56684.6151     0.11173E+00 
  56716.8773     0.11044E+00 
  56749.1394     0.10916E+00 
  56781.4016     0.10789E+00 
  56813.6638     0.10663E+00 
  56845.9259     0.10538E+00 
  56878.1881     0.10414E+00 
  56910.4502     0.10291E+00 
  56942.7124     0.10169E+00 
  56974.9746     0.10048E+00 
  57007.2367     0.99272E-01 
  57039.4989     0.98078E-01 
  57071.7610     0.96893E-01 
  57104.0232     0.95717E-01 
  57136.2854     0.94550E-01 
  57168.5475     0.93392E-01 
  57200.8097     0.92243E-01 
  57233.0718     0.91103E-01 
  57265.3340     0.89972E-01 
  57297.5962     0.88850E-01 
  57329.8583     0.87737E-01 
  57362.1205     0.86632E-01 
  57394.3826     0.85537E-01 
  57426.6448     0.84450E-01 
  57458.9070     0.83371E-01 
  57491.1691     0.82302E-01 
  57523.4313     0.81241E-01 
  57555.6934     0.80188E-01 
  57587.9556     0.79144E-01 
  57620.2178     0.78109E-01 
  57652.4799     0.77081E-01 
  57684.7421     0.76063E-01 
  57717.0042     0.75052E-01 
  57749.2664     0.74050E-01 
  57781.5286     0.73056E-01 
  57813.7907     0.72071E-01 
  57846.0529     0.71093E-01 
  57878.3150     0.70124E-01 
  57910.5772     0.69163E-01 
  57942.8394     0.68209E-01 
  57975.1015     0.67264E-01 
  58007.3637     0.66327E-01 
  58039.6258     0.65398E-01 
  58071.8880     0.64476E-01 
  58104.1502     0.63563E-01 
  58136.4123     0.62657E-01 
  58168.6745     0.61759E-01 
  58200.9366     0.60869E-01 
  58233.1988     0.59986E-01 
  58265.4610     0.59111E-01 
  58297.7231     0.58244E-01 
  58329.9853     0.57385E-01 
  58362.2474     0.56533E-01 
  58394.5096     0.55688E-01 
  58426.7718     0.54851E-01 
  58459.0339     0.54021E-01 
  58491.2961     0.53199E-01 
  58523.5582     0.52384E-01 
  58555.8204     0.51577E-01 
  58588.0826     0.50777E-01 
  58620.3447     0.49984E-01 
  58652.6069     0.49198E-01 
  58684.8690     0.48419E-01 
  58717.1312     0.47648E-01 
  58749.3934     0.46884E-01 
  58781.6555     0.46127E-01 
  58813.9177     0.45377E-01 
  58846.1798     0.44634E-01 
  58878.4420     0.43898E-01 
  58910.7042     0.43169E-01 
  58942.9663     0.42447E-01 
  58975.2285     0.41732E-01 
  59007.4906     0.41024E-01 
  59039.7528     0.40322E-01 
  59072.0150     0.39628E-01 
  59104.2771     0.38940E-01 
  59136.5393     0.38259E-01 
  59168.8014     0.37585E-01 
  59201.0636     0.36918E-01 
  59233.3258     0.36257E-01 
  59265.5879     0.35603E-01 
  59297.8501     0.34955E-01 
  59330.1122     0.34314E-01 
  59362.3744     0.33680E-01 
  59394.6366     0.33052E-01 
  59426.8987     0.32431E-01 
  59459.1609     0.31816E-01 
  59491.4230     0.31208E-01 
  59523.6852     0.30606E-01 
  59555.9474     0.30011E-01 
  59588.2095     0.29422E-01 
  59620.4717     0.28840E-01 
  59652.7338     0.28264E-01 
  59684.9960     0.27694E-01 
  59717.2582     0.27130E-01 
  59749.5203     0.26573E-01 
  59781.7825     0.26023E-01 
  59814.0446     0.25478E-01 
  59846.3068     0.24940E-01 
  59878.5690     0.24408E-01 
  59910.8311     0.23882E-01 
  59943.0933     0.23362E-01 
  59975.3554     0.22849E-01 
  60007.6176     0.22342E-01 
  60039.8798     0.21841E-01 
  60072.1419     0.21346E-01 
  60104.4041     0.20857E-01 
  60136.6662     0.20374E-01 
  60168.9284     0.19898E-01 
  60201.1906     0.19427E-01 
  60233.4527     0.18963E-01 
  60265.7149     0.18505E-01 
  60297.9770     0.18053E-01 
  60330.2392     0.17607E-01 
  60362.5014     0.17166E-01 
  60394.7635     0.16732E-01 
  60427.0257     0.16304E-01 
  60459.2878     0.15882E-01 
  60491.5500     0.15466E-01 
  60523.8122     0.15056E-01 
  60556.0743     0.14652E-01 
  60588.3365     0.14254E-01 
  60620.5986     0.13862E-01 
  60652.8608     0.13476E-01 
  60685.1230     0.13097E-01 
  60717.3851     0.12723E-01 
  60749.6473     0.12355E-01 
  60781.9094     0.11993E-01 
  60814.1716     0.11637E-01 
  60846.4338     0.11287E-01 
  60878.6959     0.10943E-01 
  60910.9581     0.10605E-01 
  60943.2202     0.10273E-01 
  60975.4824     0.99470E-02 
  61007.7446     0.96271E-02 
  61040.0067     0.93133E-02 
  61072.2689     0.90055E-02 
  61104.5310     0.87037E-02 
  61136.7932     0.84080E-02 
  61169.0554     0.81184E-02 
  61201.3175     0.78349E-02 
  61233.5797     0.75574E-02 
  61265.8418     0.72861E-02 
  61298.1040     0.70209E-02 
  61330.3662     0.67619E-02 
  61362.6283     0.65090E-02 
  61394.8905     0.62623E-02 
  61427.1526     0.60218E-02 
  61459.4148     0.57875E-02 
  61491.6770     0.55595E-02 
  61523.9391     0.53377E-02 
  61556.2013     0.51222E-02 
  61588.4634     0.49130E-02 
  61620.7256     0.47101E-02 
  61652.9878     0.45136E-02 
  61685.2499     0.43236E-02 
  61717.5121     0.41399E-02 
  61749.7742     0.39627E-02 
  61782.0364     0.37919E-02 
  61814.2986     0.36277E-02 
  61846.5607     0.34701E-02 
  61878.8229     0.33190E-02 
  61911.0850     0.31746E-02 
  61943.3472     0.30368E-02 
  61975.6094     0.29057E-02 
  62007.8715     0.27814E-02 
  62040.1337     0.26639E-02 
  62072.3958     0.25532E-02 
  62104.6580     0.24494E-02 
  62136.9202     0.23525E-02 
  62169.1823     0.22626E-02 
  62201.4445     0.21797E-02 
  62233.7066     0.21039E-02 
  62265.9688     0.20353E-02 
  62298.2310     0.19738E-02 
  62330.4931     0.19196E-02 
  62362.7553     0.18727E-02 
  62395.0174     0.18332E-02 
  62427.2796     0.18011E-02 
  62459.5418     0.17765E-02 
  62491.8039     0.17595E-02 
  62524.0661     0.17501E-02 
  62556.3282     0.17484E-02 
  62588.5904     0.17545E-02 
  62620.8526     0.17684E-02 
  62653.1147     0.17902E-02 
  62685.3769     0.18201E-02 
  62717.6390     0.18580E-02 
  62749.9012     0.19041E-02 
  62782.1634     0.19584E-02 
  62814.4255     0.20211E-02 
  62846.6877     0.20922E-02 
  62878.9498     0.21718E-02 
  62911.2120     0.22600E-02 
  62943.4742     0.23570E-02 
  62975.7363     0.24627E-02 
  63007.9985     0.25773E-02 
  63040.2606     0.27010E-02 
  63072.5228     0.28337E-02 
  63104.7850     0.29757E-02 
  63137.0471     0.31270E-02 
  63169.3093     0.32878E-02 
  63201.5714     0.34581E-02 
  63233.8336     0.36381E-02 
  63266.0958     0.38278E-02 
  63298.3579     0.40275E-02 
  63330.6201     0.42373E-02 
  63362.8822     0.44572E-02 
  63395.1444     0.46875E-02 
  63427.4066     0.49282E-02 
  63459.6687     0.51795E-02 
  63491.9309     0.54415E-02 
  63524.1930     0.57144E-02 
  63556.4552     0.59984E-02 
  63588.7174     0.62935E-02 
  63620.9795     0.65999E-02 
  63653.2417     0.69178E-02 
  63685.5038     0.72474E-02 
  63717.7660     0.75888E-02 
  63750.0282     0.79422E-02 
  63782.2903     0.83078E-02 
  63814.5525     0.86857E-02 
  63846.8146     0.90761E-02 
  63879.0768     0.94792E-02 
  63911.3390     0.98952E-02 
  63943.6011     0.10324E-01 
  63975.8633     0.10767E-01 
  64008.1254     0.11222E-01 
  64040.3876     0.11692E-01 
  64072.6498     0.12175E-01 
  64104.9119     0.12673E-01 
  64137.1741     0.13185E-01 
  64169.4362     0.13711E-01 
  64201.6984     0.14252E-01 
  64233.9606     0.14808E-01 
  64266.2227     0.15380E-01 
  64298.4849     0.15967E-01 
  64330.7470     0.16569E-01 
  64363.0092     0.17188E-01 
  64395.2714     0.17822E-01 
  64427.5335     0.18474E-01 
  64459.7957     0.19142E-01 
  64492.0578     0.19827E-01 
  64524.3200     0.20529E-01 
  64556.5822     0.21249E-01 
  64588.8443     0.21986E-01 
  64621.1065     0.22742E-01 
  64653.3686     0.23516E-01 
  64685.6308     0.24309E-01 
  64717.8930     0.25121E-01 
  64750.1551     0.25953E-01 
  64782.4173     0.26804E-01 
  64814.6794     0.27675E-01 
  64846.9416     0.28566E-01 
  64879.2038     0.29478E-01 
  64911.4659     0.30411E-01 
  64943.7281     0.31366E-01 
  64975.9902     0.32342E-01 
  65008.2524     0.33340E-01 
  65040.5146     0.34361E-01 
  65072.7767     0.35405E-01 
  65105.0389     0.36471E-01 
  65137.3010     0.37562E-01 
  65169.5632     0.38676E-01 
  65201.8254     0.39815E-01 
  65234.0875     0.40978E-01 
  65266.3497     0.42167E-01 
  65298.6118     0.43381E-01 
  65330.8740     0.44622E-01 
  65363.1362     0.45889E-01 
  65395.3983     0.47183E-01 
  65427.6605     0.48504E-01 
  65459.9226     0.49854E-01 
  65492.1848     0.51231E-01 
  65524.4470     0.52638E-01 
  65556.7091     0.54074E-01 
  65588.9713     0.55539E-01 
  65621.2334     0.57035E-01 
  65653.4956     0.58562E-01 
  65685.7578     0.60120E-01 
  65718.0199     0.61710E-01 
  65750.2821     0.63333E-01 
  65782.5442     0.64988E-01 
  65814.8064     0.66678E-01 
  65847.0686     0.68401E-01 
  65879.3307     0.70158E-01 
  65911.5929     0.71952E-01 
  65943.8550     0.73780E-01 
  65976.1172     0.75646E-01 
  66008.3794     0.77548E-01 
  66040.6415     0.79488E-01 
  66072.9037     0.81467E-01 
  66105.1658     0.83484E-01 
  66137.4280     0.85541E-01 
  66169.6902     0.87639E-01 
  66201.9523     0.89777E-01 
  66234.2145     0.91957E-01 
  66266.4766     0.94179E-01 
  66298.7388     0.96444E-01 
  66331.0010     0.98753E-01 
  66363.2631     0.10111E+00 
  66395.5253     0.10350E+00 
  66427.7874     0.10595E+00 
  66460.0496     0.10844E+00 
  66492.3118     0.11098E+00 
  66524.5739     0.11357E+00 
  66556.8361     0.11620E+00 
  66589.0982     0.11889E+00 
  66621.3604     0.12162E+00 
  66653.6226     0.12441E+00 
  66685.8847     0.12725E+00 
  66718.1469     0.13015E+00 
  66750.4090     0.13309E+00 
  66782.6712     0.13610E+00 
  66814.9334     0.13915E+00 
  66847.1955     0.14227E+00 
  66879.4577     0.14544E+00 
  66911.7198     0.14867E+00 
  66943.9820     0.15196E+00 
  66976.2442     0.15531E+00 
  67008.5063     0.15873E+00 
  67040.7685     0.16220E+00 
  67073.0306     0.16574E+00 
  67105.2928     0.16934E+00 
  67137.5550     0.17301E+00 
  67169.8171     0.17674E+00 
  67202.0793     0.18054E+00 
  67234.3414     0.18441E+00 
  67266.6036     0.18835E+00 
  67298.8658     0.19236E+00 
  67331.1279     0.19645E+00 
  67363.3901     0.20060E+00 
  67395.6522     0.20483E+00 
  67427.9144     0.20913E+00 
  67460.1766     0.21351E+00 
  67492.4387     0.21797E+00 
  67524.7009     0.22251E+00 
  67556.9630     0.22712E+00 
  67589.2252     0.23182E+00 
  67621.4874     0.23660E+00 
  67653.7495     0.24146E+00 
  67686.0117     0.24640E+00 
  67718.2738     0.25144E+00 
  67750.5360     0.25656E+00 
  67782.7982     0.26177E+00 
  67815.0603     0.26706E+00 
  67847.3225     0.27245E+00 
  67879.5846     0.27793E+00 
  67911.8468     0.28351E+00 
  67944.1090     0.28918E+00 
  67976.3711     0.29495E+00 
  68008.6333     0.30081E+00 
  68040.8954     0.30678E+00 
  68073.1576     0.31284E+00 
  68105.4198     0.31901E+00 
  68137.6819     0.32528E+00 
  68169.9441     0.33166E+00 
  68202.2062     0.33814E+00 
  68234.4684     0.34473E+00 
  68266.7306     0.35143E+00 
  68298.9927     0.35824E+00 
  68331.2549     0.36516E+00 
  68363.5170     0.37220E+00 
  68395.7792     0.37936E+00 
  68428.0414     0.38663E+00 
  68460.3035     0.39402E+00 
  68492.5657     0.40153E+00 
  68524.8278     0.40916E+00 
  68557.0900     0.41692E+00 
  68589.3522     0.42480E+00 
  68621.6143     0.43281E+00 
  68653.8765     0.44095E+00 
  68686.1386     0.44922E+00 
  68718.4008     0.45762E+00 
  68750.6630     0.46616E+00 
  68782.9251     0.47483E+00 
  68815.1873     0.48364E+00 
  68847.4494     0.49258E+00 
  68879.7116     0.50167E+00 
  68911.9738     0.51091E+00 
  68944.2359     0.52028E+00 
  68976.4981     0.52981E+00 
  69008.7602     0.53948E+00 
  69041.0224     0.54930E+00 
  69073.2846     0.55927E+00 
  69105.5467     0.56940E+00 
  69137.8089     0.57968E+00 
  69170.0710     0.59012E+00 
  69202.3332     0.60073E+00 
  69234.5954     0.61149E+00 
  69266.8575     0.62241E+00 
  69299.1197     0.63351E+00 
  69331.3818     0.64476E+00 
  69363.6440     0.65619E+00 
  69395.9062     0.66779E+00 
  69428.1683     0.67957E+00 
  69460.4305     0.69151E+00 
  69492.6926     0.70364E+00 
  69524.9548     0.71595E+00 
  69557.2170     0.72843E+00 
  69589.4791     0.74110E+00 
  69621.7413     0.75396E+00 
  69654.0034     0.76700E+00 
  69686.2656     0.78024E+00 
  69718.5278     0.79366E+00 
  69750.7899     0.80728E+00 
  69783.0521     0.82110E+00 
  69815.3142     0.83511E+00 
  69847.5764     0.84933E+00 
  69879.8386     0.86375E+00 
  69912.1007     0.87837E+00 
  69944.3629     0.89320E+00 
  69976.6250     0.90823E+00 
  70008.8872     0.92348E+00 
  70041.1494     0.93895E+00 
  70073.4115     0.95462E+00 
  70105.6737     0.97052E+00 
  70137.9358     0.98664E+00 
  70170.1980     0.10030E+01 
  70202.4602     0.10195E+01 
  70234.7223     0.10363E+01 
  70266.9845     0.10533E+01 
  70299.2466     0.10706E+01 
  70331.5088     0.10881E+01 
  70363.7710     0.11058E+01 
  70396.0331     0.11237E+01 
  70428.2953     0.11419E+01 
  70460.5574     0.11604E+01 
  70492.8196     0.11791E+01 
  70525.0818     0.11980E+01 
  70557.3439     0.12172E+01 
  70589.6061     0.12366E+01 
  70621.8682     0.12563E+01 
  70654.1304     0.12762E+01 
  70686.3926     0.12964E+01 
  70718.6547     0.13169E+01 
  70750.9169     0.13376E+01 
  70783.1790     0.13586E+01 
  70815.4412     0.13798E+01 
  70847.7034     0.14013E+01 
  70879.9655     0.14231E+01 
  70912.2277     0.14452E+01 
  70944.4898     0.14675E+01 
  70976.7520     0.14901E+01 
  71009.0142     0.15130E+01 
  71041.2763     0.15362E+01 
  71073.5385     0.15597E+01 
  71105.8006     0.15834E+01 
  71138.0628     0.16075E+01 
  71170.3250     0.16318E+01 
  71202.5871     0.16564E+01 
  71234.8493     0.16814E+01 
  71267.1114     0.17066E+01 
  71299.3736     0.17321E+01 
  71331.6358     0.17579E+01 
  71363.8979     0.17840E+01 
  71396.1601     0.18105E+01 
  71428.4222     0.18372E+01 
  71460.6844     0.18643E+01 
  71492.9466     0.18916E+01 
  71525.2087     0.19193E+01 
  71557.4709     0.19473E+01 
  71589.7330     0.19756E+01 
  71621.9952     0.20042E+01 
  71654.2574     0.20332E+01 
  71686.5195     0.20625E+01 
  71718.7817     0.20921E+01 
  71751.0438     0.21220E+01 
  71783.3060     0.21523E+01 
  71815.5682     0.21829E+01 
  71847.8303     0.22138E+01 
  71880.0925     0.22451E+01 
  71912.3546     0.22767E+01 
  71944.6168     0.23087E+01 
  71976.8790     0.23409E+01 
  72009.1411     0.23736E+01 
  72041.4033     0.24066E+01 
  72073.6654     0.24399E+01 
  72105.9276     0.24736E+01 
  72138.1898     0.25076E+01 
  72170.4519     0.25420E+01 
  72202.7141     0.25767E+01 
  72234.9762     0.26118E+01 
  72267.2384     0.26472E+01 
  72299.5006     0.26831E+01 
  72331.7627     0.27192E+01 
  72364.0249     0.27557E+01 
  72396.2870     0.27926E+01 
  72428.5492     0.28299E+01 
  72460.8114     0.28675E+01 
  72493.0735     0.29055E+01 
  72525.3357     0.29439E+01 
  72557.5978     0.29826E+01 
  72589.8600     0.30217E+01 
