  32262.1600     0.42116E+02 
  32294.4222     0.42623E+02 
  32326.6843     0.43134E+02 
  32358.9465     0.43649E+02 
  32391.2086     0.44169E+02 
  32423.4708     0.44693E+02 
  32455.7330     0.45222E+02 
  32487.9951     0.45755E+02 
  32520.2573     0.46292E+02 
  32552.5194     0.46833E+02 
  32584.7816     0.47379E+02 
  32617.0438     0.47929E+02 
  32649.3059     0.48484E+02 
  32681.5681     0.49043E+02 
  32713.8302     0.49606E+02 
  32746.0924     0.50174E+02 
  32778.3546     0.50746E+02 
  32810.6167     0.51323E+02 
  32842.8789     0.51904E+02 
  32875.1410     0.52489E+02 
  32907.4032     0.53079E+02 
  32939.6654     0.53673E+02 
  32971.9275     0.54271E+02 
  33004.1897     0.54874E+02 
  33036.4518     0.55482E+02 
  33068.7140     0.56094E+02 
  33100.9762     0.56710E+02 
  33133.2383     0.57330E+02 
  33165.5005     0.57955E+02 
  33197.7626     0.58585E+02 
  33230.0248     0.59219E+02 
  33262.2870     0.59857E+02 
  33294.5491     0.60499E+02 
  33326.8113     0.61146E+02 
  33359.0734     0.61798E+02 
  33391.3356     0.62454E+02 
  33423.5978     0.63114E+02 
  33455.8599     0.63778E+02 
  33488.1221     0.64447E+02 
  33520.3842     0.65121E+02 
  33552.6464     0.65798E+02 
  33584.9086     0.66480E+02 
  33617.1707     0.67166E+02 
  33649.4329     0.67857E+02 
  33681.6950     0.68552E+02 
  33713.9572     0.69251E+02 
  33746.2194     0.69955E+02 
  33778.4815     0.70662E+02 
  33810.7437     0.71374E+02 
  33843.0058     0.72091E+02 
  33875.2680     0.72811E+02 
  33907.5302     0.73536E+02 
  33939.7923     0.74265E+02 
  33972.0545     0.74998E+02 
  34004.3166     0.75736E+02 
  34036.5788     0.76477E+02 
  34068.8410     0.77223E+02 
  34101.1031     0.77973E+02 
  34133.3653     0.78727E+02 
  34165.6274     0.79485E+02 
  34197.8896     0.80247E+02 
  34230.1518     0.81013E+02 
  34262.4139     0.81783E+02 
  34294.6761     0.82557E+02 
  34326.9382     0.83336E+02 
  34359.2004     0.84118E+02 
  34391.4626     0.84904E+02 
  34423.7247     0.85694E+02 
  34455.9869     0.86488E+02 
  34488.2490     0.87286E+02 
  34520.5112     0.88087E+02 
  34552.7734     0.88893E+02 
  34585.0355     0.89702E+02 
  34617.2977     0.90515E+02 
  34649.5598     0.91332E+02 
  34681.8220     0.92153E+02 
  34714.0842     0.92977E+02 
  34746.3463     0.93805E+02 
  34778.6085     0.94636E+02 
  34810.8706     0.95471E+02 
  34843.1328     0.96310E+02 
  34875.3950     0.97152E+02 
  34907.6571     0.97998E+02 
  34939.9193     0.98847E+02 
  34972.1814     0.99700E+02 
  35004.4436     0.10056E+03 
  35036.7058     0.10142E+03 
  35068.9679     0.10228E+03 
  35101.2301     0.10314E+03 
  35133.4922     0.10401E+03 
  35165.7544     0.10489E+03 
  35198.0166     0.10576E+03 
  35230.2787     0.10664E+03 
  35262.5409     0.10752E+03 
  35294.8030     0.10841E+03 
  35327.0652     0.10930E+03 
  35359.3274     0.11019E+03 
  35391.5895     0.11108E+03 
  35423.8517     0.11198E+03 
  35456.1138     0.11288E+03 
  35488.3760     0.11378E+03 
  35520.6382     0.11468E+03 
  35552.9003     0.11559E+03 
  35585.1625     0.11650E+03 
  35617.4246     0.11742E+03 
  35649.6868     0.11833E+03 
  35681.9490     0.11925E+03 
  35714.2111     0.12017E+03 
  35746.4733     0.12110E+03 
  35778.7354     0.12202E+03 
  35810.9976     0.12295E+03 
  35843.2598     0.12388E+03 
  35875.5219     0.12481E+03 
  35907.7841     0.12575E+03 
  35940.0462     0.12668E+03 
  35972.3084     0.12762E+03 
  36004.5706     0.12857E+03 
  36036.8327     0.12951E+03 
  36069.0949     0.13045E+03 
  36101.3570     0.13140E+03 
  36133.6192     0.13235E+03 
  36165.8814     0.13330E+03 
  36198.1435     0.13425E+03 
  36230.4057     0.13521E+03 
  36262.6678     0.13616E+03 
  36294.9300     0.13712E+03 
  36327.1922     0.13808E+03 
  36359.4543     0.13904E+03 
  36391.7165     0.14000E+03 
  36423.9786     0.14096E+03 
  36456.2408     0.14193E+03 
  36488.5030     0.14289E+03 
  36520.7651     0.14386E+03 
  36553.0273     0.14483E+03 
  36585.2894     0.14580E+03 
  36617.5516     0.14677E+03 
  36649.8138     0.14774E+03 
  36682.0759     0.14871E+03 
  36714.3381     0.14968E+03 
  36746.6002     0.15066E+03 
  36778.8624     0.15163E+03 
  36811.1246     0.15260E+03 
  36843.3867     0.15358E+03 
  36875.6489     0.15455E+03 
  36907.9110     0.15553E+03 
  36940.1732     0.15651E+03 
  36972.4354     0.15748E+03 
  37004.6975     0.15846E+03 
  37036.9597     0.15944E+03 
  37069.2218     0.16041E+03 
  37101.4840     0.16139E+03 
  37133.7462     0.16237E+03 
  37166.0083     0.16335E+03 
  37198.2705     0.16432E+03 
  37230.5326     0.16530E+03 
  37262.7948     0.16628E+03 
  37295.0570     0.16725E+03 
  37327.3191     0.16823E+03 
  37359.5813     0.16920E+03 
  37391.8434     0.17018E+03 
  37424.1056     0.17115E+03 
  37456.3678     0.17212E+03 
  37488.6299     0.17310E+03 
  37520.8921     0.17407E+03 
  37553.1542     0.17504E+03 
  37585.4164     0.17601E+03 
  37617.6786     0.17698E+03 
  37649.9407     0.17794E+03 
  37682.2029     0.17891E+03 
  37714.4650     0.17988E+03 
  37746.7272     0.18084E+03 
  37778.9894     0.18180E+03 
  37811.2515     0.18276E+03 
  37843.5137     0.18372E+03 
  37875.7758     0.18468E+03 
  37908.0380     0.18564E+03 
  37940.3002     0.18659E+03 
  37972.5623     0.18754E+03 
  38004.8245     0.18849E+03 
  38037.0866     0.18944E+03 
  38069.3488     0.19039E+03 
  38101.6110     0.19133E+03 
  38133.8731     0.19228E+03 
  38166.1353     0.19322E+03 
  38198.3974     0.19416E+03 
  38230.6596     0.19509E+03 
  38262.9218     0.19602E+03 
  38295.1839     0.19696E+03 
  38327.4461     0.19788E+03 
  38359.7082     0.19881E+03 
  38391.9704     0.19973E+03 
  38424.2326     0.20065E+03 
  38456.4947     0.20157E+03 
  38488.7569     0.20248E+03 
  38521.0190     0.20340E+03 
  38553.2812     0.20430E+03 
  38585.5434     0.20521E+03 
  38617.8055     0.20611E+03 
  38650.0677     0.20701E+03 
  38682.3298     0.20791E+03 
  38714.5920     0.20880E+03 
  38746.8542     0.20969E+03 
  38779.1163     0.21057E+03 
  38811.3785     0.21145E+03 
  38843.6406     0.21233E+03 
  38875.9028     0.21321E+03 
  38908.1650     0.21408E+03 
  38940.4271     0.21494E+03 
  38972.6893     0.21580E+03 
  39004.9514     0.21666E+03 
  39037.2136     0.21752E+03 
  39069.4758     0.21837E+03 
  39101.7379     0.21921E+03 
  39134.0001     0.22006E+03 
  39166.2622     0.22089E+03 
  39198.5244     0.22173E+03 
  39230.7866     0.22256E+03 
  39263.0487     0.22338E+03 
  39295.3109     0.22420E+03 
  39327.5730     0.22501E+03 
  39359.8352     0.22583E+03 
  39392.0974     0.22663E+03 
  39424.3595     0.22743E+03 
  39456.6217     0.22823E+03 
  39488.8838     0.22902E+03 
  39521.1460     0.22980E+03 
  39553.4082     0.23059E+03 
  39585.6703     0.23136E+03 
  39617.9325     0.23213E+03 
  39650.1946     0.23290E+03 
  39682.4568     0.23366E+03 
  39714.7190     0.23441E+03 
  39746.9811     0.23516E+03 
  39779.2433     0.23590E+03 
  39811.5054     0.23664E+03 
  39843.7676     0.23737E+03 
  39876.0298     0.23810E+03 
  39908.2919     0.23882E+03 
  39940.5541     0.23954E+03 
  39972.8162     0.24025E+03 
  40005.0784     0.24095E+03 
  40037.3406     0.24165E+03 
  40069.6027     0.24234E+03 
  40101.8649     0.24303E+03 
  40134.1270     0.24371E+03 
  40166.3892     0.24438E+03 
  40198.6514     0.24505E+03 
  40230.9135     0.24571E+03 
  40263.1757     0.24636E+03 
  40295.4378     0.24701E+03 
  40327.7000     0.24765E+03 
  40359.9622     0.24829E+03 
  40392.2243     0.24892E+03 
  40424.4865     0.24954E+03 
  40456.7486     0.25016E+03 
  40489.0108     0.25077E+03 
  40521.2730     0.25137E+03 
  40553.5351     0.25197E+03 
  40585.7973     0.25256E+03 
  40618.0594     0.25314E+03 
  40650.3216     0.25372E+03 
  40682.5838     0.25428E+03 
  40714.8459     0.25485E+03 
  40747.1081     0.25540E+03 
  40779.3702     0.25595E+03 
  40811.6324     0.25649E+03 
  40843.8946     0.25703E+03 
  40876.1567     0.25755E+03 
  40908.4189     0.25807E+03 
  40940.6810     0.25859E+03 
  40972.9432     0.25909E+03 
  41005.2054     0.25959E+03 
  41037.4675     0.26008E+03 
  41069.7297     0.26056E+03 
  41101.9918     0.26104E+03 
  41134.2540     0.26151E+03 
  41166.5162     0.26197E+03 
  41198.7783     0.26242E+03 
  41231.0405     0.26287E+03 
  41263.3026     0.26331E+03 
  41295.5648     0.26374E+03 
  41327.8270     0.26416E+03 
  41360.0891     0.26458E+03 
  41392.3513     0.26499E+03 
  41424.6134     0.26539E+03 
  41456.8756     0.26578E+03 
  41489.1378     0.26617E+03 
  41521.3999     0.26655E+03 
  41553.6621     0.26692E+03 
  41585.9242     0.26728E+03 
  41618.1864     0.26763E+03 
  41650.4486     0.26798E+03 
  41682.7107     0.26832E+03 
  41714.9729     0.26865E+03 
  41747.2350     0.26898E+03 
  41779.4972     0.26929E+03 
  41811.7594     0.26960E+03 
  41844.0215     0.26990E+03 
  41876.2837     0.27019E+03 
  41908.5458     0.27047E+03 
  41940.8080     0.27075E+03 
  41973.0702     0.27102E+03 
  42005.3323     0.27128E+03 
  42037.5945     0.27153E+03 
  42069.8566     0.27177E+03 
  42102.1188     0.27201E+03 
  42134.3810     0.27224E+03 
  42166.6431     0.27246E+03 
  42198.9053     0.27267E+03 
  42231.1674     0.27287E+03 
  42263.4296     0.27307E+03 
  42295.6918     0.27325E+03 
  42327.9539     0.27343E+03 
  42360.2161     0.27361E+03 
  42392.4782     0.27377E+03 
  42424.7404     0.27392E+03 
  42457.0026     0.27407E+03 
  42489.2647     0.27421E+03 
  42521.5269     0.27434E+03 
  42553.7890     0.27446E+03 
  42586.0512     0.27458E+03 
  42618.3134     0.27469E+03 
  42650.5755     0.27478E+03 
  42682.8377     0.27488E+03 
  42715.0998     0.27496E+03 
  42747.3620     0.27503E+03 
  42779.6242     0.27510E+03 
  42811.8863     0.27516E+03 
  42844.1485     0.27521E+03 
  42876.4106     0.27525E+03 
  42908.6728     0.27528E+03 
  42940.9350     0.27531E+03 
  42973.1971     0.27533E+03 
  43005.4593     0.27534E+03 
  43037.7214     0.27534E+03 
  43069.9836     0.27533E+03 
  43102.2458     0.27532E+03 
  43134.5079     0.27530E+03 
  43166.7701     0.27527E+03 
  43199.0322     0.27523E+03 
  43231.2944     0.27519E+03 
  43263.5566     0.27513E+03 
  43295.8187     0.27507E+03 
  43328.0809     0.27500E+03 
  43360.3430     0.27492E+03 
  43392.6052     0.27484E+03 
  43424.8674     0.27475E+03 
  43457.1295     0.27465E+03 
  43489.3917     0.27454E+03 
  43521.6538     0.27442E+03 
  43553.9160     0.27430E+03 
  43586.1782     0.27417E+03 
  43618.4403     0.27403E+03 
  43650.7025     0.27388E+03 
  43682.9646     0.27372E+03 
  43715.2268     0.27356E+03 
  43747.4890     0.27339E+03 
  43779.7511     0.27321E+03 
  43812.0133     0.27303E+03 
  43844.2754     0.27284E+03 
  43876.5376     0.27264E+03 
  43908.7998     0.27243E+03 
  43941.0619     0.27221E+03 
  43973.3241     0.27199E+03 
  44005.5862     0.27176E+03 
  44037.8484     0.27152E+03 
  44070.1106     0.27128E+03 
  44102.3727     0.27103E+03 
  44134.6349     0.27077E+03 
  44166.8970     0.27050E+03 
  44199.1592     0.27023E+03 
  44231.4214     0.26995E+03 
  44263.6835     0.26966E+03 
  44295.9457     0.26937E+03 
  44328.2078     0.26906E+03 
  44360.4700     0.26876E+03 
  44392.7322     0.26844E+03 
  44424.9943     0.26812E+03 
  44457.2565     0.26779E+03 
  44489.5186     0.26745E+03 
  44521.7808     0.26711E+03 
  44554.0430     0.26676E+03 
  44586.3051     0.26640E+03 
  44618.5673     0.26604E+03 
  44650.8294     0.26566E+03 
  44683.0916     0.26529E+03 
  44715.3538     0.26490E+03 
  44747.6159     0.26451E+03 
  44779.8781     0.26412E+03 
  44812.1402     0.26371E+03 
  44844.4024     0.26330E+03 
  44876.6646     0.26289E+03 
  44908.9267     0.26246E+03 
  44941.1889     0.26203E+03 
  44973.4510     0.26160E+03 
  45005.7132     0.26116E+03 
  45037.9754     0.26071E+03 
  45070.2375     0.26026E+03 
  45102.4997     0.25980E+03 
  45134.7618     0.25933E+03 
  45167.0240     0.25886E+03 
  45199.2862     0.25838E+03 
  45231.5483     0.25790E+03 
  45263.8105     0.25741E+03 
  45296.0726     0.25691E+03 
  45328.3348     0.25641E+03 
  45360.5970     0.25590E+03 
  45392.8591     0.25539E+03 
  45425.1213     0.25487E+03 
  45457.3834     0.25435E+03 
  45489.6456     0.25382E+03 
  45521.9078     0.25328E+03 
  45554.1699     0.25274E+03 
  45586.4321     0.25220E+03 
  45618.6942     0.25165E+03 
  45650.9564     0.25109E+03 
  45683.2186     0.25053E+03 
  45715.4807     0.24996E+03 
  45747.7429     0.24939E+03 
  45780.0050     0.24881E+03 
  45812.2672     0.24823E+03 
  45844.5294     0.24764E+03 
  45876.7915     0.24705E+03 
  45909.0537     0.24645E+03 
  45941.3158     0.24585E+03 
  45973.5780     0.24524E+03 
  46005.8402     0.24463E+03 
  46038.1023     0.24401E+03 
  46070.3645     0.24339E+03 
  46102.6266     0.24277E+03 
  46134.8888     0.24214E+03 
  46167.1510     0.24150E+03 
  46199.4131     0.24086E+03 
  46231.6753     0.24022E+03 
  46263.9374     0.23957E+03 
  46296.1996     0.23892E+03 
  46328.4618     0.23826E+03 
  46360.7239     0.23760E+03 
  46392.9861     0.23694E+03 
  46425.2482     0.23627E+03 
  46457.5104     0.23560E+03 
  46489.7726     0.23492E+03 
  46522.0347     0.23424E+03 
  46554.2969     0.23356E+03 
  46586.5590     0.23287E+03 
  46618.8212     0.23218E+03 
  46651.0834     0.23148E+03 
  46683.3455     0.23078E+03 
  46715.6077     0.23008E+03 
  46747.8698     0.22937E+03 
  46780.1320     0.22866E+03 
  46812.3942     0.22795E+03 
  46844.6563     0.22723E+03 
  46876.9185     0.22651E+03 
  46909.1806     0.22579E+03 
  46941.4428     0.22506E+03 
  46973.7050     0.22433E+03 
  47005.9671     0.22360E+03 
  47038.2293     0.22286E+03 
  47070.4914     0.22212E+03 
  47102.7536     0.22138E+03 
  47135.0158     0.22064E+03 
  47167.2779     0.21989E+03 
  47199.5401     0.21914E+03 
  47231.8022     0.21839E+03 
  47264.0644     0.21763E+03 
  47296.3266     0.21687E+03 
  47328.5887     0.21611E+03 
  47360.8509     0.21535E+03 
  47393.1130     0.21458E+03 
  47425.3752     0.21381E+03 
  47457.6374     0.21304E+03 
  47489.8995     0.21227E+03 
  47522.1617     0.21149E+03 
  47554.4238     0.21071E+03 
  47586.6860     0.20993E+03 
  47618.9482     0.20915E+03 
  47651.2103     0.20837E+03 
  47683.4725     0.20758E+03 
  47715.7346     0.20679E+03 
  47747.9968     0.20600E+03 
  47780.2590     0.20521E+03 
  47812.5211     0.20442E+03 
  47844.7833     0.20362E+03 
  47877.0454     0.20282E+03 
  47909.3076     0.20203E+03 
  47941.5698     0.20122E+03 
  47973.8319     0.20042E+03 
  48006.0941     0.19962E+03 
  48038.3562     0.19881E+03 
  48070.6184     0.19801E+03 
  48102.8806     0.19720E+03 
  48135.1427     0.19639E+03 
  48167.4049     0.19558E+03 
  48199.6670     0.19477E+03 
  48231.9292     0.19395E+03 
  48264.1914     0.19314E+03 
  48296.4535     0.19232E+03 
  48328.7157     0.19151E+03 
  48360.9778     0.19069E+03 
  48393.2400     0.18987E+03 
  48425.5022     0.18905E+03 
  48457.7643     0.18823E+03 
  48490.0265     0.18741E+03 
  48522.2886     0.18659E+03 
  48554.5508     0.18577E+03 
  48586.8130     0.18495E+03 
  48619.0751     0.18412E+03 
  48651.3373     0.18330E+03 
  48683.5994     0.18247E+03 
  48715.8616     0.18165E+03 
  48748.1238     0.18082E+03 
  48780.3859     0.18000E+03 
  48812.6481     0.17917E+03 
  48844.9102     0.17834E+03 
  48877.1724     0.17751E+03 
  48909.4346     0.17669E+03 
  48941.6967     0.17586E+03 
  48973.9589     0.17503E+03 
  49006.2210     0.17420E+03 
  49038.4832     0.17338E+03 
  49070.7454     0.17255E+03 
  49103.0075     0.17172E+03 
  49135.2697     0.17089E+03 
  49167.5318     0.17007E+03 
  49199.7940     0.16924E+03 
  49232.0562     0.16841E+03 
  49264.3183     0.16758E+03 
  49296.5805     0.16676E+03 
  49328.8426     0.16593E+03 
  49361.1048     0.16510E+03 
  49393.3670     0.16428E+03 
  49425.6291     0.16345E+03 
  49457.8913     0.16263E+03 
  49490.1534     0.16180E+03 
  49522.4156     0.16098E+03 
  49554.6778     0.16015E+03 
  49586.9399     0.15933E+03 
  49619.2021     0.15851E+03 
  49651.4642     0.15769E+03 
  49683.7264     0.15687E+03 
  49715.9886     0.15605E+03 
  49748.2507     0.15523E+03 
  49780.5129     0.15441E+03 
  49812.7750     0.15359E+03 
  49845.0372     0.15277E+03 
  49877.2994     0.15196E+03 
  49909.5615     0.15114E+03 
  49941.8237     0.15033E+03 
  49974.0858     0.14951E+03 
  50006.3480     0.14870E+03 
  50038.6102     0.14789E+03 
  50070.8723     0.14708E+03 
  50103.1345     0.14627E+03 
  50135.3966     0.14546E+03 
  50167.6588     0.14466E+03 
  50199.9210     0.14385E+03 
  50232.1831     0.14305E+03 
  50264.4453     0.14225E+03 
  50296.7074     0.14145E+03 
  50328.9696     0.14065E+03 
  50361.2318     0.13985E+03 
  50393.4939     0.13905E+03 
  50425.7561     0.13825E+03 
  50458.0182     0.13746E+03 
  50490.2804     0.13667E+03 
  50522.5426     0.13588E+03 
  50554.8047     0.13509E+03 
  50587.0669     0.13430E+03 
  50619.3290     0.13351E+03 
  50651.5912     0.13273E+03 
  50683.8534     0.13194E+03 
  50716.1155     0.13116E+03 
  50748.3777     0.13038E+03 
  50780.6398     0.12960E+03 
  50812.9020     0.12883E+03 
  50845.1642     0.12805E+03 
  50877.4263     0.12728E+03 
  50909.6885     0.12651E+03 
  50941.9506     0.12574E+03 
  50974.2128     0.12497E+03 
  51006.4750     0.12420E+03 
  51038.7371     0.12344E+03 
  51070.9993     0.12268E+03 
  51103.2614     0.12192E+03 
  51135.5236     0.12116E+03 
  51167.7858     0.12041E+03 
  51200.0479     0.11965E+03 
  51232.3101     0.11890E+03 
  51264.5722     0.11815E+03 
  51296.8344     0.11740E+03 
  51329.0966     0.11666E+03 
  51361.3587     0.11591E+03 
  51393.6209     0.11517E+03 
  51425.8830     0.11443E+03 
  51458.1452     0.11370E+03 
  51490.4074     0.11296E+03 
  51522.6695     0.11223E+03 
  51554.9317     0.11150E+03 
  51587.1938     0.11077E+03 
  51619.4560     0.11004E+03 
  51651.7182     0.10932E+03 
  51683.9803     0.10860E+03 
  51716.2425     0.10788E+03 
  51748.5046     0.10716E+03 
  51780.7668     0.10645E+03 
  51813.0290     0.10574E+03 
  51845.2911     0.10503E+03 
  51877.5533     0.10432E+03 
  51909.8154     0.10361E+03 
  51942.0776     0.10291E+03 
  51974.3398     0.10221E+03 
  52006.6019     0.10151E+03 
  52038.8641     0.10082E+03 
  52071.1262     0.10012E+03 
  52103.3884     0.99434E+02 
  52135.6506     0.98746E+02 
  52167.9127     0.98060E+02 
  52200.1749     0.97377E+02 
  52232.4370     0.96696E+02 
  52264.6992     0.96018E+02 
  52296.9614     0.95343E+02 
  52329.2235     0.94670E+02 
  52361.4857     0.93999E+02 
  52393.7478     0.93331E+02 
  52426.0100     0.92666E+02 
  52458.2722     0.92003E+02 
  52490.5343     0.91343E+02 
  52522.7965     0.90686E+02 
  52555.0586     0.90031E+02 
  52587.3208     0.89378E+02 
  52619.5830     0.88729E+02 
  52651.8451     0.88082E+02 
  52684.1073     0.87437E+02 
  52716.3694     0.86795E+02 
  52748.6316     0.86156E+02 
  52780.8938     0.85520E+02 
  52813.1559     0.84886E+02 
  52845.4181     0.84254E+02 
  52877.6802     0.83626E+02 
  52909.9424     0.83000E+02 
  52942.2046     0.82377E+02 
  52974.4667     0.81756E+02 
  53006.7289     0.81138E+02 
  53038.9910     0.80523E+02 
  53071.2532     0.79911E+02 
  53103.5154     0.79301E+02 
  53135.7775     0.78694E+02 
  53168.0397     0.78090E+02 
  53200.3018     0.77488E+02 
  53232.5640     0.76890E+02 
  53264.8262     0.76293E+02 
  53297.0883     0.75700E+02 
  53329.3505     0.75109E+02 
  53361.6126     0.74521E+02 
  53393.8748     0.73936E+02 
  53426.1370     0.73354E+02 
  53458.3991     0.72774E+02 
  53490.6613     0.72197E+02 
  53522.9234     0.71623E+02 
  53555.1856     0.71051E+02 
  53587.4478     0.70483E+02 
  53619.7099     0.69917E+02 
  53651.9721     0.69353E+02 
  53684.2342     0.68793E+02 
  53716.4964     0.68235E+02 
  53748.7586     0.67680E+02 
  53781.0207     0.67128E+02 
  53813.2829     0.66578E+02 
  53845.5450     0.66031E+02 
  53877.8072     0.65487E+02 
  53910.0694     0.64946E+02 
  53942.3315     0.64408E+02 
  53974.5937     0.63872E+02 
  54006.8558     0.63339E+02 
  54039.1180     0.62808E+02 
  54071.3802     0.62281E+02 
  54103.6423     0.61756E+02 
  54135.9045     0.61234E+02 
  54168.1666     0.60715E+02 
  54200.4288     0.60198E+02 
  54232.6910     0.59684E+02 
  54264.9531     0.59173E+02 
  54297.2153     0.58664E+02 
  54329.4774     0.58159E+02 
  54361.7396     0.57656E+02 
  54394.0018     0.57155E+02 
  54426.2639     0.56658E+02 
  54458.5261     0.56163E+02 
  54490.7882     0.55671E+02 
  54523.0504     0.55181E+02 
  54555.3126     0.54695E+02 
  54587.5747     0.54211E+02 
  54619.8369     0.53729E+02 
  54652.0990     0.53251E+02 
  54684.3612     0.52775E+02 
  54716.6234     0.52301E+02 
  54748.8855     0.51831E+02 
  54781.1477     0.51363E+02 
  54813.4098     0.50898E+02 
  54845.6720     0.50435E+02 
  54877.9342     0.49975E+02 
  54910.1963     0.49518E+02 
  54942.4585     0.49063E+02 
  54974.7206     0.48611E+02 
  55006.9828     0.48162E+02 
  55039.2450     0.47715E+02 
  55071.5071     0.47271E+02 
  55103.7693     0.46829E+02 
  55136.0314     0.46390E+02 
  55168.2936     0.45954E+02 
  55200.5558     0.45520E+02 
  55232.8179     0.45089E+02 
  55265.0801     0.44661E+02 
  55297.3422     0.44235E+02 
  55329.6044     0.43812E+02 
  55361.8666     0.43391E+02 
  55394.1287     0.42973E+02 
  55426.3909     0.42557E+02 
  55458.6530     0.42144E+02 
  55490.9152     0.41733E+02 
  55523.1774     0.41325E+02 
  55555.4395     0.40920E+02 
  55587.7017     0.40517E+02 
  55619.9638     0.40116E+02 
  55652.2260     0.39719E+02 
  55684.4882     0.39323E+02 
  55716.7503     0.38930E+02 
  55749.0125     0.38540E+02 
  55781.2746     0.38152E+02 
  55813.5368     0.37766E+02 
  55845.7990     0.37383E+02 
  55878.0611     0.37003E+02 
  55910.3233     0.36625E+02 
  55942.5854     0.36249E+02 
  55974.8476     0.35876E+02 
  56007.1098     0.35505E+02 
  56039.3719     0.35136E+02 
  56071.6341     0.34770E+02 
  56103.8962     0.34407E+02 
  56136.1584     0.34046E+02 
  56168.4206     0.33687E+02 
  56200.6827     0.33331E+02 
  56232.9449     0.32977E+02 
  56265.2070     0.32625E+02 
  56297.4692     0.32276E+02 
  56329.7314     0.31929E+02 
  56361.9935     0.31584E+02 
  56394.2557     0.31242E+02 
  56426.5178     0.30902E+02 
  56458.7800     0.30564E+02 
  56491.0422     0.30229E+02 
  56523.3043     0.29896E+02 
  56555.5665     0.29565E+02 
  56587.8286     0.29236E+02 
  56620.0908     0.28910E+02 
  56652.3530     0.28586E+02 
  56684.6151     0.28265E+02 
  56716.8773     0.27945E+02 
  56749.1394     0.27628E+02 
  56781.4016     0.27313E+02 
  56813.6638     0.27000E+02 
  56845.9259     0.26690E+02 
  56878.1881     0.26382E+02 
  56910.4502     0.26075E+02 
  56942.7124     0.25772E+02 
  56974.9746     0.25470E+02 
  57007.2367     0.25170E+02 
  57039.4989     0.24873E+02 
  57071.7610     0.24578E+02 
  57104.0232     0.24284E+02 
  57136.2854     0.23994E+02 
  57168.5475     0.23705E+02 
  57200.8097     0.23418E+02 
  57233.0718     0.23133E+02 
  57265.3340     0.22851E+02 
  57297.5962     0.22571E+02 
  57329.8583     0.22292E+02 
  57362.1205     0.22016E+02 
  57394.3826     0.21742E+02 
  57426.6448     0.21470E+02 
  57458.9070     0.21200E+02 
  57491.1691     0.20932E+02 
  57523.4313     0.20666E+02 
  57555.6934     0.20402E+02 
  57587.9556     0.20140E+02 
  57620.2178     0.19880E+02 
  57652.4799     0.19622E+02 
  57684.7421     0.19366E+02 
  57717.0042     0.19112E+02 
  57749.2664     0.18860E+02 
  57781.5286     0.18610E+02 
  57813.7907     0.18363E+02 
  57846.0529     0.18116E+02 
  57878.3150     0.17872E+02 
  57910.5772     0.17630E+02 
  57942.8394     0.17390E+02 
  57975.1015     0.17152E+02 
  58007.3637     0.16915E+02 
  58039.6258     0.16681E+02 
  58071.8880     0.16448E+02 
  58104.1502     0.16218E+02 
  58136.4123     0.15989E+02 
  58168.6745     0.15762E+02 
  58200.9366     0.15537E+02 
  58233.1988     0.15314E+02 
  58265.4610     0.15093E+02 
  58297.7231     0.14873E+02 
  58329.9853     0.14656E+02 
  58362.2474     0.14440E+02 
  58394.5096     0.14226E+02 
  58426.7718     0.14014E+02 
  58459.0339     0.13803E+02 
  58491.2961     0.13595E+02 
  58523.5582     0.13388E+02 
  58555.8204     0.13183E+02 
  58588.0826     0.12980E+02 
  58620.3447     0.12779E+02 
  58652.6069     0.12579E+02 
  58684.8690     0.12381E+02 
  58717.1312     0.12185E+02 
  58749.3934     0.11991E+02 
  58781.6555     0.11799E+02 
  58813.9177     0.11608E+02 
  58846.1798     0.11419E+02 
  58878.4420     0.11231E+02 
  58910.7042     0.11046E+02 
  58942.9663     0.10862E+02 
  58975.2285     0.10680E+02 
  59007.4906     0.10499E+02 
  59039.7528     0.10320E+02 
  59072.0150     0.10143E+02 
  59104.2771     0.99678E+01 
  59136.5393     0.97941E+01 
  59168.8014     0.96220E+01 
  59201.0636     0.94516E+01 
  59233.3258     0.92829E+01 
  59265.5879     0.91159E+01 
  59297.8501     0.89505E+01 
  59330.1122     0.87868E+01 
  59362.3744     0.86247E+01 
  59394.6366     0.84643E+01 
  59426.8987     0.83055E+01 
  59459.1609     0.81483E+01 
  59491.4230     0.79928E+01 
  59523.6852     0.78389E+01 
  59555.9474     0.76866E+01 
  59588.2095     0.75360E+01 
  59620.4717     0.73869E+01 
  59652.7338     0.72395E+01 
  59684.9960     0.70937E+01 
  59717.2582     0.69495E+01 
  59749.5203     0.68069E+01 
  59781.7825     0.66659E+01 
  59814.0446     0.65265E+01 
  59846.3068     0.63887E+01 
  59878.5690     0.62525E+01 
  59910.8311     0.61179E+01 
  59943.0933     0.59848E+01 
  59975.3554     0.58534E+01 
  60007.6176     0.57235E+01 
  60039.8798     0.55952E+01 
  60072.1419     0.54685E+01 
  60104.4041     0.53434E+01 
  60136.6662     0.52199E+01 
  60168.9284     0.50979E+01 
  60201.1906     0.49775E+01 
  60233.4527     0.48587E+01 
  60265.7149     0.47415E+01 
  60297.9770     0.46258E+01 
  60330.2392     0.45117E+01 
  60362.5014     0.43992E+01 
  60394.7635     0.42883E+01 
  60427.0257     0.41789E+01 
  60459.2878     0.40711E+01 
  60491.5500     0.39649E+01 
  60523.8122     0.38603E+01 
  60556.0743     0.37572E+01 
  60588.3365     0.36557E+01 
  60620.5986     0.35558E+01 
  60652.8608     0.34575E+01 
  60685.1230     0.33608E+01 
  60717.3851     0.32656E+01 
  60749.6473     0.31721E+01 
  60781.9094     0.30801E+01 
  60814.1716     0.29898E+01 
  60846.4338     0.29010E+01 
  60878.6959     0.28138E+01 
  60910.9581     0.27283E+01 
  60943.2202     0.26443E+01 
  60975.4824     0.25620E+01 
  61007.7446     0.24812E+01 
  61040.0067     0.24021E+01 
  61072.2689     0.23246E+01 
  61104.5310     0.22488E+01 
  61136.7932     0.21746E+01 
  61169.0554     0.21020E+01 
  61201.3175     0.20311E+01 
  61233.5797     0.19618E+01 
  61265.8418     0.18942E+01 
  61298.1040     0.18283E+01 
  61330.3662     0.17640E+01 
  61362.6283     0.17014E+01 
  61394.8905     0.16405E+01 
  61427.1526     0.15813E+01 
  61459.4148     0.15238E+01 
  61491.6770     0.14680E+01 
  61523.9391     0.14139E+01 
  61556.2013     0.13616E+01 
  61588.4634     0.13110E+01 
  61620.7256     0.12622E+01 
  61652.9878     0.12151E+01 
  61685.2499     0.11698E+01 
  61717.5121     0.11262E+01 
  61749.7742     0.10845E+01 
  61782.0364     0.10446E+01 
  61814.2986     0.10064E+01 
  61846.5607     0.97014E+00 
  61878.8229     0.93569E+00 
  61911.0850     0.90309E+00 
  61943.3472     0.87236E+00 
  61975.6094     0.84351E+00 
  62007.8715     0.81655E+00 
  62040.1337     0.79151E+00 
  62072.3958     0.76839E+00 
  62104.6580     0.74720E+00 
  62136.9202     0.72798E+00 
  62169.1823     0.71072E+00 
  62201.4445     0.69545E+00 
  62233.7066     0.68219E+00 
  62265.9688     0.67095E+00 
  62298.2310     0.66175E+00 
  62330.4931     0.65462E+00 
  62362.7553     0.64955E+00 
  62395.0174     0.64659E+00 
  62427.2796     0.64575E+00 
  62459.5418     0.64704E+00 
  62491.8039     0.65049E+00 
  62524.0661     0.65612E+00 
  62556.3282     0.66395E+00 
  62588.5904     0.67401E+00 
  62620.8526     0.68631E+00 
  62653.1147     0.70089E+00 
  62685.3769     0.71775E+00 
  62717.6390     0.73694E+00 
  62749.9012     0.75847E+00 
  62782.1634     0.78237E+00 
  62814.4255     0.80867E+00 
  62846.6877     0.83739E+00 
  62878.9498     0.86856E+00 
  62911.2120     0.90220E+00 
  62943.4742     0.93835E+00 
  62975.7363     0.97704E+00 
  63007.9985     0.10183E+01 
  63040.2606     0.10621E+01 
  63072.5228     0.11086E+01 
  63104.7850     0.11577E+01 
  63137.0471     0.12096E+01 
  63169.3093     0.12641E+01 
  63201.5714     0.13214E+01 
  63233.8336     0.13815E+01 
  63266.0958     0.14444E+01 
  63298.3579     0.15102E+01 
  63330.6201     0.15789E+01 
  63362.8822     0.16505E+01 
  63395.1444     0.17251E+01 
  63427.4066     0.18027E+01 
  63459.6687     0.18834E+01 
  63491.9309     0.19671E+01 
  63524.1930     0.20540E+01 
  63556.4552     0.21441E+01 
  63588.7174     0.22373E+01 
  63620.9795     0.23339E+01 
  63653.2417     0.24337E+01 
  63685.5038     0.25369E+01 
  63717.7660     0.26435E+01 
  63750.0282     0.27535E+01 
  63782.2903     0.28670E+01 
  63814.5525     0.29841E+01 
  63846.8146     0.31047E+01 
  63879.0768     0.32290E+01 
  63911.3390     0.33570E+01 
  63943.6011     0.34887E+01 
  63975.8633     0.36242E+01 
  64008.1254     0.37635E+01 
  64040.3876     0.39067E+01 
  64072.6498     0.40539E+01 
  64104.9119     0.42052E+01 
  64137.1741     0.43604E+01 
  64169.4362     0.45199E+01 
  64201.6984     0.46835E+01 
  64233.9606     0.48513E+01 
  64266.2227     0.50235E+01 
  64298.4849     0.52000E+01 
  64330.7470     0.53810E+01 
  64363.0092     0.55665E+01 
  64395.2714     0.57565E+01 
  64427.5335     0.59512E+01 
  64459.7957     0.61506E+01 
  64492.0578     0.63548E+01 
  64524.3200     0.65638E+01 
  64556.5822     0.67777E+01 
  64588.8443     0.69966E+01 
  64621.1065     0.72206E+01 
  64653.3686     0.74497E+01 
  64685.6308     0.76840E+01 
  64717.8930     0.79236E+01 
  64750.1551     0.81686E+01 
  64782.4173     0.84191E+01 
  64814.6794     0.86750E+01 
  64846.9416     0.89366E+01 
  64879.2038     0.92039E+01 
  64911.4659     0.94769E+01 
  64943.7281     0.97558E+01 
  64975.9902     0.10041E+02 
  65008.2524     0.10332E+02 
  65040.5146     0.10629E+02 
  65072.7767     0.10932E+02 
  65105.0389     0.11242E+02 
  65137.3010     0.11558E+02 
  65169.5632     0.11880E+02 
  65201.8254     0.12209E+02 
  65234.0875     0.12545E+02 
  65266.3497     0.12888E+02 
  65298.6118     0.13237E+02 
  65330.8740     0.13594E+02 
  65363.1362     0.13957E+02 
  65395.3983     0.14328E+02 
  65427.6605     0.14707E+02 
  65459.9226     0.15092E+02 
  65492.1848     0.15485E+02 
  65524.4470     0.15886E+02 
  65556.7091     0.16295E+02 
  65588.9713     0.16711E+02 
  65621.2334     0.17136E+02 
  65653.4956     0.17568E+02 
  65685.7578     0.18009E+02 
  65718.0199     0.18459E+02 
  65750.2821     0.18916E+02 
  65782.5442     0.19383E+02 
  65814.8064     0.19858E+02 
  65847.0686     0.20342E+02 
  65879.3307     0.20835E+02 
  65911.5929     0.21337E+02 
  65943.8550     0.21848E+02 
  65976.1172     0.22369E+02 
  66008.3794     0.22899E+02 
  66040.6415     0.23439E+02 
  66072.9037     0.23989E+02 
  66105.1658     0.24549E+02 
  66137.4280     0.25118E+02 
  66169.6902     0.25698E+02 
  66201.9523     0.26289E+02 
  66234.2145     0.26890E+02 
  66266.4766     0.27502E+02 
  66298.7388     0.28124E+02 
  66331.0010     0.28758E+02 
  66363.2631     0.29402E+02 
  66395.5253     0.30058E+02 
  66427.7874     0.30726E+02 
  66460.0496     0.31405E+02 
  66492.3118     0.32096E+02 
  66524.5739     0.32799E+02 
  66556.8361     0.33514E+02 
  66589.0982     0.34241E+02 
  66621.3604     0.34981E+02 
  66653.6226     0.35734E+02 
  66685.8847     0.36499E+02 
  66718.1469     0.37278E+02 
  66750.4090     0.38069E+02 
  66782.6712     0.38874E+02 
  66814.9334     0.39693E+02 
  66847.1955     0.40525E+02 
  66879.4577     0.41371E+02 
  66911.7198     0.42232E+02 
  66943.9820     0.43106E+02 
  66976.2442     0.43995E+02 
  67008.5063     0.44899E+02 
  67040.7685     0.45818E+02 
  67073.0306     0.46752E+02 
  67105.2928     0.47701E+02 
  67137.5550     0.48666E+02 
  67169.8171     0.49647E+02 
  67202.0793     0.50643E+02 
  67234.3414     0.51656E+02 
  67266.6036     0.52685E+02 
  67298.8658     0.53730E+02 
  67331.1279     0.54792E+02 
  67363.3901     0.55872E+02 
  67395.6522     0.56968E+02 
  67427.9144     0.58082E+02 
  67460.1766     0.59214E+02 
  67492.4387     0.60364E+02 
  67524.7009     0.61532E+02 
  67556.9630     0.62718E+02 
  67589.2252     0.63923E+02 
  67621.4874     0.65146E+02 
  67653.7495     0.66389E+02 
  67686.0117     0.67651E+02 
  67718.2738     0.68933E+02 
  67750.5360     0.70234E+02 
  67782.7982     0.71556E+02 
  67815.0603     0.72898E+02 
  67847.3225     0.74260E+02 
  67879.5846     0.75644E+02 
  67911.8468     0.77048E+02 
  67944.1090     0.78474E+02 
  67976.3711     0.79921E+02 
  68008.6333     0.81391E+02 
  68040.8954     0.82882E+02 
  68073.1576     0.84396E+02 
  68105.4198     0.85932E+02 
  68137.6819     0.87492E+02 
  68169.9441     0.89074E+02 
  68202.2062     0.90680E+02 
  68234.4684     0.92310E+02 
  68266.7306     0.93964E+02 
  68298.9927     0.95643E+02 
  68331.2549     0.97345E+02 
  68363.5170     0.99073E+02 
  68395.7792     0.10083E+03 
  68428.0414     0.10260E+03 
  68460.3035     0.10441E+03 
  68492.5657     0.10624E+03 
  68524.8278     0.10810E+03 
  68557.0900     0.10998E+03 
  68589.3522     0.11189E+03 
  68621.6143     0.11383E+03 
  68653.8765     0.11579E+03 
  68686.1386     0.11779E+03 
  68718.4008     0.11981E+03 
  68750.6630     0.12186E+03 
  68782.9251     0.12393E+03 
  68815.1873     0.12604E+03 
  68847.4494     0.12818E+03 
  68879.7116     0.13035E+03 
  68911.9738     0.13254E+03 
  68944.2359     0.13477E+03 
  68976.4981     0.13703E+03 
  69008.7602     0.13932E+03 
  69041.0224     0.14164E+03 
  69073.2846     0.14399E+03 
  69105.5467     0.14637E+03 
  69137.8089     0.14879E+03 
  69170.0710     0.15124E+03 
  69202.3332     0.15372E+03 
  69234.5954     0.15624E+03 
  69266.8575     0.15879E+03 
  69299.1197     0.16137E+03 
  69331.3818     0.16399E+03 
  69363.6440     0.16664E+03 
  69395.9062     0.16933E+03 
  69428.1683     0.17205E+03 
  69460.4305     0.17481E+03 
  69492.6926     0.17760E+03 
  69524.9548     0.18043E+03 
  69557.2170     0.18330E+03 
  69589.4791     0.18620E+03 
  69621.7413     0.18914E+03 
  69654.0034     0.19212E+03 
  69686.2656     0.19514E+03 
  69718.5278     0.19820E+03 
  69750.7899     0.20129E+03 
  69783.0521     0.20443E+03 
  69815.3142     0.20760E+03 
  69847.5764     0.21082E+03 
  69879.8386     0.21407E+03 
  69912.1007     0.21737E+03 
  69944.3629     0.22070E+03 
  69976.6250     0.22408E+03 
  70008.8872     0.22750E+03 
  70041.1494     0.23096E+03 
  70073.4115     0.23446E+03 
  70105.6737     0.23801E+03 
  70137.9358     0.24160E+03 
  70170.1980     0.24523E+03 
  70202.4602     0.24891E+03 
  70234.7223     0.25263E+03 
  70266.9845     0.25640E+03 
  70299.2466     0.26021E+03 
  70331.5088     0.26406E+03 
  70363.7710     0.26796E+03 
  70396.0331     0.27191E+03 
  70428.2953     0.27591E+03 
  70460.5574     0.27995E+03 
  70492.8196     0.28404E+03 
  70525.0818     0.28817E+03 
  70557.3439     0.29235E+03 
  70589.6061     0.29659E+03 
  70621.8682     0.30087E+03 
  70654.1304     0.30520E+03 
  70686.3926     0.30957E+03 
  70718.6547     0.31400E+03 
  70750.9169     0.31848E+03 
  70783.1790     0.32301E+03 
  70815.4412     0.32759E+03 
  70847.7034     0.33222E+03 
  70879.9655     0.33690E+03 
  70912.2277     0.34163E+03 
  70944.4898     0.34642E+03 
  70976.7520     0.35126E+03 
  71009.0142     0.35615E+03 
  71041.2763     0.36109E+03 
  71073.5385     0.36609E+03 
  71105.8006     0.37114E+03 
  71138.0628     0.37625E+03 
  71170.3250     0.38141E+03 
  71202.5871     0.38662E+03 
  71234.8493     0.39190E+03 
  71267.1114     0.39722E+03 
  71299.3736     0.40260E+03 
  71331.6358     0.40804E+03 
  71363.8979     0.41354E+03 
  71396.1601     0.41909E+03 
  71428.4222     0.42470E+03 
  71460.6844     0.43036E+03 
  71492.9466     0.43609E+03 
  71525.2087     0.44187E+03 
  71557.4709     0.44771E+03 
  71589.7330     0.45361E+03 
  71621.9952     0.45957E+03 
  71654.2574     0.46559E+03 
  71686.5195     0.47166E+03 
  71718.7817     0.47780E+03 
  71751.0438     0.48400E+03 
  71783.3060     0.49026E+03 
  71815.5682     0.49658E+03 
  71847.8303     0.50296E+03 
  71880.0925     0.50940E+03 
  71912.3546     0.51590E+03 
  71944.6168     0.52247E+03 
  71976.8790     0.52910E+03 
  72009.1411     0.53579E+03 
  72041.4033     0.54254E+03 
  72073.6654     0.54936E+03 
  72105.9276     0.55624E+03 
  72138.1898     0.56318E+03 
  72170.4519     0.57019E+03 
  72202.7141     0.57726E+03 
  72234.9762     0.58440E+03 
  72267.2384     0.59160E+03 
  72299.5006     0.59886E+03 
  72331.7627     0.60620E+03 
  72364.0249     0.61359E+03 
  72396.2870     0.62105E+03 
  72428.5492     0.62858E+03 
  72460.8114     0.63617E+03 
  72493.0735     0.64383E+03 
  72525.3357     0.65155E+03 
  72557.5978     0.65935E+03 
  72589.8600     0.66720E+03 
