  32262.1600     0.64859E+01 
  32294.4222     0.65679E+01 
  32326.6843     0.66506E+01 
  32358.9465     0.67340E+01 
  32391.2086     0.68181E+01 
  32423.4708     0.69029E+01 
  32455.7330     0.69884E+01 
  32487.9951     0.70746E+01 
  32520.2573     0.71615E+01 
  32552.5194     0.72491E+01 
  32584.7816     0.73374E+01 
  32617.0438     0.74263E+01 
  32649.3059     0.75160E+01 
  32681.5681     0.76064E+01 
  32713.8302     0.76974E+01 
  32746.0924     0.77892E+01 
  32778.3546     0.78816E+01 
  32810.6167     0.79748E+01 
  32842.8789     0.80686E+01 
  32875.1410     0.81631E+01 
  32907.4032     0.82583E+01 
  32939.6654     0.83542E+01 
  32971.9275     0.84508E+01 
  33004.1897     0.85481E+01 
  33036.4518     0.86460E+01 
  33068.7140     0.87447E+01 
  33100.9762     0.88440E+01 
  33133.2383     0.89440E+01 
  33165.5005     0.90447E+01 
  33197.7626     0.91460E+01 
  33230.0248     0.92480E+01 
  33262.2870     0.93507E+01 
  33294.5491     0.94541E+01 
  33326.8113     0.95581E+01 
  33359.0734     0.96628E+01 
  33391.3356     0.97681E+01 
  33423.5978     0.98741E+01 
  33455.8599     0.99808E+01 
  33488.1221     0.10088E+02 
  33520.3842     0.10196E+02 
  33552.6464     0.10305E+02 
  33584.9086     0.10414E+02 
  33617.1707     0.10524E+02 
  33649.4329     0.10634E+02 
  33681.6950     0.10746E+02 
  33713.9572     0.10857E+02 
  33746.2194     0.10970E+02 
  33778.4815     0.11083E+02 
  33810.7437     0.11196E+02 
  33843.0058     0.11311E+02 
  33875.2680     0.11426E+02 
  33907.5302     0.11541E+02 
  33939.7923     0.11657E+02 
  33972.0545     0.11774E+02 
  34004.3166     0.11891E+02 
  34036.5788     0.12009E+02 
  34068.8410     0.12127E+02 
  34101.1031     0.12246E+02 
  34133.3653     0.12366E+02 
  34165.6274     0.12486E+02 
  34197.8896     0.12607E+02 
  34230.1518     0.12728E+02 
  34262.4139     0.12850E+02 
  34294.6761     0.12972E+02 
  34326.9382     0.13095E+02 
  34359.2004     0.13219E+02 
  34391.4626     0.13342E+02 
  34423.7247     0.13467E+02 
  34455.9869     0.13592E+02 
  34488.2490     0.13717E+02 
  34520.5112     0.13843E+02 
  34552.7734     0.13970E+02 
  34585.0355     0.14097E+02 
  34617.2977     0.14224E+02 
  34649.5598     0.14352E+02 
  34681.8220     0.14481E+02 
  34714.0842     0.14610E+02 
  34746.3463     0.14739E+02 
  34778.6085     0.14869E+02 
  34810.8706     0.14999E+02 
  34843.1328     0.15130E+02 
  34875.3950     0.15261E+02 
  34907.6571     0.15392E+02 
  34939.9193     0.15524E+02 
  34972.1814     0.15657E+02 
  35004.4436     0.15789E+02 
  35036.7058     0.15923E+02 
  35068.9679     0.16056E+02 
  35101.2301     0.16190E+02 
  35133.4922     0.16324E+02 
  35165.7544     0.16459E+02 
  35198.0166     0.16594E+02 
  35230.2787     0.16729E+02 
  35262.5409     0.16865E+02 
  35294.8030     0.17001E+02 
  35327.0652     0.17137E+02 
  35359.3274     0.17274E+02 
  35391.5895     0.17410E+02 
  35423.8517     0.17548E+02 
  35456.1138     0.17685E+02 
  35488.3760     0.17823E+02 
  35520.6382     0.17961E+02 
  35552.9003     0.18099E+02 
  35585.1625     0.18238E+02 
  35617.4246     0.18376E+02 
  35649.6868     0.18515E+02 
  35681.9490     0.18654E+02 
  35714.2111     0.18794E+02 
  35746.4733     0.18933E+02 
  35778.7354     0.19073E+02 
  35810.9976     0.19213E+02 
  35843.2598     0.19353E+02 
  35875.5219     0.19494E+02 
  35907.7841     0.19634E+02 
  35940.0462     0.19775E+02 
  35972.3084     0.19915E+02 
  36004.5706     0.20056E+02 
  36036.8327     0.20197E+02 
  36069.0949     0.20338E+02 
  36101.3570     0.20479E+02 
  36133.6192     0.20621E+02 
  36165.8814     0.20762E+02 
  36198.1435     0.20903E+02 
  36230.4057     0.21045E+02 
  36262.6678     0.21186E+02 
  36294.9300     0.21328E+02 
  36327.1922     0.21469E+02 
  36359.4543     0.21611E+02 
  36391.7165     0.21752E+02 
  36423.9786     0.21894E+02 
  36456.2408     0.22036E+02 
  36488.5030     0.22177E+02 
  36520.7651     0.22318E+02 
  36553.0273     0.22460E+02 
  36585.2894     0.22601E+02 
  36617.5516     0.22742E+02 
  36649.8138     0.22884E+02 
  36682.0759     0.23025E+02 
  36714.3381     0.23166E+02 
  36746.6002     0.23307E+02 
  36778.8624     0.23447E+02 
  36811.1246     0.23588E+02 
  36843.3867     0.23728E+02 
  36875.6489     0.23869E+02 
  36907.9110     0.24009E+02 
  36940.1732     0.24149E+02 
  36972.4354     0.24289E+02 
  37004.6975     0.24428E+02 
  37036.9597     0.24568E+02 
  37069.2218     0.24707E+02 
  37101.4840     0.24846E+02 
  37133.7462     0.24984E+02 
  37166.0083     0.25123E+02 
  37198.2705     0.25261E+02 
  37230.5326     0.25399E+02 
  37262.7948     0.25536E+02 
  37295.0570     0.25674E+02 
  37327.3191     0.25811E+02 
  37359.5813     0.25947E+02 
  37391.8434     0.26084E+02 
  37424.1056     0.26220E+02 
  37456.3678     0.26355E+02 
  37488.6299     0.26491E+02 
  37520.8921     0.26625E+02 
  37553.1542     0.26760E+02 
  37585.4164     0.26894E+02 
  37617.6786     0.27028E+02 
  37649.9407     0.27161E+02 
  37682.2029     0.27294E+02 
  37714.4650     0.27427E+02 
  37746.7272     0.27559E+02 
  37778.9894     0.27690E+02 
  37811.2515     0.27821E+02 
  37843.5137     0.27952E+02 
  37875.7758     0.28082E+02 
  37908.0380     0.28212E+02 
  37940.3002     0.28341E+02 
  37972.5623     0.28470E+02 
  38004.8245     0.28598E+02 
  38037.0866     0.28725E+02 
  38069.3488     0.28852E+02 
  38101.6110     0.28979E+02 
  38133.8731     0.29105E+02 
  38166.1353     0.29230E+02 
  38198.3974     0.29355E+02 
  38230.6596     0.29479E+02 
  38262.9218     0.29603E+02 
  38295.1839     0.29726E+02 
  38327.4461     0.29848E+02 
  38359.7082     0.29970E+02 
  38391.9704     0.30091E+02 
  38424.2326     0.30211E+02 
  38456.4947     0.30331E+02 
  38488.7569     0.30450E+02 
  38521.0190     0.30568E+02 
  38553.2812     0.30686E+02 
  38585.5434     0.30803E+02 
  38617.8055     0.30919E+02 
  38650.0677     0.31035E+02 
  38682.3298     0.31150E+02 
  38714.5920     0.31264E+02 
  38746.8542     0.31377E+02 
  38779.1163     0.31490E+02 
  38811.3785     0.31602E+02 
  38843.6406     0.31713E+02 
  38875.9028     0.31823E+02 
  38908.1650     0.31933E+02 
  38940.4271     0.32042E+02 
  38972.6893     0.32149E+02 
  39004.9514     0.32257E+02 
  39037.2136     0.32363E+02 
  39069.4758     0.32468E+02 
  39101.7379     0.32573E+02 
  39134.0001     0.32677E+02 
  39166.2622     0.32780E+02 
  39198.5244     0.32882E+02 
  39230.7866     0.32983E+02 
  39263.0487     0.33084E+02 
  39295.3109     0.33183E+02 
  39327.5730     0.33282E+02 
  39359.8352     0.33380E+02 
  39392.0974     0.33476E+02 
  39424.3595     0.33572E+02 
  39456.6217     0.33667E+02 
  39488.8838     0.33761E+02 
  39521.1460     0.33854E+02 
  39553.4082     0.33947E+02 
  39585.6703     0.34038E+02 
  39617.9325     0.34128E+02 
  39650.1946     0.34218E+02 
  39682.4568     0.34306E+02 
  39714.7190     0.34394E+02 
  39746.9811     0.34480E+02 
  39779.2433     0.34566E+02 
  39811.5054     0.34650E+02 
  39843.7676     0.34734E+02 
  39876.0298     0.34816E+02 
  39908.2919     0.34898E+02 
  39940.5541     0.34978E+02 
  39972.8162     0.35058E+02 
  40005.0784     0.35136E+02 
  40037.3406     0.35214E+02 
  40069.6027     0.35290E+02 
  40101.8649     0.35366E+02 
  40134.1270     0.35440E+02 
  40166.3892     0.35513E+02 
  40198.6514     0.35586E+02 
  40230.9135     0.35657E+02 
  40263.1757     0.35727E+02 
  40295.4378     0.35796E+02 
  40327.7000     0.35864E+02 
  40359.9622     0.35931E+02 
  40392.2243     0.35997E+02 
  40424.4865     0.36062E+02 
  40456.7486     0.36126E+02 
  40489.0108     0.36189E+02 
  40521.2730     0.36250E+02 
  40553.5351     0.36311E+02 
  40585.7973     0.36370E+02 
  40618.0594     0.36429E+02 
  40650.3216     0.36486E+02 
  40682.5838     0.36542E+02 
  40714.8459     0.36597E+02 
  40747.1081     0.36651E+02 
  40779.3702     0.36704E+02 
  40811.6324     0.36756E+02 
  40843.8946     0.36806E+02 
  40876.1567     0.36856E+02 
  40908.4189     0.36904E+02 
  40940.6810     0.36951E+02 
  40972.9432     0.36997E+02 
  41005.2054     0.37042E+02 
  41037.4675     0.37086E+02 
  41069.7297     0.37129E+02 
  41101.9918     0.37171E+02 
  41134.2540     0.37211E+02 
  41166.5162     0.37250E+02 
  41198.7783     0.37289E+02 
  41231.0405     0.37326E+02 
  41263.3026     0.37362E+02 
  41295.5648     0.37396E+02 
  41327.8270     0.37430E+02 
  41360.0891     0.37463E+02 
  41392.3513     0.37494E+02 
  41424.6134     0.37524E+02 
  41456.8756     0.37553E+02 
  41489.1378     0.37581E+02 
  41521.3999     0.37608E+02 
  41553.6621     0.37634E+02 
  41585.9242     0.37658E+02 
  41618.1864     0.37682E+02 
  41650.4486     0.37704E+02 
  41682.7107     0.37725E+02 
  41714.9729     0.37745E+02 
  41747.2350     0.37764E+02 
  41779.4972     0.37782E+02 
  41811.7594     0.37798E+02 
  41844.0215     0.37814E+02 
  41876.2837     0.37828E+02 
  41908.5458     0.37841E+02 
  41940.8080     0.37853E+02 
  41973.0702     0.37864E+02 
  42005.3323     0.37874E+02 
  42037.5945     0.37883E+02 
  42069.8566     0.37890E+02 
  42102.1188     0.37897E+02 
  42134.3810     0.37902E+02 
  42166.6431     0.37906E+02 
  42198.9053     0.37909E+02 
  42231.1674     0.37911E+02 
  42263.4296     0.37912E+02 
  42295.6918     0.37912E+02 
  42327.9539     0.37910E+02 
  42360.2161     0.37908E+02 
  42392.4782     0.37904E+02 
  42424.7404     0.37899E+02 
  42457.0026     0.37893E+02 
  42489.2647     0.37886E+02 
  42521.5269     0.37878E+02 
  42553.7890     0.37869E+02 
  42586.0512     0.37859E+02 
  42618.3134     0.37848E+02 
  42650.5755     0.37835E+02 
  42682.8377     0.37822E+02 
  42715.0998     0.37807E+02 
  42747.3620     0.37792E+02 
  42779.6242     0.37775E+02 
  42811.8863     0.37757E+02 
  42844.1485     0.37738E+02 
  42876.4106     0.37719E+02 
  42908.6728     0.37698E+02 
  42940.9350     0.37676E+02 
  42973.1971     0.37653E+02 
  43005.4593     0.37629E+02 
  43037.7214     0.37603E+02 
  43069.9836     0.37577E+02 
  43102.2458     0.37550E+02 
  43134.5079     0.37522E+02 
  43166.7701     0.37493E+02 
  43199.0322     0.37462E+02 
  43231.2944     0.37431E+02 
  43263.5566     0.37399E+02 
  43295.8187     0.37366E+02 
  43328.0809     0.37331E+02 
  43360.3430     0.37296E+02 
  43392.6052     0.37260E+02 
  43424.8674     0.37223E+02 
  43457.1295     0.37184E+02 
  43489.3917     0.37145E+02 
  43521.6538     0.37105E+02 
  43553.9160     0.37064E+02 
  43586.1782     0.37022E+02 
  43618.4403     0.36979E+02 
  43650.7025     0.36935E+02 
  43682.9646     0.36890E+02 
  43715.2268     0.36844E+02 
  43747.4890     0.36797E+02 
  43779.7511     0.36749E+02 
  43812.0133     0.36701E+02 
  43844.2754     0.36651E+02 
  43876.5376     0.36601E+02 
  43908.7998     0.36549E+02 
  43941.0619     0.36497E+02 
  43973.3241     0.36444E+02 
  44005.5862     0.36390E+02 
  44037.8484     0.36335E+02 
  44070.1106     0.36279E+02 
  44102.3727     0.36223E+02 
  44134.6349     0.36165E+02 
  44166.8970     0.36107E+02 
  44199.1592     0.36047E+02 
  44231.4214     0.35987E+02 
  44263.6835     0.35926E+02 
  44295.9457     0.35865E+02 
  44328.2078     0.35802E+02 
  44360.4700     0.35739E+02 
  44392.7322     0.35675E+02 
  44424.9943     0.35610E+02 
  44457.2565     0.35544E+02 
  44489.5186     0.35477E+02 
  44521.7808     0.35410E+02 
  44554.0430     0.35342E+02 
  44586.3051     0.35273E+02 
  44618.5673     0.35203E+02 
  44650.8294     0.35133E+02 
  44683.0916     0.35062E+02 
  44715.3538     0.34990E+02 
  44747.6159     0.34917E+02 
  44779.8781     0.34844E+02 
  44812.1402     0.34770E+02 
  44844.4024     0.34695E+02 
  44876.6646     0.34619E+02 
  44908.9267     0.34543E+02 
  44941.1889     0.34466E+02 
  44973.4510     0.34389E+02 
  45005.7132     0.34310E+02 
  45037.9754     0.34231E+02 
  45070.2375     0.34152E+02 
  45102.4997     0.34072E+02 
  45134.7618     0.33991E+02 
  45167.0240     0.33909E+02 
  45199.2862     0.33827E+02 
  45231.5483     0.33744E+02 
  45263.8105     0.33660E+02 
  45296.0726     0.33576E+02 
  45328.3348     0.33492E+02 
  45360.5970     0.33406E+02 
  45392.8591     0.33320E+02 
  45425.1213     0.33234E+02 
  45457.3834     0.33147E+02 
  45489.6456     0.33059E+02 
  45521.9078     0.32971E+02 
  45554.1699     0.32882E+02 
  45586.4321     0.32793E+02 
  45618.6942     0.32703E+02 
  45650.9564     0.32613E+02 
  45683.2186     0.32522E+02 
  45715.4807     0.32430E+02 
  45747.7429     0.32338E+02 
  45780.0050     0.32246E+02 
  45812.2672     0.32153E+02 
  45844.5294     0.32059E+02 
  45876.7915     0.31965E+02 
  45909.0537     0.31871E+02 
  45941.3158     0.31776E+02 
  45973.5780     0.31680E+02 
  46005.8402     0.31585E+02 
  46038.1023     0.31488E+02 
  46070.3645     0.31391E+02 
  46102.6266     0.31294E+02 
  46134.8888     0.31197E+02 
  46167.1510     0.31099E+02 
  46199.4131     0.31000E+02 
  46231.6753     0.30901E+02 
  46263.9374     0.30802E+02 
  46296.1996     0.30702E+02 
  46328.4618     0.30602E+02 
  46360.7239     0.30502E+02 
  46392.9861     0.30401E+02 
  46425.2482     0.30300E+02 
  46457.5104     0.30198E+02 
  46489.7726     0.30096E+02 
  46522.0347     0.29994E+02 
  46554.2969     0.29891E+02 
  46586.5590     0.29789E+02 
  46618.8212     0.29685E+02 
  46651.0834     0.29582E+02 
  46683.3455     0.29478E+02 
  46715.6077     0.29374E+02 
  46747.8698     0.29269E+02 
  46780.1320     0.29164E+02 
  46812.3942     0.29059E+02 
  46844.6563     0.28954E+02 
  46876.9185     0.28848E+02 
  46909.1806     0.28743E+02 
  46941.4428     0.28636E+02 
  46973.7050     0.28530E+02 
  47005.9671     0.28423E+02 
  47038.2293     0.28317E+02 
  47070.4914     0.28210E+02 
  47102.7536     0.28102E+02 
  47135.0158     0.27995E+02 
  47167.2779     0.27887E+02 
  47199.5401     0.27779E+02 
  47231.8022     0.27671E+02 
  47264.0644     0.27563E+02 
  47296.3266     0.27454E+02 
  47328.5887     0.27345E+02 
  47360.8509     0.27237E+02 
  47393.1130     0.27127E+02 
  47425.3752     0.27018E+02 
  47457.6374     0.26909E+02 
  47489.8995     0.26799E+02 
  47522.1617     0.26690E+02 
  47554.4238     0.26580E+02 
  47586.6860     0.26470E+02 
  47618.9482     0.26360E+02 
  47651.2103     0.26250E+02 
  47683.4725     0.26140E+02 
  47715.7346     0.26029E+02 
  47747.9968     0.25919E+02 
  47780.2590     0.25808E+02 
  47812.5211     0.25698E+02 
  47844.7833     0.25587E+02 
  47877.0454     0.25476E+02 
  47909.3076     0.25366E+02 
  47941.5698     0.25255E+02 
  47973.8319     0.25144E+02 
  48006.0941     0.25033E+02 
  48038.3562     0.24922E+02 
  48070.6184     0.24811E+02 
  48102.8806     0.24699E+02 
  48135.1427     0.24588E+02 
  48167.4049     0.24477E+02 
  48199.6670     0.24366E+02 
  48231.9292     0.24255E+02 
  48264.1914     0.24143E+02 
  48296.4535     0.24032E+02 
  48328.7157     0.23921E+02 
  48360.9778     0.23810E+02 
  48393.2400     0.23699E+02 
  48425.5022     0.23587E+02 
  48457.7643     0.23476E+02 
  48490.0265     0.23365E+02 
  48522.2886     0.23254E+02 
  48554.5508     0.23143E+02 
  48586.8130     0.23032E+02 
  48619.0751     0.22921E+02 
  48651.3373     0.22810E+02 
  48683.5994     0.22699E+02 
  48715.8616     0.22588E+02 
  48748.1238     0.22478E+02 
  48780.3859     0.22367E+02 
  48812.6481     0.22257E+02 
  48844.9102     0.22146E+02 
  48877.1724     0.22036E+02 
  48909.4346     0.21925E+02 
  48941.6967     0.21815E+02 
  48973.9589     0.21705E+02 
  49006.2210     0.21595E+02 
  49038.4832     0.21485E+02 
  49070.7454     0.21375E+02 
  49103.0075     0.21266E+02 
  49135.2697     0.21156E+02 
  49167.5318     0.21047E+02 
  49199.7940     0.20938E+02 
  49232.0562     0.20828E+02 
  49264.3183     0.20719E+02 
  49296.5805     0.20611E+02 
  49328.8426     0.20502E+02 
  49361.1048     0.20393E+02 
  49393.3670     0.20285E+02 
  49425.6291     0.20177E+02 
  49457.8913     0.20069E+02 
  49490.1534     0.19961E+02 
  49522.4156     0.19853E+02 
  49554.6778     0.19746E+02 
  49586.9399     0.19638E+02 
  49619.2021     0.19531E+02 
  49651.4642     0.19424E+02 
  49683.7264     0.19317E+02 
  49715.9886     0.19211E+02 
  49748.2507     0.19104E+02 
  49780.5129     0.18998E+02 
  49812.7750     0.18892E+02 
  49845.0372     0.18786E+02 
  49877.2994     0.18680E+02 
  49909.5615     0.18575E+02 
  49941.8237     0.18470E+02 
  49974.0858     0.18365E+02 
  50006.3480     0.18260E+02 
  50038.6102     0.18156E+02 
  50070.8723     0.18051E+02 
  50103.1345     0.17947E+02 
  50135.3966     0.17844E+02 
  50167.6588     0.17740E+02 
  50199.9210     0.17637E+02 
  50232.1831     0.17534E+02 
  50264.4453     0.17431E+02 
  50296.7074     0.17328E+02 
  50328.9696     0.17226E+02 
  50361.2318     0.17124E+02 
  50393.4939     0.17022E+02 
  50425.7561     0.16920E+02 
  50458.0182     0.16819E+02 
  50490.2804     0.16718E+02 
  50522.5426     0.16617E+02 
  50554.8047     0.16517E+02 
  50587.0669     0.16417E+02 
  50619.3290     0.16317E+02 
  50651.5912     0.16217E+02 
  50683.8534     0.16118E+02 
  50716.1155     0.16019E+02 
  50748.3777     0.15920E+02 
  50780.6398     0.15821E+02 
  50812.9020     0.15723E+02 
  50845.1642     0.15625E+02 
  50877.4263     0.15527E+02 
  50909.6885     0.15430E+02 
  50941.9506     0.15333E+02 
  50974.2128     0.15236E+02 
  51006.4750     0.15140E+02 
  51038.7371     0.15043E+02 
  51070.9993     0.14948E+02 
  51103.2614     0.14852E+02 
  51135.5236     0.14757E+02 
  51167.7858     0.14662E+02 
  51200.0479     0.14567E+02 
  51232.3101     0.14473E+02 
  51264.5722     0.14379E+02 
  51296.8344     0.14285E+02 
  51329.0966     0.14192E+02 
  51361.3587     0.14099E+02 
  51393.6209     0.14006E+02 
  51425.8830     0.13914E+02 
  51458.1452     0.13822E+02 
  51490.4074     0.13730E+02 
  51522.6695     0.13639E+02 
  51554.9317     0.13548E+02 
  51587.1938     0.13457E+02 
  51619.4560     0.13366E+02 
  51651.7182     0.13276E+02 
  51683.9803     0.13187E+02 
  51716.2425     0.13097E+02 
  51748.5046     0.13008E+02 
  51780.7668     0.12919E+02 
  51813.0290     0.12831E+02 
  51845.2911     0.12743E+02 
  51877.5533     0.12655E+02 
  51909.8154     0.12568E+02 
  51942.0776     0.12481E+02 
  51974.3398     0.12394E+02 
  52006.6019     0.12308E+02 
  52038.8641     0.12222E+02 
  52071.1262     0.12136E+02 
  52103.3884     0.12051E+02 
  52135.6506     0.11966E+02 
  52167.9127     0.11881E+02 
  52200.1749     0.11797E+02 
  52232.4370     0.11713E+02 
  52264.6992     0.11629E+02 
  52296.9614     0.11546E+02 
  52329.2235     0.11463E+02 
  52361.4857     0.11380E+02 
  52393.7478     0.11298E+02 
  52426.0100     0.11216E+02 
  52458.2722     0.11135E+02 
  52490.5343     0.11054E+02 
  52522.7965     0.10973E+02 
  52555.0586     0.10893E+02 
  52587.3208     0.10813E+02 
  52619.5830     0.10733E+02 
  52651.8451     0.10654E+02 
  52684.1073     0.10575E+02 
  52716.3694     0.10496E+02 
  52748.6316     0.10418E+02 
  52780.8938     0.10340E+02 
  52813.1559     0.10262E+02 
  52845.4181     0.10185E+02 
  52877.6802     0.10108E+02 
  52909.9424     0.10032E+02 
  52942.2046     0.99555E+01 
  52974.4667     0.98797E+01 
  53006.7289     0.98043E+01 
  53038.9910     0.97292E+01 
  53071.2532     0.96545E+01 
  53103.5154     0.95801E+01 
  53135.7775     0.95062E+01 
  53168.0397     0.94325E+01 
  53200.3018     0.93592E+01 
  53232.5640     0.92863E+01 
  53264.8262     0.92137E+01 
  53297.0883     0.91415E+01 
  53329.3505     0.90697E+01 
  53361.6126     0.89982E+01 
  53393.8748     0.89270E+01 
  53426.1370     0.88562E+01 
  53458.3991     0.87858E+01 
  53490.6613     0.87157E+01 
  53522.9234     0.86460E+01 
  53555.1856     0.85766E+01 
  53587.4478     0.85076E+01 
  53619.7099     0.84390E+01 
  53651.9721     0.83707E+01 
  53684.2342     0.83027E+01 
  53716.4964     0.82351E+01 
  53748.7586     0.81679E+01 
  53781.0207     0.81010E+01 
  53813.2829     0.80344E+01 
  53845.5450     0.79683E+01 
  53877.8072     0.79024E+01 
  53910.0694     0.78369E+01 
  53942.3315     0.77718E+01 
  53974.5937     0.77070E+01 
  54006.8558     0.76426E+01 
  54039.1180     0.75785E+01 
  54071.3802     0.75147E+01 
  54103.6423     0.74513E+01 
  54135.9045     0.73883E+01 
  54168.1666     0.73256E+01 
  54200.4288     0.72632E+01 
  54232.6910     0.72012E+01 
  54264.9531     0.71395E+01 
  54297.2153     0.70782E+01 
  54329.4774     0.70172E+01 
  54361.7396     0.69566E+01 
  54394.0018     0.68963E+01 
  54426.2639     0.68363E+01 
  54458.5261     0.67767E+01 
  54490.7882     0.67174E+01 
  54523.0504     0.66584E+01 
  54555.3126     0.65998E+01 
  54587.5747     0.65416E+01 
  54619.8369     0.64836E+01 
  54652.0990     0.64260E+01 
  54684.3612     0.63688E+01 
  54716.6234     0.63118E+01 
  54748.8855     0.62552E+01 
  54781.1477     0.61989E+01 
  54813.4098     0.61430E+01 
  54845.6720     0.60874E+01 
  54877.9342     0.60321E+01 
  54910.1963     0.59772E+01 
  54942.4585     0.59225E+01 
  54974.7206     0.58682E+01 
  55006.9828     0.58143E+01 
  55039.2450     0.57606E+01 
  55071.5071     0.57073E+01 
  55103.7693     0.56543E+01 
  55136.0314     0.56016E+01 
  55168.2936     0.55493E+01 
  55200.5558     0.54972E+01 
  55232.8179     0.54455E+01 
  55265.0801     0.53941E+01 
  55297.3422     0.53430E+01 
  55329.6044     0.52923E+01 
  55361.8666     0.52418E+01 
  55394.1287     0.51917E+01 
  55426.3909     0.51418E+01 
  55458.6530     0.50923E+01 
  55490.9152     0.50431E+01 
  55523.1774     0.49942E+01 
  55555.4395     0.49456E+01 
  55587.7017     0.48974E+01 
  55619.9638     0.48494E+01 
  55652.2260     0.48017E+01 
  55684.4882     0.47544E+01 
  55716.7503     0.47073E+01 
  55749.0125     0.46606E+01 
  55781.2746     0.46141E+01 
  55813.5368     0.45679E+01 
  55845.7990     0.45221E+01 
  55878.0611     0.44765E+01 
  55910.3233     0.44313E+01 
  55942.5854     0.43863E+01 
  55974.8476     0.43417E+01 
  56007.1098     0.42973E+01 
  56039.3719     0.42532E+01 
  56071.6341     0.42094E+01 
  56103.8962     0.41659E+01 
  56136.1584     0.41227E+01 
  56168.4206     0.40798E+01 
  56200.6827     0.40372E+01 
  56232.9449     0.39948E+01 
  56265.2070     0.39528E+01 
  56297.4692     0.39110E+01 
  56329.7314     0.38695E+01 
  56361.9935     0.38283E+01 
  56394.2557     0.37874E+01 
  56426.5178     0.37467E+01 
  56458.7800     0.37063E+01 
  56491.0422     0.36662E+01 
  56523.3043     0.36264E+01 
  56555.5665     0.35869E+01 
  56587.8286     0.35476E+01 
  56620.0908     0.35086E+01 
  56652.3530     0.34699E+01 
  56684.6151     0.34314E+01 
  56716.8773     0.33933E+01 
  56749.1394     0.33553E+01 
  56781.4016     0.33177E+01 
  56813.6638     0.32803E+01 
  56845.9259     0.32432E+01 
  56878.1881     0.32064E+01 
  56910.4502     0.31698E+01 
  56942.7124     0.31334E+01 
  56974.9746     0.30974E+01 
  57007.2367     0.30616E+01 
  57039.4989     0.30260E+01 
  57071.7610     0.29907E+01 
  57104.0232     0.29557E+01 
  57136.2854     0.29209E+01 
  57168.5475     0.28864E+01 
  57200.8097     0.28521E+01 
  57233.0718     0.28181E+01 
  57265.3340     0.27843E+01 
  57297.5962     0.27508E+01 
  57329.8583     0.27175E+01 
  57362.1205     0.26845E+01 
  57394.3826     0.26517E+01 
  57426.6448     0.26192E+01 
  57458.9070     0.25869E+01 
  57491.1691     0.25549E+01 
  57523.4313     0.25231E+01 
  57555.6934     0.24915E+01 
  57587.9556     0.24602E+01 
  57620.2178     0.24291E+01 
  57652.4799     0.23983E+01 
  57684.7421     0.23677E+01 
  57717.0042     0.23373E+01 
  57749.2664     0.23072E+01 
  57781.5286     0.22773E+01 
  57813.7907     0.22476E+01 
  57846.0529     0.22182E+01 
  57878.3150     0.21889E+01 
  57910.5772     0.21600E+01 
  57942.8394     0.21312E+01 
  57975.1015     0.21027E+01 
  58007.3637     0.20744E+01 
  58039.6258     0.20464E+01 
  58071.8880     0.20185E+01 
  58104.1502     0.19909E+01 
  58136.4123     0.19635E+01 
  58168.6745     0.19363E+01 
  58200.9366     0.19094E+01 
  58233.1988     0.18827E+01 
  58265.4610     0.18561E+01 
  58297.7231     0.18299E+01 
  58329.9853     0.18038E+01 
  58362.2474     0.17779E+01 
  58394.5096     0.17523E+01 
  58426.7718     0.17269E+01 
  58459.0339     0.17016E+01 
  58491.2961     0.16766E+01 
  58523.5582     0.16519E+01 
  58555.8204     0.16273E+01 
  58588.0826     0.16029E+01 
  58620.3447     0.15788E+01 
  58652.6069     0.15548E+01 
  58684.8690     0.15311E+01 
  58717.1312     0.15075E+01 
  58749.3934     0.14842E+01 
  58781.6555     0.14611E+01 
  58813.9177     0.14382E+01 
  58846.1798     0.14155E+01 
  58878.4420     0.13929E+01 
  58910.7042     0.13706E+01 
  58942.9663     0.13485E+01 
  58975.2285     0.13266E+01 
  59007.4906     0.13049E+01 
  59039.7528     0.12834E+01 
  59072.0150     0.12621E+01 
  59104.2771     0.12410E+01 
  59136.5393     0.12201E+01 
  59168.8014     0.11994E+01 
  59201.0636     0.11789E+01 
  59233.3258     0.11585E+01 
  59265.5879     0.11384E+01 
  59297.8501     0.11185E+01 
  59330.1122     0.10987E+01 
  59362.3744     0.10792E+01 
  59394.6366     0.10598E+01 
  59426.8987     0.10407E+01 
  59459.1609     0.10217E+01 
  59491.4230     0.10029E+01 
  59523.6852     0.98431E+00 
  59555.9474     0.96590E+00 
  59588.2095     0.94769E+00 
  59620.4717     0.92966E+00 
  59652.7338     0.91182E+00 
  59684.9960     0.89416E+00 
  59717.2582     0.87670E+00 
  59749.5203     0.85942E+00 
  59781.7825     0.84233E+00 
  59814.0446     0.82542E+00 
  59846.3068     0.80869E+00 
  59878.5690     0.79216E+00 
  59910.8311     0.77580E+00 
  59943.0933     0.75963E+00 
  59975.3554     0.74364E+00 
  60007.6176     0.72784E+00 
  60039.8798     0.71222E+00 
  60072.1419     0.69678E+00 
  60104.4041     0.68153E+00 
  60136.6662     0.66645E+00 
  60168.9284     0.65156E+00 
  60201.1906     0.63685E+00 
  60233.4527     0.62232E+00 
  60265.7149     0.60797E+00 
  60297.9770     0.59381E+00 
  60330.2392     0.57982E+00 
  60362.5014     0.56602E+00 
  60394.7635     0.55239E+00 
  60427.0257     0.53895E+00 
  60459.2878     0.52568E+00 
  60491.5500     0.51260E+00 
  60523.8122     0.49970E+00 
  60556.0743     0.48697E+00 
  60588.3365     0.47443E+00 
  60620.5986     0.46207E+00 
  60652.8608     0.44988E+00 
  60685.1230     0.43788E+00 
  60717.3851     0.42606E+00 
  60749.6473     0.41442E+00 
  60781.9094     0.40296E+00 
  60814.1716     0.39168E+00 
  60846.4338     0.38058E+00 
  60878.6959     0.36966E+00 
  60910.9581     0.35892E+00 
  60943.2202     0.34837E+00 
  60975.4824     0.33799E+00 
  61007.7446     0.32780E+00 
  61040.0067     0.31779E+00 
  61072.2689     0.30797E+00 
  61104.5310     0.29832E+00 
  61136.7932     0.28886E+00 
  61169.0554     0.27959E+00 
  61201.3175     0.27050E+00 
  61233.5797     0.26159E+00 
  61265.8418     0.25287E+00 
  61298.1040     0.24434E+00 
  61330.3662     0.23599E+00 
  61362.6283     0.22783E+00 
  61394.8905     0.21986E+00 
  61427.1526     0.21208E+00 
  61459.4148     0.20448E+00 
  61491.6770     0.19708E+00 
  61523.9391     0.18987E+00 
  61556.2013     0.18284E+00 
  61588.4634     0.17602E+00 
  61620.7256     0.16938E+00 
  61652.9878     0.16294E+00 
  61685.2499     0.15669E+00 
  61717.5121     0.15064E+00 
  61749.7742     0.14479E+00 
  61782.0364     0.13913E+00 
  61814.2986     0.13368E+00 
  61846.5607     0.12842E+00 
  61878.8229     0.12337E+00 
  61911.0850     0.11852E+00 
  61943.3472     0.11388E+00 
  61975.6094     0.10943E+00 
  62007.8715     0.10520E+00 
  62040.1337     0.10118E+00 
  62072.3958     0.97361E-01 
  62104.6580     0.93757E-01 
  62136.9202     0.90366E-01 
  62169.1823     0.87189E-01 
  62201.4445     0.84228E-01 
  62233.7066     0.81485E-01 
  62265.9688     0.78961E-01 
  62298.2310     0.76658E-01 
  62330.4931     0.74579E-01 
  62362.7553     0.72724E-01 
  62395.0174     0.71096E-01 
  62427.2796     0.69697E-01 
  62459.5418     0.68530E-01 
  62491.8039     0.67595E-01 
  62524.0661     0.66895E-01 
  62556.3282     0.66433E-01 
  62588.5904     0.66211E-01 
  62620.8526     0.66231E-01 
  62653.1147     0.66496E-01 
  62685.3769     0.67008E-01 
  62717.6390     0.67769E-01 
  62749.9012     0.68783E-01 
  62782.1634     0.70051E-01 
  62814.4255     0.71577E-01 
  62846.6877     0.73364E-01 
  62878.9498     0.75414E-01 
  62911.2120     0.77731E-01 
  62943.4742     0.80317E-01 
  62975.7363     0.83175E-01 
  63007.9985     0.86310E-01 
  63040.2606     0.89723E-01 
  63072.5228     0.93419E-01 
  63104.7850     0.97401E-01 
  63137.0471     0.10167E+00 
  63169.3093     0.10624E+00 
  63201.5714     0.11110E+00 
  63233.8336     0.11626E+00 
  63266.0958     0.12172E+00 
  63298.3579     0.12750E+00 
  63330.6201     0.13358E+00 
  63362.8822     0.13999E+00 
  63395.1444     0.14671E+00 
  63427.4066     0.15376E+00 
  63459.6687     0.16114E+00 
  63491.9309     0.16885E+00 
  63524.1930     0.17690E+00 
  63556.4552     0.18529E+00 
  63588.7174     0.19404E+00 
  63620.9795     0.20313E+00 
  63653.2417     0.21259E+00 
  63685.5038     0.22240E+00 
  63717.7660     0.23259E+00 
  63750.0282     0.24315E+00 
  63782.2903     0.25409E+00 
  63814.5525     0.26542E+00 
  63846.8146     0.27713E+00 
  63879.0768     0.28925E+00 
  63911.3390     0.30177E+00 
  63943.6011     0.31469E+00 
  63975.8633     0.32803E+00 
  64008.1254     0.34180E+00 
  64040.3876     0.35599E+00 
  64072.6498     0.37062E+00 
  64104.9119     0.38569E+00 
  64137.1741     0.40121E+00 
  64169.4362     0.41718E+00 
  64201.6984     0.43362E+00 
  64233.9606     0.45053E+00 
  64266.2227     0.46792E+00 
  64298.4849     0.48580E+00 
  64330.7470     0.50417E+00 
  64363.0092     0.52304E+00 
  64395.2714     0.54242E+00 
  64427.5335     0.56232E+00 
  64459.7957     0.58275E+00 
  64492.0578     0.60371E+00 
  64524.3200     0.62522E+00 
  64556.5822     0.64728E+00 
  64588.8443     0.66991E+00 
  64621.1065     0.69311E+00 
  64653.3686     0.71689E+00 
  64685.6308     0.74126E+00 
  64717.8930     0.76624E+00 
  64750.1551     0.79182E+00 
  64782.4173     0.81803E+00 
  64814.6794     0.84488E+00 
  64846.9416     0.87236E+00 
  64879.2038     0.90051E+00 
  64911.4659     0.92932E+00 
  64943.7281     0.95880E+00 
  64975.9902     0.98898E+00 
  65008.2524     0.10199E+01 
  65040.5146     0.10514E+01 
  65072.7767     0.10838E+01 
  65105.0389     0.11168E+01 
  65137.3010     0.11506E+01 
  65169.5632     0.11852E+01 
  65201.8254     0.12205E+01 
  65234.0875     0.12567E+01 
  65266.3497     0.12936E+01 
  65298.6118     0.13314E+01 
  65330.8740     0.13700E+01 
  65363.1362     0.14094E+01 
  65395.3983     0.14497E+01 
  65427.6605     0.14909E+01 
  65459.9226     0.15329E+01 
  65492.1848     0.15759E+01 
  65524.4470     0.16198E+01 
  65556.7091     0.16646E+01 
  65588.9713     0.17104E+01 
  65621.2334     0.17572E+01 
  65653.4956     0.18050E+01 
  65685.7578     0.18537E+01 
  65718.0199     0.19035E+01 
  65750.2821     0.19543E+01 
  65782.5442     0.20062E+01 
  65814.8064     0.20592E+01 
  65847.0686     0.21133E+01 
  65879.3307     0.21684E+01 
  65911.5929     0.22247E+01 
  65943.8550     0.22822E+01 
  65976.1172     0.23409E+01 
  66008.3794     0.24007E+01 
  66040.6415     0.24618E+01 
  66072.9037     0.25241E+01 
  66105.1658     0.25876E+01 
  66137.4280     0.26524E+01 
  66169.6902     0.27186E+01 
  66201.9523     0.27860E+01 
  66234.2145     0.28548E+01 
  66266.4766     0.29250E+01 
  66298.7388     0.29966E+01 
  66331.0010     0.30696E+01 
  66363.2631     0.31440E+01 
  66395.5253     0.32199E+01 
  66427.7874     0.32973E+01 
  66460.0496     0.33762E+01 
  66492.3118     0.34567E+01 
  66524.5739     0.35387E+01 
  66556.8361     0.36223E+01 
  66589.0982     0.37075E+01 
  66621.3604     0.37944E+01 
  66653.6226     0.38830E+01 
  66685.8847     0.39732E+01 
  66718.1469     0.40652E+01 
  66750.4090     0.41590E+01 
  66782.6712     0.42545E+01 
  66814.9334     0.43519E+01 
  66847.1955     0.44512E+01 
  66879.4577     0.45523E+01 
  66911.7198     0.46553E+01 
  66943.9820     0.47602E+01 
  66976.2442     0.48672E+01 
  67008.5063     0.49761E+01 
  67040.7685     0.50871E+01 
  67073.0306     0.52002E+01 
  67105.2928     0.53154E+01 
  67137.5550     0.54327E+01 
  67169.8171     0.55522E+01 
  67202.0793     0.56739E+01 
  67234.3414     0.57978E+01 
  67266.6036     0.59241E+01 
  67298.8658     0.60526E+01 
  67331.1279     0.61835E+01 
  67363.3901     0.63168E+01 
  67395.6522     0.64526E+01 
  67427.9144     0.65908E+01 
  67460.1766     0.67315E+01 
  67492.4387     0.68747E+01 
  67524.7009     0.70206E+01 
  67556.9630     0.71691E+01 
  67589.2252     0.73202E+01 
  67621.4874     0.74740E+01 
  67653.7495     0.76306E+01 
  67686.0117     0.77900E+01 
  67718.2738     0.79522E+01 
  67750.5360     0.81173E+01 
  67782.7982     0.82854E+01 
  67815.0603     0.84564E+01 
  67847.3225     0.86303E+01 
  67879.5846     0.88074E+01 
  67911.8468     0.89875E+01 
  67944.1090     0.91708E+01 
  67976.3711     0.93573E+01 
  68008.6333     0.95470E+01 
  68040.8954     0.97400E+01 
  68073.1576     0.99364E+01 
  68105.4198     0.10136E+02 
  68137.6819     0.10339E+02 
  68169.9441     0.10546E+02 
  68202.2062     0.10756E+02 
  68234.4684     0.10970E+02 
  68266.7306     0.11187E+02 
  68298.9927     0.11408E+02 
  68331.2549     0.11633E+02 
  68363.5170     0.11862E+02 
  68395.7792     0.12094E+02 
  68428.0414     0.12330E+02 
  68460.3035     0.12571E+02 
  68492.5657     0.12815E+02 
  68524.8278     0.13063E+02 
  68557.0900     0.13315E+02 
  68589.3522     0.13572E+02 
  68621.6143     0.13833E+02 
  68653.8765     0.14098E+02 
  68686.1386     0.14367E+02 
  68718.4008     0.14641E+02 
  68750.6630     0.14919E+02 
  68782.9251     0.15202E+02 
  68815.1873     0.15489E+02 
  68847.4494     0.15781E+02 
  68879.7116     0.16078E+02 
  68911.9738     0.16379E+02 
  68944.2359     0.16686E+02 
  68976.4981     0.16997E+02 
  69008.7602     0.17313E+02 
  69041.0224     0.17634E+02 
  69073.2846     0.17960E+02 
  69105.5467     0.18291E+02 
  69137.8089     0.18627E+02 
  69170.0710     0.18968E+02 
  69202.3332     0.19315E+02 
  69234.5954     0.19667E+02 
  69266.8575     0.20025E+02 
  69299.1197     0.20388E+02 
  69331.3818     0.20757E+02 
  69363.6440     0.21131E+02 
  69395.9062     0.21511E+02 
  69428.1683     0.21897E+02 
  69460.4305     0.22289E+02 
  69492.6926     0.22686E+02 
  69524.9548     0.23089E+02 
  69557.2170     0.23499E+02 
  69589.4791     0.23914E+02 
  69621.7413     0.24336E+02 
  69654.0034     0.24764E+02 
  69686.2656     0.25198E+02 
  69718.5278     0.25639E+02 
  69750.7899     0.26086E+02 
  69783.0521     0.26539E+02 
  69815.3142     0.26999E+02 
  69847.5764     0.27466E+02 
  69879.8386     0.27940E+02 
  69912.1007     0.28420E+02 
  69944.3629     0.28907E+02 
  69976.6250     0.29401E+02 
  70008.8872     0.29902E+02 
  70041.1494     0.30410E+02 
  70073.4115     0.30925E+02 
  70105.6737     0.31447E+02 
  70137.9358     0.31977E+02 
  70170.1980     0.32514E+02 
  70202.4602     0.33058E+02 
  70234.7223     0.33610E+02 
  70266.9845     0.34170E+02 
  70299.2466     0.34737E+02 
  70331.5088     0.35312E+02 
  70363.7710     0.35894E+02 
  70396.0331     0.36484E+02 
  70428.2953     0.37083E+02 
  70460.5574     0.37689E+02 
  70492.8196     0.38303E+02 
  70525.0818     0.38926E+02 
  70557.3439     0.39556E+02 
  70589.6061     0.40195E+02 
  70621.8682     0.40842E+02 
  70654.1304     0.41498E+02 
  70686.3926     0.42162E+02 
  70718.6547     0.42835E+02 
  70750.9169     0.43516E+02 
  70783.1790     0.44206E+02 
  70815.4412     0.44905E+02 
  70847.7034     0.45612E+02 
  70879.9655     0.46329E+02 
  70912.2277     0.47054E+02 
  70944.4898     0.47788E+02 
  70976.7520     0.48532E+02 
  71009.0142     0.49285E+02 
  71041.2763     0.50046E+02 
  71073.5385     0.50818E+02 
  71105.8006     0.51598E+02 
  71138.0628     0.52388E+02 
  71170.3250     0.53188E+02 
  71202.5871     0.53997E+02 
  71234.8493     0.54815E+02 
  71267.1114     0.55644E+02 
  71299.3736     0.56482E+02 
  71331.6358     0.57330E+02 
  71363.8979     0.58187E+02 
  71396.1601     0.59055E+02 
  71428.4222     0.59933E+02 
  71460.6844     0.60821E+02 
  71492.9466     0.61719E+02 
  71525.2087     0.62627E+02 
  71557.4709     0.63545E+02 
  71589.7330     0.64474E+02 
  71621.9952     0.65413E+02 
  71654.2574     0.66362E+02 
  71686.5195     0.67322E+02 
  71718.7817     0.68293E+02 
  71751.0438     0.69274E+02 
  71783.3060     0.70265E+02 
  71815.5682     0.71268E+02 
  71847.8303     0.72281E+02 
  71880.0925     0.73304E+02 
  71912.3546     0.74339E+02 
  71944.6168     0.75385E+02 
  71976.8790     0.76441E+02 
  72009.1411     0.77509E+02 
  72041.4033     0.78588E+02 
  72073.6654     0.79677E+02 
  72105.9276     0.80778E+02 
  72138.1898     0.81890E+02 
  72170.4519     0.83013E+02 
  72202.7141     0.84148E+02 
  72234.9762     0.85293E+02 
  72267.2384     0.86450E+02 
  72299.5006     0.87619E+02 
  72331.7627     0.88799E+02 
  72364.0249     0.89990E+02 
  72396.2870     0.91193E+02 
  72428.5492     0.92407E+02 
  72460.8114     0.93633E+02 
  72493.0735     0.94870E+02 
  72525.3357     0.96119E+02 
  72557.5978     0.97380E+02 
  72589.8600     0.98653E+02 
