  32262.1600     0.93147E+02 
  32294.4222     0.94360E+02 
  32326.6843     0.95585E+02 
  32358.9465     0.96820E+02 
  32391.2086     0.98066E+02 
  32423.4708     0.99324E+02 
  32455.7330     0.10059E+03 
  32487.9951     0.10187E+03 
  32520.2573     0.10316E+03 
  32552.5194     0.10447E+03 
  32584.7816     0.10578E+03 
  32617.0438     0.10711E+03 
  32649.3059     0.10844E+03 
  32681.5681     0.10979E+03 
  32713.8302     0.11115E+03 
  32746.0924     0.11252E+03 
  32778.3546     0.11390E+03 
  32810.6167     0.11529E+03 
  32842.8789     0.11670E+03 
  32875.1410     0.11811E+03 
  32907.4032     0.11954E+03 
  32939.6654     0.12098E+03 
  32971.9275     0.12243E+03 
  33004.1897     0.12389E+03 
  33036.4518     0.12536E+03 
  33068.7140     0.12684E+03 
  33100.9762     0.12834E+03 
  33133.2383     0.12985E+03 
  33165.5005     0.13136E+03 
  33197.7626     0.13289E+03 
  33230.0248     0.13443E+03 
  33262.2870     0.13598E+03 
  33294.5491     0.13755E+03 
  33326.8113     0.13912E+03 
  33359.0734     0.14071E+03 
  33391.3356     0.14230E+03 
  33423.5978     0.14391E+03 
  33455.8599     0.14553E+03 
  33488.1221     0.14716E+03 
  33520.3842     0.14880E+03 
  33552.6464     0.15045E+03 
  33584.9086     0.15211E+03 
  33617.1707     0.15379E+03 
  33649.4329     0.15547E+03 
  33681.6950     0.15717E+03 
  33713.9572     0.15888E+03 
  33746.2194     0.16059E+03 
  33778.4815     0.16232E+03 
  33810.7437     0.16406E+03 
  33843.0058     0.16581E+03 
  33875.2680     0.16757E+03 
  33907.5302     0.16934E+03 
  33939.7923     0.17113E+03 
  33972.0545     0.17292E+03 
  34004.3166     0.17472E+03 
  34036.5788     0.17653E+03 
  34068.8410     0.17836E+03 
  34101.1031     0.18019E+03 
  34133.3653     0.18204E+03 
  34165.6274     0.18389E+03 
  34197.8896     0.18576E+03 
  34230.1518     0.18763E+03 
  34262.4139     0.18952E+03 
  34294.6761     0.19141E+03 
  34326.9382     0.19332E+03 
  34359.2004     0.19523E+03 
  34391.4626     0.19715E+03 
  34423.7247     0.19909E+03 
  34455.9869     0.20103E+03 
  34488.2490     0.20298E+03 
  34520.5112     0.20495E+03 
  34552.7734     0.20692E+03 
  34585.0355     0.20890E+03 
  34617.2977     0.21089E+03 
  34649.5598     0.21289E+03 
  34681.8220     0.21490E+03 
  34714.0842     0.21691E+03 
  34746.3463     0.21894E+03 
  34778.6085     0.22097E+03 
  34810.8706     0.22302E+03 
  34843.1328     0.22507E+03 
  34875.3950     0.22713E+03 
  34907.6571     0.22919E+03 
  34939.9193     0.23127E+03 
  34972.1814     0.23336E+03 
  35004.4436     0.23545E+03 
  35036.7058     0.23755E+03 
  35068.9679     0.23966E+03 
  35101.2301     0.24177E+03 
  35133.4922     0.24390E+03 
  35165.7544     0.24603E+03 
  35198.0166     0.24816E+03 
  35230.2787     0.25031E+03 
  35262.5409     0.25246E+03 
  35294.8030     0.25462E+03 
  35327.0652     0.25679E+03 
  35359.3274     0.25896E+03 
  35391.5895     0.26114E+03 
  35423.8517     0.26332E+03 
  35456.1138     0.26552E+03 
  35488.3760     0.26771E+03 
  35520.6382     0.26992E+03 
  35552.9003     0.27213E+03 
  35585.1625     0.27434E+03 
  35617.4246     0.27657E+03 
  35649.6868     0.27879E+03 
  35681.9490     0.28102E+03 
  35714.2111     0.28326E+03 
  35746.4733     0.28550E+03 
  35778.7354     0.28775E+03 
  35810.9976     0.29000E+03 
  35843.2598     0.29226E+03 
  35875.5219     0.29452E+03 
  35907.7841     0.29679E+03 
  35940.0462     0.29906E+03 
  35972.3084     0.30133E+03 
  36004.5706     0.30361E+03 
  36036.8327     0.30589E+03 
  36069.0949     0.30818E+03 
  36101.3570     0.31047E+03 
  36133.6192     0.31276E+03 
  36165.8814     0.31505E+03 
  36198.1435     0.31735E+03 
  36230.4057     0.31965E+03 
  36262.6678     0.32196E+03 
  36294.9300     0.32426E+03 
  36327.1922     0.32657E+03 
  36359.4543     0.32888E+03 
  36391.7165     0.33119E+03 
  36423.9786     0.33351E+03 
  36456.2408     0.33582E+03 
  36488.5030     0.33814E+03 
  36520.7651     0.34046E+03 
  36553.0273     0.34278E+03 
  36585.2894     0.34510E+03 
  36617.5516     0.34742E+03 
  36649.8138     0.34974E+03 
  36682.0759     0.35207E+03 
  36714.3381     0.35439E+03 
  36746.6002     0.35671E+03 
  36778.8624     0.35903E+03 
  36811.1246     0.36136E+03 
  36843.3867     0.36368E+03 
  36875.6489     0.36600E+03 
  36907.9110     0.36832E+03 
  36940.1732     0.37064E+03 
  36972.4354     0.37296E+03 
  37004.6975     0.37528E+03 
  37036.9597     0.37759E+03 
  37069.2218     0.37991E+03 
  37101.4840     0.38222E+03 
  37133.7462     0.38453E+03 
  37166.0083     0.38684E+03 
  37198.2705     0.38914E+03 
  37230.5326     0.39144E+03 
  37262.7948     0.39374E+03 
  37295.0570     0.39604E+03 
  37327.3191     0.39834E+03 
  37359.5813     0.40063E+03 
  37391.8434     0.40291E+03 
  37424.1056     0.40520E+03 
  37456.3678     0.40748E+03 
  37488.6299     0.40975E+03 
  37520.8921     0.41202E+03 
  37553.1542     0.41429E+03 
  37585.4164     0.41655E+03 
  37617.6786     0.41881E+03 
  37649.9407     0.42106E+03 
  37682.2029     0.42331E+03 
  37714.4650     0.42555E+03 
  37746.7272     0.42778E+03 
  37778.9894     0.43001E+03 
  37811.2515     0.43224E+03 
  37843.5137     0.43446E+03 
  37875.7758     0.43667E+03 
  37908.0380     0.43887E+03 
  37940.3002     0.44107E+03 
  37972.5623     0.44327E+03 
  38004.8245     0.44545E+03 
  38037.0866     0.44763E+03 
  38069.3488     0.44980E+03 
  38101.6110     0.45196E+03 
  38133.8731     0.45412E+03 
  38166.1353     0.45626E+03 
  38198.3974     0.45840E+03 
  38230.6596     0.46053E+03 
  38262.9218     0.46266E+03 
  38295.1839     0.46477E+03 
  38327.4461     0.46688E+03 
  38359.7082     0.46897E+03 
  38391.9704     0.47106E+03 
  38424.2326     0.47314E+03 
  38456.4947     0.47520E+03 
  38488.7569     0.47726E+03 
  38521.0190     0.47931E+03 
  38553.2812     0.48135E+03 
  38585.5434     0.48338E+03 
  38617.8055     0.48540E+03 
  38650.0677     0.48740E+03 
  38682.3298     0.48940E+03 
  38714.5920     0.49139E+03 
  38746.8542     0.49336E+03 
  38779.1163     0.49532E+03 
  38811.3785     0.49728E+03 
  38843.6406     0.49922E+03 
  38875.9028     0.50115E+03 
  38908.1650     0.50306E+03 
  38940.4271     0.50497E+03 
  38972.6893     0.50686E+03 
  39004.9514     0.50874E+03 
  39037.2136     0.51061E+03 
  39069.4758     0.51247E+03 
  39101.7379     0.51431E+03 
  39134.0001     0.51614E+03 
  39166.2622     0.51796E+03 
  39198.5244     0.51976E+03 
  39230.7866     0.52155E+03 
  39263.0487     0.52333E+03 
  39295.3109     0.52509E+03 
  39327.5730     0.52684E+03 
  39359.8352     0.52858E+03 
  39392.0974     0.53030E+03 
  39424.3595     0.53201E+03 
  39456.6217     0.53370E+03 
  39488.8838     0.53538E+03 
  39521.1460     0.53704E+03 
  39553.4082     0.53869E+03 
  39585.6703     0.54032E+03 
  39617.9325     0.54194E+03 
  39650.1946     0.54355E+03 
  39682.4568     0.54513E+03 
  39714.7190     0.54671E+03 
  39746.9811     0.54826E+03 
  39779.2433     0.54981E+03 
  39811.5054     0.55133E+03 
  39843.7676     0.55284E+03 
  39876.0298     0.55434E+03 
  39908.2919     0.55581E+03 
  39940.5541     0.55728E+03 
  39972.8162     0.55872E+03 
  40005.0784     0.56015E+03 
  40037.3406     0.56156E+03 
  40069.6027     0.56296E+03 
  40101.8649     0.56434E+03 
  40134.1270     0.56570E+03 
  40166.3892     0.56704E+03 
  40198.6514     0.56837E+03 
  40230.9135     0.56968E+03 
  40263.1757     0.57097E+03 
  40295.4378     0.57225E+03 
  40327.7000     0.57351E+03 
  40359.9622     0.57475E+03 
  40392.2243     0.57597E+03 
  40424.4865     0.57718E+03 
  40456.7486     0.57837E+03 
  40489.0108     0.57953E+03 
  40521.2730     0.58069E+03 
  40553.5351     0.58182E+03 
  40585.7973     0.58293E+03 
  40618.0594     0.58403E+03 
  40650.3216     0.58511E+03 
  40682.5838     0.58617E+03 
  40714.8459     0.58721E+03 
  40747.1081     0.58824E+03 
  40779.3702     0.58924E+03 
  40811.6324     0.59023E+03 
  40843.8946     0.59119E+03 
  40876.1567     0.59214E+03 
  40908.4189     0.59307E+03 
  40940.6810     0.59398E+03 
  40972.9432     0.59487E+03 
  41005.2054     0.59575E+03 
  41037.4675     0.59660E+03 
  41069.7297     0.59744E+03 
  41101.9918     0.59825E+03 
  41134.2540     0.59905E+03 
  41166.5162     0.59983E+03 
  41198.7783     0.60058E+03 
  41231.0405     0.60132E+03 
  41263.3026     0.60204E+03 
  41295.5648     0.60274E+03 
  41327.8270     0.60342E+03 
  41360.0891     0.60408E+03 
  41392.3513     0.60473E+03 
  41424.6134     0.60535E+03 
  41456.8756     0.60595E+03 
  41489.1378     0.60653E+03 
  41521.3999     0.60710E+03 
  41553.6621     0.60764E+03 
  41585.9242     0.60817E+03 
  41618.1864     0.60867E+03 
  41650.4486     0.60916E+03 
  41682.7107     0.60962E+03 
  41714.9729     0.61007E+03 
  41747.2350     0.61049E+03 
  41779.4972     0.61090E+03 
  41811.7594     0.61129E+03 
  41844.0215     0.61165E+03 
  41876.2837     0.61200E+03 
  41908.5458     0.61233E+03 
  41940.8080     0.61264E+03 
  41973.0702     0.61293E+03 
  42005.3323     0.61320E+03 
  42037.5945     0.61345E+03 
  42069.8566     0.61368E+03 
  42102.1188     0.61389E+03 
  42134.3810     0.61408E+03 
  42166.6431     0.61425E+03 
  42198.9053     0.61440E+03 
  42231.1674     0.61453E+03 
  42263.4296     0.61464E+03 
  42295.6918     0.61474E+03 
  42327.9539     0.61481E+03 
  42360.2161     0.61487E+03 
  42392.4782     0.61490E+03 
  42424.7404     0.61492E+03 
  42457.0026     0.61491E+03 
  42489.2647     0.61489E+03 
  42521.5269     0.61485E+03 
  42553.7890     0.61479E+03 
  42586.0512     0.61471E+03 
  42618.3134     0.61461E+03 
  42650.5755     0.61449E+03 
  42682.8377     0.61435E+03 
  42715.0998     0.61420E+03 
  42747.3620     0.61402E+03 
  42779.6242     0.61383E+03 
  42811.8863     0.61361E+03 
  42844.1485     0.61338E+03 
  42876.4106     0.61313E+03 
  42908.6728     0.61286E+03 
  42940.9350     0.61257E+03 
  42973.1971     0.61227E+03 
  43005.4593     0.61194E+03 
  43037.7214     0.61160E+03 
  43069.9836     0.61124E+03 
  43102.2458     0.61086E+03 
  43134.5079     0.61046E+03 
  43166.7701     0.61004E+03 
  43199.0322     0.60961E+03 
  43231.2944     0.60916E+03 
  43263.5566     0.60869E+03 
  43295.8187     0.60820E+03 
  43328.0809     0.60770E+03 
  43360.3430     0.60717E+03 
  43392.6052     0.60663E+03 
  43424.8674     0.60607E+03 
  43457.1295     0.60550E+03 
  43489.3917     0.60490E+03 
  43521.6538     0.60429E+03 
  43553.9160     0.60367E+03 
  43586.1782     0.60302E+03 
  43618.4403     0.60236E+03 
  43650.7025     0.60168E+03 
  43682.9646     0.60099E+03 
  43715.2268     0.60028E+03 
  43747.4890     0.59955E+03 
  43779.7511     0.59880E+03 
  43812.0133     0.59804E+03 
  43844.2754     0.59726E+03 
  43876.5376     0.59647E+03 
  43908.7998     0.59566E+03 
  43941.0619     0.59483E+03 
  43973.3241     0.59399E+03 
  44005.5862     0.59313E+03 
  44037.8484     0.59226E+03 
  44070.1106     0.59137E+03 
  44102.3727     0.59046E+03 
  44134.6349     0.58954E+03 
  44166.8970     0.58861E+03 
  44199.1592     0.58766E+03 
  44231.4214     0.58669E+03 
  44263.6835     0.58571E+03 
  44295.9457     0.58472E+03 
  44328.2078     0.58370E+03 
  44360.4700     0.58268E+03 
  44392.7322     0.58164E+03 
  44424.9943     0.58059E+03 
  44457.2565     0.57952E+03 
  44489.5186     0.57843E+03 
  44521.7808     0.57734E+03 
  44554.0430     0.57623E+03 
  44586.3051     0.57510E+03 
  44618.5673     0.57397E+03 
  44650.8294     0.57281E+03 
  44683.0916     0.57165E+03 
  44715.3538     0.57047E+03 
  44747.6159     0.56928E+03 
  44779.8781     0.56807E+03 
  44812.1402     0.56686E+03 
  44844.4024     0.56562E+03 
  44876.6646     0.56438E+03 
  44908.9267     0.56312E+03 
  44941.1889     0.56186E+03 
  44973.4510     0.56058E+03 
  45005.7132     0.55928E+03 
  45037.9754     0.55798E+03 
  45070.2375     0.55666E+03 
  45102.4997     0.55533E+03 
  45134.7618     0.55399E+03 
  45167.0240     0.55264E+03 
  45199.2862     0.55127E+03 
  45231.5483     0.54990E+03 
  45263.8105     0.54851E+03 
  45296.0726     0.54711E+03 
  45328.3348     0.54570E+03 
  45360.5970     0.54428E+03 
  45392.8591     0.54285E+03 
  45425.1213     0.54141E+03 
  45457.3834     0.53996E+03 
  45489.6456     0.53850E+03 
  45521.9078     0.53703E+03 
  45554.1699     0.53555E+03 
  45586.4321     0.53405E+03 
  45618.6942     0.53255E+03 
  45650.9564     0.53104E+03 
  45683.2186     0.52952E+03 
  45715.4807     0.52799E+03 
  45747.7429     0.52645E+03 
  45780.0050     0.52490E+03 
  45812.2672     0.52334E+03 
  45844.5294     0.52178E+03 
  45876.7915     0.52020E+03 
  45909.0537     0.51862E+03 
  45941.3158     0.51702E+03 
  45973.5780     0.51542E+03 
  46005.8402     0.51381E+03 
  46038.1023     0.51220E+03 
  46070.3645     0.51057E+03 
  46102.6266     0.50894E+03 
  46134.8888     0.50730E+03 
  46167.1510     0.50565E+03 
  46199.4131     0.50399E+03 
  46231.6753     0.50233E+03 
  46263.9374     0.50066E+03 
  46296.1996     0.49898E+03 
  46328.4618     0.49730E+03 
  46360.7239     0.49560E+03 
  46392.9861     0.49391E+03 
  46425.2482     0.49220E+03 
  46457.5104     0.49049E+03 
  46489.7726     0.48877E+03 
  46522.0347     0.48705E+03 
  46554.2969     0.48532E+03 
  46586.5590     0.48359E+03 
  46618.8212     0.48184E+03 
  46651.0834     0.48010E+03 
  46683.3455     0.47835E+03 
  46715.6077     0.47659E+03 
  46747.8698     0.47482E+03 
  46780.1320     0.47306E+03 
  46812.3942     0.47128E+03 
  46844.6563     0.46951E+03 
  46876.9185     0.46772E+03 
  46909.1806     0.46593E+03 
  46941.4428     0.46414E+03 
  46973.7050     0.46235E+03 
  47005.9671     0.46055E+03 
  47038.2293     0.45874E+03 
  47070.4914     0.45693E+03 
  47102.7536     0.45512E+03 
  47135.0158     0.45330E+03 
  47167.2779     0.45148E+03 
  47199.5401     0.44966E+03 
  47231.8022     0.44783E+03 
  47264.0644     0.44600E+03 
  47296.3266     0.44417E+03 
  47328.5887     0.44233E+03 
  47360.8509     0.44049E+03 
  47393.1130     0.43865E+03 
  47425.3752     0.43680E+03 
  47457.6374     0.43495E+03 
  47489.8995     0.43310E+03 
  47522.1617     0.43125E+03 
  47554.4238     0.42939E+03 
  47586.6860     0.42754E+03 
  47618.9482     0.42568E+03 
  47651.2103     0.42382E+03 
  47683.4725     0.42195E+03 
  47715.7346     0.42009E+03 
  47747.9968     0.41822E+03 
  47780.2590     0.41635E+03 
  47812.5211     0.41448E+03 
  47844.7833     0.41261E+03 
  47877.0454     0.41074E+03 
  47909.3076     0.40887E+03 
  47941.5698     0.40699E+03 
  47973.8319     0.40512E+03 
  48006.0941     0.40324E+03 
  48038.3562     0.40137E+03 
  48070.6184     0.39949E+03 
  48102.8806     0.39761E+03 
  48135.1427     0.39574E+03 
  48167.4049     0.39386E+03 
  48199.6670     0.39198E+03 
  48231.9292     0.39010E+03 
  48264.1914     0.38822E+03 
  48296.4535     0.38635E+03 
  48328.7157     0.38447E+03 
  48360.9778     0.38259E+03 
  48393.2400     0.38071E+03 
  48425.5022     0.37884E+03 
  48457.7643     0.37696E+03 
  48490.0265     0.37509E+03 
  48522.2886     0.37321E+03 
  48554.5508     0.37134E+03 
  48586.8130     0.36947E+03 
  48619.0751     0.36760E+03 
  48651.3373     0.36573E+03 
  48683.5994     0.36386E+03 
  48715.8616     0.36199E+03 
  48748.1238     0.36012E+03 
  48780.3859     0.35826E+03 
  48812.6481     0.35640E+03 
  48844.9102     0.35454E+03 
  48877.1724     0.35268E+03 
  48909.4346     0.35082E+03 
  48941.6967     0.34896E+03 
  48973.9589     0.34711E+03 
  49006.2210     0.34526E+03 
  49038.4832     0.34341E+03 
  49070.7454     0.34156E+03 
  49103.0075     0.33972E+03 
  49135.2697     0.33788E+03 
  49167.5318     0.33604E+03 
  49199.7940     0.33420E+03 
  49232.0562     0.33236E+03 
  49264.3183     0.33053E+03 
  49296.5805     0.32870E+03 
  49328.8426     0.32688E+03 
  49361.1048     0.32505E+03 
  49393.3670     0.32323E+03 
  49425.6291     0.32142E+03 
  49457.8913     0.31960E+03 
  49490.1534     0.31779E+03 
  49522.4156     0.31598E+03 
  49554.6778     0.31418E+03 
  49586.9399     0.31238E+03 
  49619.2021     0.31058E+03 
  49651.4642     0.30879E+03 
  49683.7264     0.30700E+03 
  49715.9886     0.30521E+03 
  49748.2507     0.30343E+03 
  49780.5129     0.30165E+03 
  49812.7750     0.29988E+03 
  49845.0372     0.29810E+03 
  49877.2994     0.29634E+03 
  49909.5615     0.29457E+03 
  49941.8237     0.29282E+03 
  49974.0858     0.29106E+03 
  50006.3480     0.28931E+03 
  50038.6102     0.28756E+03 
  50070.8723     0.28582E+03 
  50103.1345     0.28408E+03 
  50135.3966     0.28235E+03 
  50167.6588     0.28062E+03 
  50199.9210     0.27890E+03 
  50232.1831     0.27718E+03 
  50264.4453     0.27546E+03 
  50296.7074     0.27375E+03 
  50328.9696     0.27205E+03 
  50361.2318     0.27034E+03 
  50393.4939     0.26865E+03 
  50425.7561     0.26696E+03 
  50458.0182     0.26527E+03 
  50490.2804     0.26359E+03 
  50522.5426     0.26191E+03 
  50554.8047     0.26024E+03 
  50587.0669     0.25857E+03 
  50619.3290     0.25691E+03 
  50651.5912     0.25526E+03 
  50683.8534     0.25361E+03 
  50716.1155     0.25196E+03 
  50748.3777     0.25032E+03 
  50780.6398     0.24868E+03 
  50812.9020     0.24705E+03 
  50845.1642     0.24543E+03 
  50877.4263     0.24381E+03 
  50909.6885     0.24220E+03 
  50941.9506     0.24059E+03 
  50974.2128     0.23899E+03 
  51006.4750     0.23739E+03 
  51038.7371     0.23580E+03 
  51070.9993     0.23421E+03 
  51103.2614     0.23263E+03 
  51135.5236     0.23106E+03 
  51167.7858     0.22949E+03 
  51200.0479     0.22792E+03 
  51232.3101     0.22637E+03 
  51264.5722     0.22481E+03 
  51296.8344     0.22327E+03 
  51329.0966     0.22173E+03 
  51361.3587     0.22019E+03 
  51393.6209     0.21866E+03 
  51425.8830     0.21714E+03 
  51458.1452     0.21563E+03 
  51490.4074     0.21411E+03 
  51522.6695     0.21261E+03 
  51554.9317     0.21111E+03 
  51587.1938     0.20962E+03 
  51619.4560     0.20813E+03 
  51651.7182     0.20665E+03 
  51683.9803     0.20518E+03 
  51716.2425     0.20371E+03 
  51748.5046     0.20224E+03 
  51780.7668     0.20079E+03 
  51813.0290     0.19934E+03 
  51845.2911     0.19789E+03 
  51877.5533     0.19646E+03 
  51909.8154     0.19502E+03 
  51942.0776     0.19360E+03 
  51974.3398     0.19218E+03 
  52006.6019     0.19076E+03 
  52038.8641     0.18936E+03 
  52071.1262     0.18796E+03 
  52103.3884     0.18656E+03 
  52135.6506     0.18517E+03 
  52167.9127     0.18379E+03 
  52200.1749     0.18242E+03 
  52232.4370     0.18105E+03 
  52264.6992     0.17968E+03 
  52296.9614     0.17833E+03 
  52329.2235     0.17698E+03 
  52361.4857     0.17563E+03 
  52393.7478     0.17429E+03 
  52426.0100     0.17296E+03 
  52458.2722     0.17164E+03 
  52490.5343     0.17032E+03 
  52522.7965     0.16900E+03 
  52555.0586     0.16770E+03 
  52587.3208     0.16640E+03 
  52619.5830     0.16510E+03 
  52651.8451     0.16382E+03 
  52684.1073     0.16253E+03 
  52716.3694     0.16126E+03 
  52748.6316     0.15999E+03 
  52780.8938     0.15873E+03 
  52813.1559     0.15747E+03 
  52845.4181     0.15622E+03 
  52877.6802     0.15498E+03 
  52909.9424     0.15374E+03 
  52942.2046     0.15251E+03 
  52974.4667     0.15129E+03 
  53006.7289     0.15007E+03 
  53038.9910     0.14886E+03 
  53071.2532     0.14766E+03 
  53103.5154     0.14646E+03 
  53135.7775     0.14526E+03 
  53168.0397     0.14408E+03 
  53200.3018     0.14290E+03 
  53232.5640     0.14173E+03 
  53264.8262     0.14056E+03 
  53297.0883     0.13940E+03 
  53329.3505     0.13824E+03 
  53361.6126     0.13709E+03 
  53393.8748     0.13595E+03 
  53426.1370     0.13482E+03 
  53458.3991     0.13369E+03 
  53490.6613     0.13256E+03 
  53522.9234     0.13145E+03 
  53555.1856     0.13034E+03 
  53587.4478     0.12923E+03 
  53619.7099     0.12813E+03 
  53651.9721     0.12704E+03 
  53684.2342     0.12595E+03 
  53716.4964     0.12487E+03 
  53748.7586     0.12380E+03 
  53781.0207     0.12273E+03 
  53813.2829     0.12167E+03 
  53845.5450     0.12062E+03 
  53877.8072     0.11957E+03 
  53910.0694     0.11852E+03 
  53942.3315     0.11749E+03 
  53974.5937     0.11646E+03 
  54006.8558     0.11543E+03 
  54039.1180     0.11441E+03 
  54071.3802     0.11340E+03 
  54103.6423     0.11239E+03 
  54135.9045     0.11139E+03 
  54168.1666     0.11040E+03 
  54200.4288     0.10941E+03 
  54232.6910     0.10843E+03 
  54264.9531     0.10745E+03 
  54297.2153     0.10648E+03 
  54329.4774     0.10551E+03 
  54361.7396     0.10455E+03 
  54394.0018     0.10360E+03 
  54426.2639     0.10265E+03 
  54458.5261     0.10171E+03 
  54490.7882     0.10078E+03 
  54523.0504     0.99848E+02 
  54555.3126     0.98924E+02 
  54587.5747     0.98006E+02 
  54619.8369     0.97094E+02 
  54652.0990     0.96187E+02 
  54684.3612     0.95286E+02 
  54716.6234     0.94391E+02 
  54748.8855     0.93502E+02 
  54781.1477     0.92618E+02 
  54813.4098     0.91740E+02 
  54845.6720     0.90868E+02 
  54877.9342     0.90001E+02 
  54910.1963     0.89140E+02 
  54942.4585     0.88284E+02 
  54974.7206     0.87434E+02 
  55006.9828     0.86590E+02 
  55039.2450     0.85751E+02 
  55071.5071     0.84917E+02 
  55103.7693     0.84090E+02 
  55136.0314     0.83267E+02 
  55168.2936     0.82450E+02 
  55200.5558     0.81639E+02 
  55232.8179     0.80833E+02 
  55265.0801     0.80032E+02 
  55297.3422     0.79237E+02 
  55329.6044     0.78447E+02 
  55361.8666     0.77662E+02 
  55394.1287     0.76883E+02 
  55426.3909     0.76109E+02 
  55458.6530     0.75340E+02 
  55490.9152     0.74576E+02 
  55523.1774     0.73818E+02 
  55555.4395     0.73065E+02 
  55587.7017     0.72317E+02 
  55619.9638     0.71574E+02 
  55652.2260     0.70837E+02 
  55684.4882     0.70104E+02 
  55716.7503     0.69377E+02 
  55749.0125     0.68655E+02 
  55781.2746     0.67938E+02 
  55813.5368     0.67225E+02 
  55845.7990     0.66518E+02 
  55878.0611     0.65816E+02 
  55910.3233     0.65119E+02 
  55942.5854     0.64427E+02 
  55974.8476     0.63739E+02 
  56007.1098     0.63057E+02 
  56039.3719     0.62380E+02 
  56071.6341     0.61707E+02 
  56103.8962     0.61039E+02 
  56136.1584     0.60376E+02 
  56168.4206     0.59718E+02 
  56200.6827     0.59065E+02 
  56232.9449     0.58416E+02 
  56265.2070     0.57772E+02 
  56297.4692     0.57133E+02 
  56329.7314     0.56499E+02 
  56361.9935     0.55869E+02 
  56394.2557     0.55244E+02 
  56426.5178     0.54623E+02 
  56458.7800     0.54008E+02 
  56491.0422     0.53396E+02 
  56523.3043     0.52789E+02 
  56555.5665     0.52187E+02 
  56587.8286     0.51590E+02 
  56620.0908     0.50996E+02 
  56652.3530     0.50408E+02 
  56684.6151     0.49823E+02 
  56716.8773     0.49244E+02 
  56749.1394     0.48668E+02 
  56781.4016     0.48097E+02 
  56813.6638     0.47531E+02 
  56845.9259     0.46968E+02 
  56878.1881     0.46410E+02 
  56910.4502     0.45857E+02 
  56942.7124     0.45307E+02 
  56974.9746     0.44762E+02 
  57007.2367     0.44221E+02 
  57039.4989     0.43684E+02 
  57071.7610     0.43152E+02 
  57104.0232     0.42624E+02 
  57136.2854     0.42100E+02 
  57168.5475     0.41579E+02 
  57200.8097     0.41064E+02 
  57233.0718     0.40552E+02 
  57265.3340     0.40044E+02 
  57297.5962     0.39540E+02 
  57329.8583     0.39041E+02 
  57362.1205     0.38545E+02 
  57394.3826     0.38053E+02 
  57426.6448     0.37566E+02 
  57458.9070     0.37082E+02 
  57491.1691     0.36602E+02 
  57523.4313     0.36126E+02 
  57555.6934     0.35654E+02 
  57587.9556     0.35186E+02 
  57620.2178     0.34722E+02 
  57652.4799     0.34261E+02 
  57684.7421     0.33805E+02 
  57717.0042     0.33352E+02 
  57749.2664     0.32903E+02 
  57781.5286     0.32457E+02 
  57813.7907     0.32016E+02 
  57846.0529     0.31578E+02 
  57878.3150     0.31144E+02 
  57910.5772     0.30713E+02 
  57942.8394     0.30286E+02 
  57975.1015     0.29863E+02 
  58007.3637     0.29444E+02 
  58039.6258     0.29028E+02 
  58071.8880     0.28615E+02 
  58104.1502     0.28206E+02 
  58136.4123     0.27801E+02 
  58168.6745     0.27399E+02 
  58200.9366     0.27001E+02 
  58233.1988     0.26606E+02 
  58265.4610     0.26215E+02 
  58297.7231     0.25827E+02 
  58329.9853     0.25442E+02 
  58362.2474     0.25061E+02 
  58394.5096     0.24684E+02 
  58426.7718     0.24310E+02 
  58459.0339     0.23939E+02 
  58491.2961     0.23571E+02 
  58523.5582     0.23207E+02 
  58555.8204     0.22846E+02 
  58588.0826     0.22489E+02 
  58620.3447     0.22135E+02 
  58652.6069     0.21784E+02 
  58684.8690     0.21436E+02 
  58717.1312     0.21092E+02 
  58749.3934     0.20750E+02 
  58781.6555     0.20412E+02 
  58813.9177     0.20078E+02 
  58846.1798     0.19746E+02 
  58878.4420     0.19418E+02 
  58910.7042     0.19092E+02 
  58942.9663     0.18770E+02 
  58975.2285     0.18451E+02 
  59007.4906     0.18135E+02 
  59039.7528     0.17822E+02 
  59072.0150     0.17513E+02 
  59104.2771     0.17206E+02 
  59136.5393     0.16902E+02 
  59168.8014     0.16602E+02 
  59201.0636     0.16304E+02 
  59233.3258     0.16010E+02 
  59265.5879     0.15718E+02 
  59297.8501     0.15430E+02 
  59330.1122     0.15144E+02 
  59362.3744     0.14862E+02 
  59394.6366     0.14582E+02 
  59426.8987     0.14305E+02 
  59459.1609     0.14032E+02 
  59491.4230     0.13761E+02 
  59523.6852     0.13493E+02 
  59555.9474     0.13228E+02 
  59588.2095     0.12966E+02 
  59620.4717     0.12707E+02 
  59652.7338     0.12450E+02 
  59684.9960     0.12197E+02 
  59717.2582     0.11946E+02 
  59749.5203     0.11698E+02 
  59781.7825     0.11454E+02 
  59814.0446     0.11211E+02 
  59846.3068     0.10972E+02 
  59878.5690     0.10736E+02 
  59910.8311     0.10502E+02 
  59943.0933     0.10271E+02 
  59975.3554     0.10043E+02 
  60007.6176     0.98176E+01 
  60039.8798     0.95950E+01 
  60072.1419     0.93752E+01 
  60104.4041     0.91581E+01 
  60136.6662     0.89438E+01 
  60168.9284     0.87323E+01 
  60201.1906     0.85235E+01 
  60233.4527     0.83174E+01 
  60265.7149     0.81141E+01 
  60297.9770     0.79134E+01 
  60330.2392     0.77155E+01 
  60362.5014     0.75203E+01 
  60394.7635     0.73279E+01 
  60427.0257     0.71381E+01 
  60459.2878     0.69510E+01 
  60491.5500     0.67667E+01 
  60523.8122     0.65850E+01 
  60556.0743     0.64061E+01 
  60588.3365     0.62298E+01 
  60620.5986     0.60562E+01 
  60652.8608     0.58853E+01 
  60685.1230     0.57171E+01 
  60717.3851     0.55516E+01 
  60749.6473     0.53888E+01 
  60781.9094     0.52287E+01 
  60814.1716     0.50712E+01 
  60846.4338     0.49165E+01 
  60878.6959     0.47644E+01 
  60910.9581     0.46151E+01 
  60943.2202     0.44684E+01 
  60975.4824     0.43244E+01 
  61007.7446     0.41831E+01 
  61040.0067     0.40446E+01 
  61072.2689     0.39087E+01 
  61104.5310     0.37755E+01 
  61136.7932     0.36451E+01 
  61169.0554     0.35174E+01 
  61201.3175     0.33924E+01 
  61233.5797     0.32701E+01 
  61265.8418     0.31506E+01 
  61298.1040     0.30338E+01 
  61330.3662     0.29197E+01 
  61362.6283     0.28084E+01 
  61394.8905     0.26999E+01 
  61427.1526     0.25942E+01 
  61459.4148     0.24912E+01 
  61491.6770     0.23910E+01 
  61523.9391     0.22936E+01 
  61556.2013     0.21991E+01 
  61588.4634     0.21073E+01 
  61620.7256     0.20184E+01 
  61652.9878     0.19323E+01 
  61685.2499     0.18491E+01 
  61717.5121     0.17687E+01 
  61749.7742     0.16913E+01 
  61782.0364     0.16167E+01 
  61814.2986     0.15451E+01 
  61846.5607     0.14763E+01 
  61878.8229     0.14105E+01 
  61911.0850     0.13477E+01 
  61943.3472     0.12878E+01 
  61975.6094     0.12310E+01 
  62007.8715     0.11771E+01 
  62040.1337     0.11263E+01 
  62072.3958     0.10785E+01 
  62104.6580     0.10338E+01 
  62136.9202     0.99224E+00 
  62169.1823     0.95374E+00 
  62201.4445     0.91839E+00 
  62233.7066     0.88619E+00 
  62265.9688     0.85717E+00 
  62298.2310     0.83136E+00 
  62330.4931     0.80878E+00 
  62362.7553     0.78947E+00 
  62395.0174     0.77343E+00 
  62427.2796     0.76071E+00 
  62459.5418     0.75133E+00 
  62491.8039     0.74532E+00 
  62524.0661     0.74272E+00 
  62556.3282     0.74354E+00 
  62588.5904     0.74783E+00 
  62620.8526     0.75561E+00 
  62653.1147     0.76692E+00 
  62685.3769     0.78180E+00 
  62717.6390     0.80028E+00 
  62749.9012     0.82239E+00 
  62782.1634     0.84818E+00 
  62814.4255     0.87768E+00 
  62846.6877     0.91093E+00 
  62878.9498     0.94797E+00 
  62911.2120     0.98885E+00 
  62943.4742     0.10336E+01 
  62975.7363     0.10823E+01 
  63007.9985     0.11349E+01 
  63040.2606     0.11915E+01 
  63072.5228     0.12522E+01 
  63104.7850     0.13170E+01 
  63137.0471     0.13860E+01 
  63169.3093     0.14591E+01 
  63201.5714     0.15366E+01 
  63233.8336     0.16183E+01 
  63266.0958     0.17044E+01 
  63298.3579     0.17948E+01 
  63330.6201     0.18898E+01 
  63362.8822     0.19893E+01 
  63395.1444     0.20934E+01 
  63427.4066     0.22021E+01 
  63459.6687     0.23156E+01 
  63491.9309     0.24338E+01 
  63524.1930     0.25569E+01 
  63556.4552     0.26848E+01 
  63588.7174     0.28178E+01 
  63620.9795     0.29558E+01 
  63653.2417     0.30989E+01 
  63685.5038     0.32472E+01 
  63717.7660     0.34007E+01 
  63750.0282     0.35596E+01 
  63782.2903     0.37239E+01 
  63814.5525     0.38936E+01 
  63846.8146     0.40690E+01 
  63879.0768     0.42500E+01 
  63911.3390     0.44367E+01 
  63943.6011     0.46293E+01 
  63975.8633     0.48278E+01 
  64008.1254     0.50322E+01 
  64040.3876     0.52428E+01 
  64072.6498     0.54595E+01 
  64104.9119     0.56826E+01 
  64137.1741     0.59120E+01 
  64169.4362     0.61478E+01 
  64201.6984     0.63903E+01 
  64233.9606     0.66394E+01 
  64266.2227     0.68953E+01 
  64298.4849     0.71581E+01 
  64330.7470     0.74279E+01 
  64363.0092     0.77048E+01 
  64395.2714     0.79889E+01 
  64427.5335     0.82803E+01 
  64459.7957     0.85792E+01 
  64492.0578     0.88857E+01 
  64524.3200     0.91999E+01 
  64556.5822     0.95220E+01 
  64588.8443     0.98519E+01 
  64621.1065     0.10190E+02 
  64653.3686     0.10536E+02 
  64685.6308     0.10891E+02 
  64717.8930     0.11254E+02 
  64750.1551     0.11626E+02 
  64782.4173     0.12006E+02 
  64814.6794     0.12396E+02 
  64846.9416     0.12794E+02 
  64879.2038     0.13202E+02 
  64911.4659     0.13619E+02 
  64943.7281     0.14046E+02 
  64975.9902     0.14482E+02 
  65008.2524     0.14928E+02 
  65040.5146     0.15385E+02 
  65072.7767     0.15851E+02 
  65105.0389     0.16328E+02 
  65137.3010     0.16815E+02 
  65169.5632     0.17313E+02 
  65201.8254     0.17822E+02 
  65234.0875     0.18342E+02 
  65266.3497     0.18873E+02 
  65298.6118     0.19416E+02 
  65330.8740     0.19971E+02 
  65363.1362     0.20537E+02 
  65395.3983     0.21115E+02 
  65427.6605     0.21706E+02 
  65459.9226     0.22309E+02 
  65492.1848     0.22925E+02 
  65524.4470     0.23553E+02 
  65556.7091     0.24195E+02 
  65588.9713     0.24850E+02 
  65621.2334     0.25519E+02 
  65653.4956     0.26202E+02 
  65685.7578     0.26898E+02 
  65718.0199     0.27609E+02 
  65750.2821     0.28335E+02 
  65782.5442     0.29075E+02 
  65814.8064     0.29830E+02 
  65847.0686     0.30601E+02 
  65879.3307     0.31387E+02 
  65911.5929     0.32189E+02 
  65943.8550     0.33007E+02 
  65976.1172     0.33841E+02 
  66008.3794     0.34692E+02 
  66040.6415     0.35560E+02 
  66072.9037     0.36445E+02 
  66105.1658     0.37348E+02 
  66137.4280     0.38268E+02 
  66169.6902     0.39207E+02 
  66201.9523     0.40164E+02 
  66234.2145     0.41139E+02 
  66266.4766     0.42134E+02 
  66298.7388     0.43148E+02 
  66331.0010     0.44182E+02 
  66363.2631     0.45235E+02 
  66395.5253     0.46309E+02 
  66427.7874     0.47404E+02 
  66460.0496     0.48520E+02 
  66492.3118     0.49657E+02 
  66524.5739     0.50816E+02 
  66556.8361     0.51997E+02 
  66589.0982     0.53201E+02 
  66621.3604     0.54427E+02 
  66653.6226     0.55676E+02 
  66685.8847     0.56950E+02 
  66718.1469     0.58247E+02 
  66750.4090     0.59568E+02 
  66782.6712     0.60915E+02 
  66814.9334     0.62286E+02 
  66847.1955     0.63683E+02 
  66879.4577     0.65107E+02 
  66911.7198     0.66556E+02 
  66943.9820     0.68033E+02 
  66976.2442     0.69537E+02 
  67008.5063     0.71068E+02 
  67040.7685     0.72628E+02 
  67073.0306     0.74217E+02 
  67105.2928     0.75834E+02 
  67137.5550     0.77482E+02 
  67169.8171     0.79159E+02 
  67202.0793     0.80867E+02 
  67234.3414     0.82606E+02 
  67266.6036     0.84376E+02 
  67298.8658     0.86178E+02 
  67331.1279     0.88013E+02 
  67363.3901     0.89881E+02 
  67395.6522     0.91783E+02 
  67427.9144     0.93719E+02 
  67460.1766     0.95689E+02 
  67492.4387     0.97694E+02 
  67524.7009     0.99736E+02 
  67556.9630     0.10181E+03 
  67589.2252     0.10393E+03 
  67621.4874     0.10608E+03 
  67653.7495     0.10827E+03 
  67686.0117     0.11050E+03 
  67718.2738     0.11276E+03 
  67750.5360     0.11507E+03 
  67782.7982     0.11742E+03 
  67815.0603     0.11981E+03 
  67847.3225     0.12224E+03 
  67879.5846     0.12471E+03 
  67911.8468     0.12722E+03 
  67944.1090     0.12978E+03 
  67976.3711     0.13238E+03 
  68008.6333     0.13503E+03 
  68040.8954     0.13772E+03 
  68073.1576     0.14046E+03 
  68105.4198     0.14324E+03 
  68137.6819     0.14608E+03 
  68169.9441     0.14896E+03 
  68202.2062     0.15188E+03 
  68234.4684     0.15486E+03 
  68266.7306     0.15789E+03 
  68298.9927     0.16097E+03 
  68331.2549     0.16410E+03 
  68363.5170     0.16729E+03 
  68395.7792     0.17052E+03 
  68428.0414     0.17381E+03 
  68460.3035     0.17716E+03 
  68492.5657     0.18056E+03 
  68524.8278     0.18401E+03 
  68557.0900     0.18753E+03 
  68589.3522     0.19110E+03 
  68621.6143     0.19472E+03 
  68653.8765     0.19841E+03 
  68686.1386     0.20216E+03 
  68718.4008     0.20597E+03 
  68750.6630     0.20984E+03 
  68782.9251     0.21377E+03 
  68815.1873     0.21777E+03 
  68847.4494     0.22183E+03 
  68879.7116     0.22595E+03 
  68911.9738     0.23015E+03 
  68944.2359     0.23440E+03 
  68976.4981     0.23873E+03 
  69008.7602     0.24312E+03 
  69041.0224     0.24758E+03 
  69073.2846     0.25212E+03 
  69105.5467     0.25672E+03 
  69137.8089     0.26140E+03 
  69170.0710     0.26614E+03 
  69202.3332     0.27097E+03 
  69234.5954     0.27586E+03 
  69266.8575     0.28084E+03 
  69299.1197     0.28588E+03 
  69331.3818     0.29101E+03 
  69363.6440     0.29622E+03 
  69395.9062     0.30150E+03 
  69428.1683     0.30686E+03 
  69460.4305     0.31231E+03 
  69492.6926     0.31784E+03 
  69524.9548     0.32345E+03 
  69557.2170     0.32914E+03 
  69589.4791     0.33492E+03 
  69621.7413     0.34079E+03 
  69654.0034     0.34674E+03 
  69686.2656     0.35278E+03 
  69718.5278     0.35891E+03 
  69750.7899     0.36513E+03 
  69783.0521     0.37144E+03 
  69815.3142     0.37784E+03 
  69847.5764     0.38434E+03 
  69879.8386     0.39093E+03 
  69912.1007     0.39762E+03 
  69944.3629     0.40440E+03 
  69976.6250     0.41128E+03 
  70008.8872     0.41825E+03 
  70041.1494     0.42533E+03 
  70073.4115     0.43251E+03 
  70105.6737     0.43978E+03 
  70137.9358     0.44716E+03 
  70170.1980     0.45465E+03 
  70202.4602     0.46224E+03 
  70234.7223     0.46993E+03 
  70266.9845     0.47773E+03 
  70299.2466     0.48564E+03 
  70331.5088     0.49366E+03 
  70363.7710     0.50178E+03 
  70396.0331     0.51002E+03 
  70428.2953     0.51837E+03 
  70460.5574     0.52684E+03 
  70492.8196     0.53541E+03 
  70525.0818     0.54411E+03 
  70557.3439     0.55292E+03 
  70589.6061     0.56184E+03 
  70621.8682     0.57089E+03 
  70654.1304     0.58005E+03 
  70686.3926     0.58934E+03 
  70718.6547     0.59875E+03 
  70750.9169     0.60828E+03 
  70783.1790     0.61793E+03 
  70815.4412     0.62771E+03 
  70847.7034     0.63762E+03 
  70879.9655     0.64765E+03 
  70912.2277     0.65781E+03 
  70944.4898     0.66810E+03 
  70976.7520     0.67852E+03 
  71009.0142     0.68907E+03 
  71041.2763     0.69976E+03 
  71073.5385     0.71058E+03 
  71105.8006     0.72153E+03 
  71138.0628     0.73262E+03 
  71170.3250     0.74385E+03 
  71202.5871     0.75521E+03 
  71234.8493     0.76671E+03 
  71267.1114     0.77836E+03 
  71299.3736     0.79014E+03 
  71331.6358     0.80207E+03 
  71363.8979     0.81414E+03 
  71396.1601     0.82635E+03 
  71428.4222     0.83871E+03 
  71460.6844     0.85122E+03 
  71492.9466     0.86387E+03 
  71525.2087     0.87667E+03 
  71557.4709     0.88962E+03 
  71589.7330     0.90272E+03 
  71621.9952     0.91598E+03 
  71654.2574     0.92938E+03 
  71686.5195     0.94294E+03 
  71718.7817     0.95665E+03 
  71751.0438     0.97052E+03 
  71783.3060     0.98454E+03 
  71815.5682     0.99872E+03 
  71847.8303     0.10131E+04 
  71880.0925     0.10276E+04 
  71912.3546     0.10422E+04 
  71944.6168     0.10570E+04 
  71976.8790     0.10720E+04 
  72009.1411     0.10872E+04 
  72041.4033     0.11025E+04 
  72073.6654     0.11179E+04 
  72105.9276     0.11336E+04 
  72138.1898     0.11494E+04 
  72170.4519     0.11653E+04 
  72202.7141     0.11815E+04 
  72234.9762     0.11978E+04 
  72267.2384     0.12143E+04 
  72299.5006     0.12309E+04 
  72331.7627     0.12477E+04 
  72364.0249     0.12647E+04 
  72396.2870     0.12819E+04 
  72428.5492     0.12992E+04 
  72460.8114     0.13167E+04 
  72493.0735     0.13344E+04 
  72525.3357     0.13523E+04 
  72557.5978     0.13703E+04 
  72589.8600     0.13885E+04 
