  32262.1600     0.14853E+00 
  32294.4222     0.15021E+00 
  32326.6843     0.15190E+00 
  32358.9465     0.15361E+00 
  32391.2086     0.15533E+00 
  32423.4708     0.15706E+00 
  32455.7330     0.15881E+00 
  32487.9951     0.16056E+00 
  32520.2573     0.16233E+00 
  32552.5194     0.16411E+00 
  32584.7816     0.16591E+00 
  32617.0438     0.16772E+00 
  32649.3059     0.16953E+00 
  32681.5681     0.17137E+00 
  32713.8302     0.17321E+00 
  32746.0924     0.17507E+00 
  32778.3546     0.17694E+00 
  32810.6167     0.17882E+00 
  32842.8789     0.18071E+00 
  32875.1410     0.18262E+00 
  32907.4032     0.18454E+00 
  32939.6654     0.18647E+00 
  32971.9275     0.18842E+00 
  33004.1897     0.19037E+00 
  33036.4518     0.19234E+00 
  33068.7140     0.19432E+00 
  33100.9762     0.19631E+00 
  33133.2383     0.19832E+00 
  33165.5005     0.20034E+00 
  33197.7626     0.20237E+00 
  33230.0248     0.20441E+00 
  33262.2870     0.20646E+00 
  33294.5491     0.20853E+00 
  33326.8113     0.21060E+00 
  33359.0734     0.21269E+00 
  33391.3356     0.21480E+00 
  33423.5978     0.21691E+00 
  33455.8599     0.21903E+00 
  33488.1221     0.22117E+00 
  33520.3842     0.22332E+00 
  33552.6464     0.22548E+00 
  33584.9086     0.22765E+00 
  33617.1707     0.22984E+00 
  33649.4329     0.23203E+00 
  33681.6950     0.23424E+00 
  33713.9572     0.23646E+00 
  33746.2194     0.23868E+00 
  33778.4815     0.24093E+00 
  33810.7437     0.24318E+00 
  33843.0058     0.24544E+00 
  33875.2680     0.24771E+00 
  33907.5302     0.25000E+00 
  33939.7923     0.25229E+00 
  33972.0545     0.25460E+00 
  34004.3166     0.25692E+00 
  34036.5788     0.25925E+00 
  34068.8410     0.26158E+00 
  34101.1031     0.26393E+00 
  34133.3653     0.26629E+00 
  34165.6274     0.26866E+00 
  34197.8896     0.27104E+00 
  34230.1518     0.27344E+00 
  34262.4139     0.27584E+00 
  34294.6761     0.27825E+00 
  34326.9382     0.28067E+00 
  34359.2004     0.28310E+00 
  34391.4626     0.28554E+00 
  34423.7247     0.28799E+00 
  34455.9869     0.29045E+00 
  34488.2490     0.29292E+00 
  34520.5112     0.29540E+00 
  34552.7734     0.29789E+00 
  34585.0355     0.30038E+00 
  34617.2977     0.30289E+00 
  34649.5598     0.30540E+00 
  34681.8220     0.30793E+00 
  34714.0842     0.31046E+00 
  34746.3463     0.31300E+00 
  34778.6085     0.31555E+00 
  34810.8706     0.31811E+00 
  34843.1328     0.32068E+00 
  34875.3950     0.32325E+00 
  34907.6571     0.32584E+00 
  34939.9193     0.32843E+00 
  34972.1814     0.33103E+00 
  35004.4436     0.33364E+00 
  35036.7058     0.33625E+00 
  35068.9679     0.33887E+00 
  35101.2301     0.34150E+00 
  35133.4922     0.34414E+00 
  35165.7544     0.34678E+00 
  35198.0166     0.34943E+00 
  35230.2787     0.35209E+00 
  35262.5409     0.35476E+00 
  35294.8030     0.35743E+00 
  35327.0652     0.36010E+00 
  35359.3274     0.36279E+00 
  35391.5895     0.36548E+00 
  35423.8517     0.36817E+00 
  35456.1138     0.37088E+00 
  35488.3760     0.37358E+00 
  35520.6382     0.37630E+00 
  35552.9003     0.37902E+00 
  35585.1625     0.38174E+00 
  35617.4246     0.38447E+00 
  35649.6868     0.38720E+00 
  35681.9490     0.38994E+00 
  35714.2111     0.39269E+00 
  35746.4733     0.39544E+00 
  35778.7354     0.39819E+00 
  35810.9976     0.40095E+00 
  35843.2598     0.40371E+00 
  35875.5219     0.40647E+00 
  35907.7841     0.40924E+00 
  35940.0462     0.41202E+00 
  35972.3084     0.41479E+00 
  36004.5706     0.41757E+00 
  36036.8327     0.42036E+00 
  36069.0949     0.42314E+00 
  36101.3570     0.42593E+00 
  36133.6192     0.42873E+00 
  36165.8814     0.43152E+00 
  36198.1435     0.43432E+00 
  36230.4057     0.43712E+00 
  36262.6678     0.43992E+00 
  36294.9300     0.44272E+00 
  36327.1922     0.44553E+00 
  36359.4543     0.44833E+00 
  36391.7165     0.45114E+00 
  36423.9786     0.45395E+00 
  36456.2408     0.45676E+00 
  36488.5030     0.45957E+00 
  36520.7651     0.46238E+00 
  36553.0273     0.46520E+00 
  36585.2894     0.46801E+00 
  36617.5516     0.47082E+00 
  36649.8138     0.47363E+00 
  36682.0759     0.47645E+00 
  36714.3381     0.47926E+00 
  36746.6002     0.48207E+00 
  36778.8624     0.48488E+00 
  36811.1246     0.48769E+00 
  36843.3867     0.49050E+00 
  36875.6489     0.49331E+00 
  36907.9110     0.49612E+00 
  36940.1732     0.49892E+00 
  36972.4354     0.50173E+00 
  37004.6975     0.50453E+00 
  37036.9597     0.50733E+00 
  37069.2218     0.51012E+00 
  37101.4840     0.51292E+00 
  37133.7462     0.51571E+00 
  37166.0083     0.51850E+00 
  37198.2705     0.52129E+00 
  37230.5326     0.52407E+00 
  37262.7948     0.52685E+00 
  37295.0570     0.52962E+00 
  37327.3191     0.53240E+00 
  37359.5813     0.53517E+00 
  37391.8434     0.53793E+00 
  37424.1056     0.54069E+00 
  37456.3678     0.54345E+00 
  37488.6299     0.54620E+00 
  37520.8921     0.54894E+00 
  37553.1542     0.55168E+00 
  37585.4164     0.55442E+00 
  37617.6786     0.55715E+00 
  37649.9407     0.55987E+00 
  37682.2029     0.56259E+00 
  37714.4650     0.56531E+00 
  37746.7272     0.56801E+00 
  37778.9894     0.57071E+00 
  37811.2515     0.57341E+00 
  37843.5137     0.57610E+00 
  37875.7758     0.57878E+00 
  37908.0380     0.58145E+00 
  37940.3002     0.58412E+00 
  37972.5623     0.58677E+00 
  38004.8245     0.58943E+00 
  38037.0866     0.59207E+00 
  38069.3488     0.59471E+00 
  38101.6110     0.59733E+00 
  38133.8731     0.59995E+00 
  38166.1353     0.60256E+00 
  38198.3974     0.60517E+00 
  38230.6596     0.60776E+00 
  38262.9218     0.61034E+00 
  38295.1839     0.61292E+00 
  38327.4461     0.61549E+00 
  38359.7082     0.61804E+00 
  38391.9704     0.62059E+00 
  38424.2326     0.62313E+00 
  38456.4947     0.62565E+00 
  38488.7569     0.62817E+00 
  38521.0190     0.63067E+00 
  38553.2812     0.63317E+00 
  38585.5434     0.63566E+00 
  38617.8055     0.63813E+00 
  38650.0677     0.64059E+00 
  38682.3298     0.64304E+00 
  38714.5920     0.64548E+00 
  38746.8542     0.64791E+00 
  38779.1163     0.65033E+00 
  38811.3785     0.65273E+00 
  38843.6406     0.65513E+00 
  38875.9028     0.65751E+00 
  38908.1650     0.65988E+00 
  38940.4271     0.66223E+00 
  38972.6893     0.66457E+00 
  39004.9514     0.66690E+00 
  39037.2136     0.66922E+00 
  39069.4758     0.67152E+00 
  39101.7379     0.67382E+00 
  39134.0001     0.67609E+00 
  39166.2622     0.67836E+00 
  39198.5244     0.68060E+00 
  39230.7866     0.68284E+00 
  39263.0487     0.68506E+00 
  39295.3109     0.68727E+00 
  39327.5730     0.68946E+00 
  39359.8352     0.69164E+00 
  39392.0974     0.69380E+00 
  39424.3595     0.69595E+00 
  39456.6217     0.69808E+00 
  39488.8838     0.70020E+00 
  39521.1460     0.70231E+00 
  39553.4082     0.70439E+00 
  39585.6703     0.70646E+00 
  39617.9325     0.70852E+00 
  39650.1946     0.71056E+00 
  39682.4568     0.71259E+00 
  39714.7190     0.71459E+00 
  39746.9811     0.71659E+00 
  39779.2433     0.71856E+00 
  39811.5054     0.72052E+00 
  39843.7676     0.72246E+00 
  39876.0298     0.72439E+00 
  39908.2919     0.72630E+00 
  39940.5541     0.72819E+00 
  39972.8162     0.73006E+00 
  40005.0784     0.73192E+00 
  40037.3406     0.73376E+00 
  40069.6027     0.73558E+00 
  40101.8649     0.73739E+00 
  40134.1270     0.73918E+00 
  40166.3892     0.74094E+00 
  40198.6514     0.74270E+00 
  40230.9135     0.74443E+00 
  40263.1757     0.74614E+00 
  40295.4378     0.74784E+00 
  40327.7000     0.74952E+00 
  40359.9622     0.75118E+00 
  40392.2243     0.75282E+00 
  40424.4865     0.75444E+00 
  40456.7486     0.75605E+00 
  40489.0108     0.75763E+00 
  40521.2730     0.75920E+00 
  40553.5351     0.76074E+00 
  40585.7973     0.76227E+00 
  40618.0594     0.76378E+00 
  40650.3216     0.76527E+00 
  40682.5838     0.76674E+00 
  40714.8459     0.76819E+00 
  40747.1081     0.76962E+00 
  40779.3702     0.77103E+00 
  40811.6324     0.77242E+00 
  40843.8946     0.77379E+00 
  40876.1567     0.77514E+00 
  40908.4189     0.77647E+00 
  40940.6810     0.77778E+00 
  40972.9432     0.77907E+00 
  41005.2054     0.78034E+00 
  41037.4675     0.78159E+00 
  41069.7297     0.78282E+00 
  41101.9918     0.78403E+00 
  41134.2540     0.78522E+00 
  41166.5162     0.78639E+00 
  41198.7783     0.78754E+00 
  41231.0405     0.78866E+00 
  41263.3026     0.78977E+00 
  41295.5648     0.79085E+00 
  41327.8270     0.79192E+00 
  41360.0891     0.79296E+00 
  41392.3513     0.79398E+00 
  41424.6134     0.79499E+00 
  41456.8756     0.79597E+00 
  41489.1378     0.79693E+00 
  41521.3999     0.79786E+00 
  41553.6621     0.79878E+00 
  41585.9242     0.79968E+00 
  41618.1864     0.80055E+00 
  41650.4486     0.80141E+00 
  41682.7107     0.80224E+00 
  41714.9729     0.80305E+00 
  41747.2350     0.80384E+00 
  41779.4972     0.80460E+00 
  41811.7594     0.80535E+00 
  41844.0215     0.80608E+00 
  41876.2837     0.80678E+00 
  41908.5458     0.80746E+00 
  41940.8080     0.80812E+00 
  41973.0702     0.80876E+00 
  42005.3323     0.80938E+00 
  42037.5945     0.80997E+00 
  42069.8566     0.81055E+00 
  42102.1188     0.81110E+00 
  42134.3810     0.81163E+00 
  42166.6431     0.81214E+00 
  42198.9053     0.81263E+00 
  42231.1674     0.81309E+00 
  42263.4296     0.81354E+00 
  42295.6918     0.81396E+00 
  42327.9539     0.81436E+00 
  42360.2161     0.81474E+00 
  42392.4782     0.81510E+00 
  42424.7404     0.81543E+00 
  42457.0026     0.81575E+00 
  42489.2647     0.81604E+00 
  42521.5269     0.81631E+00 
  42553.7890     0.81656E+00 
  42586.0512     0.81679E+00 
  42618.3134     0.81700E+00 
  42650.5755     0.81718E+00 
  42682.8377     0.81735E+00 
  42715.0998     0.81749E+00 
  42747.3620     0.81761E+00 
  42779.6242     0.81771E+00 
  42811.8863     0.81779E+00 
  42844.1485     0.81784E+00 
  42876.4106     0.81788E+00 
  42908.6728     0.81789E+00 
  42940.9350     0.81788E+00 
  42973.1971     0.81786E+00 
  43005.4593     0.81781E+00 
  43037.7214     0.81773E+00 
  43069.9836     0.81764E+00 
  43102.2458     0.81753E+00 
  43134.5079     0.81739E+00 
  43166.7701     0.81724E+00 
  43199.0322     0.81706E+00 
  43231.2944     0.81686E+00 
  43263.5566     0.81665E+00 
  43295.8187     0.81641E+00 
  43328.0809     0.81615E+00 
  43360.3430     0.81587E+00 
  43392.6052     0.81557E+00 
  43424.8674     0.81524E+00 
  43457.1295     0.81490E+00 
  43489.3917     0.81454E+00 
  43521.6538     0.81415E+00 
  43553.9160     0.81375E+00 
  43586.1782     0.81333E+00 
  43618.4403     0.81288E+00 
  43650.7025     0.81242E+00 
  43682.9646     0.81193E+00 
  43715.2268     0.81143E+00 
  43747.4890     0.81090E+00 
  43779.7511     0.81036E+00 
  43812.0133     0.80979E+00 
  43844.2754     0.80921E+00 
  43876.5376     0.80861E+00 
  43908.7998     0.80798E+00 
  43941.0619     0.80734E+00 
  43973.3241     0.80668E+00 
  44005.5862     0.80600E+00 
  44037.8484     0.80529E+00 
  44070.1106     0.80457E+00 
  44102.3727     0.80383E+00 
  44134.6349     0.80308E+00 
  44166.8970     0.80230E+00 
  44199.1592     0.80150E+00 
  44231.4214     0.80069E+00 
  44263.6835     0.79985E+00 
  44295.9457     0.79900E+00 
  44328.2078     0.79813E+00 
  44360.4700     0.79724E+00 
  44392.7322     0.79633E+00 
  44424.9943     0.79540E+00 
  44457.2565     0.79446E+00 
  44489.5186     0.79350E+00 
  44521.7808     0.79252E+00 
  44554.0430     0.79152E+00 
  44586.3051     0.79050E+00 
  44618.5673     0.78947E+00 
  44650.8294     0.78842E+00 
  44683.0916     0.78735E+00 
  44715.3538     0.78626E+00 
  44747.6159     0.78516E+00 
  44779.8781     0.78404E+00 
  44812.1402     0.78290E+00 
  44844.4024     0.78175E+00 
  44876.6646     0.78058E+00 
  44908.9267     0.77939E+00 
  44941.1889     0.77818E+00 
  44973.4510     0.77696E+00 
  45005.7132     0.77572E+00 
  45037.9754     0.77447E+00 
  45070.2375     0.77320E+00 
  45102.4997     0.77191E+00 
  45134.7618     0.77061E+00 
  45167.0240     0.76929E+00 
  45199.2862     0.76796E+00 
  45231.5483     0.76661E+00 
  45263.8105     0.76525E+00 
  45296.0726     0.76387E+00 
  45328.3348     0.76247E+00 
  45360.5970     0.76106E+00 
  45392.8591     0.75964E+00 
  45425.1213     0.75819E+00 
  45457.3834     0.75674E+00 
  45489.6456     0.75527E+00 
  45521.9078     0.75378E+00 
  45554.1699     0.75229E+00 
  45586.4321     0.75077E+00 
  45618.6942     0.74925E+00 
  45650.9564     0.74770E+00 
  45683.2186     0.74615E+00 
  45715.4807     0.74458E+00 
  45747.7429     0.74300E+00 
  45780.0050     0.74140E+00 
  45812.2672     0.73979E+00 
  45844.5294     0.73817E+00 
  45876.7915     0.73653E+00 
  45909.0537     0.73488E+00 
  45941.3158     0.73322E+00 
  45973.5780     0.73154E+00 
  46005.8402     0.72986E+00 
  46038.1023     0.72815E+00 
  46070.3645     0.72644E+00 
  46102.6266     0.72472E+00 
  46134.8888     0.72298E+00 
  46167.1510     0.72123E+00 
  46199.4131     0.71947E+00 
  46231.6753     0.71769E+00 
  46263.9374     0.71591E+00 
  46296.1996     0.71411E+00 
  46328.4618     0.71231E+00 
  46360.7239     0.71049E+00 
  46392.9861     0.70866E+00 
  46425.2482     0.70682E+00 
  46457.5104     0.70496E+00 
  46489.7726     0.70310E+00 
  46522.0347     0.70123E+00 
  46554.2969     0.69934E+00 
  46586.5590     0.69745E+00 
  46618.8212     0.69554E+00 
  46651.0834     0.69363E+00 
  46683.3455     0.69170E+00 
  46715.6077     0.68977E+00 
  46747.8698     0.68783E+00 
  46780.1320     0.68587E+00 
  46812.3942     0.68391E+00 
  46844.6563     0.68194E+00 
  46876.9185     0.67995E+00 
  46909.1806     0.67796E+00 
  46941.4428     0.67596E+00 
  46973.7050     0.67395E+00 
  47005.9671     0.67194E+00 
  47038.2293     0.66991E+00 
  47070.4914     0.66788E+00 
  47102.7536     0.66583E+00 
  47135.0158     0.66378E+00 
  47167.2779     0.66173E+00 
  47199.5401     0.65966E+00 
  47231.8022     0.65758E+00 
  47264.0644     0.65550E+00 
  47296.3266     0.65341E+00 
  47328.5887     0.65132E+00 
  47360.8509     0.64921E+00 
  47393.1130     0.64710E+00 
  47425.3752     0.64498E+00 
  47457.6374     0.64286E+00 
  47489.8995     0.64073E+00 
  47522.1617     0.63859E+00 
  47554.4238     0.63644E+00 
  47586.6860     0.63429E+00 
  47618.9482     0.63213E+00 
  47651.2103     0.62997E+00 
  47683.4725     0.62780E+00 
  47715.7346     0.62563E+00 
  47747.9968     0.62344E+00 
  47780.2590     0.62126E+00 
  47812.5211     0.61907E+00 
  47844.7833     0.61687E+00 
  47877.0454     0.61467E+00 
  47909.3076     0.61246E+00 
  47941.5698     0.61024E+00 
  47973.8319     0.60803E+00 
  48006.0941     0.60580E+00 
  48038.3562     0.60358E+00 
  48070.6184     0.60135E+00 
  48102.8806     0.59911E+00 
  48135.1427     0.59687E+00 
  48167.4049     0.59463E+00 
  48199.6670     0.59238E+00 
  48231.9292     0.59012E+00 
  48264.1914     0.58787E+00 
  48296.4535     0.58561E+00 
  48328.7157     0.58335E+00 
  48360.9778     0.58108E+00 
  48393.2400     0.57881E+00 
  48425.5022     0.57654E+00 
  48457.7643     0.57426E+00 
  48490.0265     0.57198E+00 
  48522.2886     0.56970E+00 
  48554.5508     0.56741E+00 
  48586.8130     0.56513E+00 
  48619.0751     0.56284E+00 
  48651.3373     0.56055E+00 
  48683.5994     0.55825E+00 
  48715.8616     0.55596E+00 
  48748.1238     0.55366E+00 
  48780.3859     0.55136E+00 
  48812.6481     0.54905E+00 
  48844.9102     0.54675E+00 
  48877.1724     0.54444E+00 
  48909.4346     0.54214E+00 
  48941.6967     0.53983E+00 
  48973.9589     0.53752E+00 
  49006.2210     0.53521E+00 
  49038.4832     0.53290E+00 
  49070.7454     0.53058E+00 
  49103.0075     0.52827E+00 
  49135.2697     0.52595E+00 
  49167.5318     0.52364E+00 
  49199.7940     0.52132E+00 
  49232.0562     0.51901E+00 
  49264.3183     0.51669E+00 
  49296.5805     0.51437E+00 
  49328.8426     0.51206E+00 
  49361.1048     0.50974E+00 
  49393.3670     0.50742E+00 
  49425.6291     0.50510E+00 
  49457.8913     0.50279E+00 
  49490.1534     0.50047E+00 
  49522.4156     0.49816E+00 
  49554.6778     0.49584E+00 
  49586.9399     0.49353E+00 
  49619.2021     0.49121E+00 
  49651.4642     0.48890E+00 
  49683.7264     0.48659E+00 
  49715.9886     0.48428E+00 
  49748.2507     0.48197E+00 
  49780.5129     0.47966E+00 
  49812.7750     0.47735E+00 
  49845.0372     0.47504E+00 
  49877.2994     0.47274E+00 
  49909.5615     0.47043E+00 
  49941.8237     0.46813E+00 
  49974.0858     0.46583E+00 
  50006.3480     0.46353E+00 
  50038.6102     0.46124E+00 
  50070.8723     0.45894E+00 
  50103.1345     0.45665E+00 
  50135.3966     0.45436E+00 
  50167.6588     0.45207E+00 
  50199.9210     0.44979E+00 
  50232.1831     0.44750E+00 
  50264.4453     0.44522E+00 
  50296.7074     0.44295E+00 
  50328.9696     0.44067E+00 
  50361.2318     0.43840E+00 
  50393.4939     0.43613E+00 
  50425.7561     0.43386E+00 
  50458.0182     0.43160E+00 
  50490.2804     0.42933E+00 
  50522.5426     0.42708E+00 
  50554.8047     0.42482E+00 
  50587.0669     0.42257E+00 
  50619.3290     0.42032E+00 
  50651.5912     0.41807E+00 
  50683.8534     0.41583E+00 
  50716.1155     0.41359E+00 
  50748.3777     0.41136E+00 
  50780.6398     0.40913E+00 
  50812.9020     0.40690E+00 
  50845.1642     0.40468E+00 
  50877.4263     0.40246E+00 
  50909.6885     0.40024E+00 
  50941.9506     0.39803E+00 
  50974.2128     0.39582E+00 
  51006.4750     0.39362E+00 
  51038.7371     0.39142E+00 
  51070.9993     0.38922E+00 
  51103.2614     0.38703E+00 
  51135.5236     0.38484E+00 
  51167.7858     0.38266E+00 
  51200.0479     0.38048E+00 
  51232.3101     0.37831E+00 
  51264.5722     0.37614E+00 
  51296.8344     0.37398E+00 
  51329.0966     0.37182E+00 
  51361.3587     0.36966E+00 
  51393.6209     0.36751E+00 
  51425.8830     0.36537E+00 
  51458.1452     0.36323E+00 
  51490.4074     0.36109E+00 
  51522.6695     0.35896E+00 
  51554.9317     0.35684E+00 
  51587.1938     0.35472E+00 
  51619.4560     0.35260E+00 
  51651.7182     0.35049E+00 
  51683.9803     0.34839E+00 
  51716.2425     0.34629E+00 
  51748.5046     0.34419E+00 
  51780.7668     0.34211E+00 
  51813.0290     0.34002E+00 
  51845.2911     0.33794E+00 
  51877.5533     0.33587E+00 
  51909.8154     0.33381E+00 
  51942.0776     0.33175E+00 
  51974.3398     0.32969E+00 
  52006.6019     0.32764E+00 
  52038.8641     0.32560E+00 
  52071.1262     0.32356E+00 
  52103.3884     0.32153E+00 
  52135.6506     0.31950E+00 
  52167.9127     0.31748E+00 
  52200.1749     0.31547E+00 
  52232.4370     0.31346E+00 
  52264.6992     0.31145E+00 
  52296.9614     0.30946E+00 
  52329.2235     0.30747E+00 
  52361.4857     0.30548E+00 
  52393.7478     0.30351E+00 
  52426.0100     0.30153E+00 
  52458.2722     0.29957E+00 
  52490.5343     0.29761E+00 
  52522.7965     0.29565E+00 
  52555.0586     0.29371E+00 
  52587.3208     0.29177E+00 
  52619.5830     0.28983E+00 
  52651.8451     0.28791E+00 
  52684.1073     0.28598E+00 
  52716.3694     0.28407E+00 
  52748.6316     0.28216E+00 
  52780.8938     0.28026E+00 
  52813.1559     0.27836E+00 
  52845.4181     0.27647E+00 
  52877.6802     0.27459E+00 
  52909.9424     0.27272E+00 
  52942.2046     0.27085E+00 
  52974.4667     0.26898E+00 
  53006.7289     0.26713E+00 
  53038.9910     0.26528E+00 
  53071.2532     0.26344E+00 
  53103.5154     0.26160E+00 
  53135.7775     0.25977E+00 
  53168.0397     0.25795E+00 
  53200.3018     0.25613E+00 
  53232.5640     0.25432E+00 
  53264.8262     0.25252E+00 
  53297.0883     0.25073E+00 
  53329.3505     0.24894E+00 
  53361.6126     0.24716E+00 
  53393.8748     0.24538E+00 
  53426.1370     0.24362E+00 
  53458.3991     0.24185E+00 
  53490.6613     0.24010E+00 
  53522.9234     0.23835E+00 
  53555.1856     0.23661E+00 
  53587.4478     0.23488E+00 
  53619.7099     0.23315E+00 
  53651.9721     0.23144E+00 
  53684.2342     0.22972E+00 
  53716.4964     0.22802E+00 
  53748.7586     0.22632E+00 
  53781.0207     0.22463E+00 
  53813.2829     0.22295E+00 
  53845.5450     0.22127E+00 
  53877.8072     0.21960E+00 
  53910.0694     0.21794E+00 
  53942.3315     0.21628E+00 
  53974.5937     0.21463E+00 
  54006.8558     0.21299E+00 
  54039.1180     0.21136E+00 
  54071.3802     0.20973E+00 
  54103.6423     0.20811E+00 
  54135.9045     0.20649E+00 
  54168.1666     0.20489E+00 
  54200.4288     0.20329E+00 
  54232.6910     0.20170E+00 
  54264.9531     0.20011E+00 
  54297.2153     0.19854E+00 
  54329.4774     0.19696E+00 
  54361.7396     0.19540E+00 
  54394.0018     0.19385E+00 
  54426.2639     0.19230E+00 
  54458.5261     0.19075E+00 
  54490.7882     0.18922E+00 
  54523.0504     0.18769E+00 
  54555.3126     0.18617E+00 
  54587.5747     0.18466E+00 
  54619.8369     0.18315E+00 
  54652.0990     0.18165E+00 
  54684.3612     0.18016E+00 
  54716.6234     0.17867E+00 
  54748.8855     0.17719E+00 
  54781.1477     0.17572E+00 
  54813.4098     0.17426E+00 
  54845.6720     0.17280E+00 
  54877.9342     0.17135E+00 
  54910.1963     0.16991E+00 
  54942.4585     0.16848E+00 
  54974.7206     0.16705E+00 
  55006.9828     0.16563E+00 
  55039.2450     0.16421E+00 
  55071.5071     0.16280E+00 
  55103.7693     0.16140E+00 
  55136.0314     0.16001E+00 
  55168.2936     0.15862E+00 
  55200.5558     0.15725E+00 
  55232.8179     0.15587E+00 
  55265.0801     0.15451E+00 
  55297.3422     0.15315E+00 
  55329.6044     0.15180E+00 
  55361.8666     0.15046E+00 
  55394.1287     0.14912E+00 
  55426.3909     0.14779E+00 
  55458.6530     0.14646E+00 
  55490.9152     0.14515E+00 
  55523.1774     0.14384E+00 
  55555.4395     0.14254E+00 
  55587.7017     0.14124E+00 
  55619.9638     0.13995E+00 
  55652.2260     0.13867E+00 
  55684.4882     0.13740E+00 
  55716.7503     0.13613E+00 
  55749.0125     0.13487E+00 
  55781.2746     0.13361E+00 
  55813.5368     0.13237E+00 
  55845.7990     0.13113E+00 
  55878.0611     0.12989E+00 
  55910.3233     0.12867E+00 
  55942.5854     0.12745E+00 
  55974.8476     0.12623E+00 
  56007.1098     0.12503E+00 
  56039.3719     0.12383E+00 
  56071.6341     0.12263E+00 
  56103.8962     0.12145E+00 
  56136.1584     0.12027E+00 
  56168.4206     0.11910E+00 
  56200.6827     0.11793E+00 
  56232.9449     0.11677E+00 
  56265.2070     0.11562E+00 
  56297.4692     0.11447E+00 
  56329.7314     0.11333E+00 
  56361.9935     0.11220E+00 
  56394.2557     0.11107E+00 
  56426.5178     0.10995E+00 
  56458.7800     0.10884E+00 
  56491.0422     0.10773E+00 
  56523.3043     0.10663E+00 
  56555.5665     0.10554E+00 
  56587.8286     0.10445E+00 
  56620.0908     0.10337E+00 
  56652.3530     0.10230E+00 
  56684.6151     0.10123E+00 
  56716.8773     0.10017E+00 
  56749.1394     0.99118E-01 
  56781.4016     0.98069E-01 
  56813.6638     0.97028E-01 
  56845.9259     0.95992E-01 
  56878.1881     0.94964E-01 
  56910.4502     0.93941E-01 
  56942.7124     0.92925E-01 
  56974.9746     0.91915E-01 
  57007.2367     0.90911E-01 
  57039.4989     0.89914E-01 
  57071.7610     0.88923E-01 
  57104.0232     0.87938E-01 
  57136.2854     0.86960E-01 
  57168.5475     0.85988E-01 
  57200.8097     0.85021E-01 
  57233.0718     0.84062E-01 
  57265.3340     0.83108E-01 
  57297.5962     0.82160E-01 
  57329.8583     0.81219E-01 
  57362.1205     0.80284E-01 
  57394.3826     0.79355E-01 
  57426.6448     0.78432E-01 
  57458.9070     0.77515E-01 
  57491.1691     0.76604E-01 
  57523.4313     0.75699E-01 
  57555.6934     0.74800E-01 
  57587.9556     0.73908E-01 
  57620.2178     0.73021E-01 
  57652.4799     0.72140E-01 
  57684.7421     0.71265E-01 
  57717.0042     0.70396E-01 
  57749.2664     0.69533E-01 
  57781.5286     0.68676E-01 
  57813.7907     0.67825E-01 
  57846.0529     0.66980E-01 
  57878.3150     0.66141E-01 
  57910.5772     0.65307E-01 
  57942.8394     0.64480E-01 
  57975.1015     0.63658E-01 
  58007.3637     0.62842E-01 
  58039.6258     0.62032E-01 
  58071.8880     0.61228E-01 
  58104.1502     0.60429E-01 
  58136.4123     0.59636E-01 
  58168.6745     0.58849E-01 
  58200.9366     0.58068E-01 
  58233.1988     0.57292E-01 
  58265.4610     0.56522E-01 
  58297.7231     0.55758E-01 
  58329.9853     0.54999E-01 
  58362.2474     0.54246E-01 
  58394.5096     0.53499E-01 
  58426.7718     0.52757E-01 
  58459.0339     0.52021E-01 
  58491.2961     0.51290E-01 
  58523.5582     0.50565E-01 
  58555.8204     0.49846E-01 
  58588.0826     0.49132E-01 
  58620.3447     0.48424E-01 
  58652.6069     0.47721E-01 
  58684.8690     0.47024E-01 
  58717.1312     0.46333E-01 
  58749.3934     0.45646E-01 
  58781.6555     0.44966E-01 
  58813.9177     0.44291E-01 
  58846.1798     0.43621E-01 
  58878.4420     0.42957E-01 
  58910.7042     0.42298E-01 
  58942.9663     0.41645E-01 
  58975.2285     0.40997E-01 
  59007.4906     0.40354E-01 
  59039.7528     0.39717E-01 
  59072.0150     0.39086E-01 
  59104.2771     0.38459E-01 
  59136.5393     0.37838E-01 
  59168.8014     0.37223E-01 
  59201.0636     0.36613E-01 
  59233.3258     0.36008E-01 
  59265.5879     0.35409E-01 
  59297.8501     0.34815E-01 
  59330.1122     0.34226E-01 
  59362.3744     0.33642E-01 
  59394.6366     0.33064E-01 
  59426.8987     0.32492E-01 
  59459.1609     0.31924E-01 
  59491.4230     0.31362E-01 
  59523.6852     0.30805E-01 
  59555.9474     0.30254E-01 
  59588.2095     0.29708E-01 
  59620.4717     0.29167E-01 
  59652.7338     0.28631E-01 
  59684.9960     0.28101E-01 
  59717.2582     0.27576E-01 
  59749.5203     0.27056E-01 
  59781.7825     0.26542E-01 
  59814.0446     0.26033E-01 
  59846.3068     0.25529E-01 
  59878.5690     0.25031E-01 
  59910.8311     0.24537E-01 
  59943.0933     0.24050E-01 
  59975.3554     0.23567E-01 
  60007.6176     0.23090E-01 
  60039.8798     0.22618E-01 
  60072.1419     0.22151E-01 
  60104.4041     0.21690E-01 
  60136.6662     0.21234E-01 
  60168.9284     0.20783E-01 
  60201.1906     0.20338E-01 
  60233.4527     0.19897E-01 
  60265.7149     0.19463E-01 
  60297.9770     0.19033E-01 
  60330.2392     0.18609E-01 
  60362.5014     0.18191E-01 
  60394.7635     0.17778E-01 
  60427.0257     0.17370E-01 
  60459.2878     0.16967E-01 
  60491.5500     0.16570E-01 
  60523.8122     0.16179E-01 
  60556.0743     0.15792E-01 
  60588.3365     0.15412E-01 
  60620.5986     0.15037E-01 
  60652.8608     0.14667E-01 
  60685.1230     0.14303E-01 
  60717.3851     0.13944E-01 
  60749.6473     0.13591E-01 
  60781.9094     0.13243E-01 
  60814.1716     0.12901E-01 
  60846.4338     0.12564E-01 
  60878.6959     0.12233E-01 
  60910.9581     0.11908E-01 
  60943.2202     0.11589E-01 
  60975.4824     0.11275E-01 
  61007.7446     0.10967E-01 
  61040.0067     0.10664E-01 
  61072.2689     0.10368E-01 
  61104.5310     0.10077E-01 
  61136.7932     0.97915E-02 
  61169.0554     0.95123E-02 
  61201.3175     0.92389E-02 
  61233.5797     0.89715E-02 
  61265.8418     0.87100E-02 
  61298.1040     0.84545E-02 
  61330.3662     0.82049E-02 
  61362.6283     0.79615E-02 
  61394.8905     0.77241E-02 
  61427.1526     0.74928E-02 
  61459.4148     0.72677E-02 
  61491.6770     0.70488E-02 
  61523.9391     0.68361E-02 
  61556.2013     0.66297E-02 
  61588.4634     0.64297E-02 
  61620.7256     0.62360E-02 
  61652.9878     0.60487E-02 
  61685.2499     0.58679E-02 
  61717.5121     0.56936E-02 
  61749.7742     0.55259E-02 
  61782.0364     0.53648E-02 
  61814.2986     0.52104E-02 
  61846.5607     0.50627E-02 
  61878.8229     0.49218E-02 
  61911.0850     0.47878E-02 
  61943.3472     0.46606E-02 
  61975.6094     0.45404E-02 
  62007.8715     0.44273E-02 
  62040.1337     0.43212E-02 
  62072.3958     0.42222E-02 
  62104.6580     0.41305E-02 
  62136.9202     0.40461E-02 
  62169.1823     0.39690E-02 
  62201.4445     0.38994E-02 
  62233.7066     0.38373E-02 
  62265.9688     0.37827E-02 
  62298.2310     0.37358E-02 
  62330.4931     0.36966E-02 
  62362.7553     0.36653E-02 
  62395.0174     0.36418E-02 
  62427.2796     0.36264E-02 
  62459.5418     0.36189E-02 
  62491.8039     0.36197E-02 
  62524.0661     0.36287E-02 
  62556.3282     0.36460E-02 
  62588.5904     0.36718E-02 
  62620.8526     0.37061E-02 
  62653.1147     0.37490E-02 
  62685.3769     0.38006E-02 
  62717.6390     0.38611E-02 
  62749.9012     0.39305E-02 
  62782.1634     0.40089E-02 
  62814.4255     0.40965E-02 
  62846.6877     0.41933E-02 
  62878.9498     0.42995E-02 
  62911.2120     0.44152E-02 
  62943.4742     0.45406E-02 
  62975.7363     0.46756E-02 
  63007.9985     0.48205E-02 
  63040.2606     0.49753E-02 
  63072.5228     0.51403E-02 
  63104.7850     0.53155E-02 
  63137.0471     0.55010E-02 
  63169.3093     0.56970E-02 
  63201.5714     0.59037E-02 
  63233.8336     0.61212E-02 
  63266.0958     0.63496E-02 
  63298.3579     0.65891E-02 
  63330.6201     0.68397E-02 
  63362.8822     0.71018E-02 
  63395.1444     0.73753E-02 
  63427.4066     0.76606E-02 
  63459.6687     0.79577E-02 
  63491.9309     0.82668E-02 
  63524.1930     0.85880E-02 
  63556.4552     0.89216E-02 
  63588.7174     0.92678E-02 
  63620.9795     0.96266E-02 
  63653.2417     0.99983E-02 
  63685.5038     0.10383E-01 
  63717.7660     0.10781E-01 
  63750.0282     0.11192E-01 
  63782.2903     0.11617E-01 
  63814.5525     0.12056E-01 
  63846.8146     0.12509E-01 
  63879.0768     0.12976E-01 
  63911.3390     0.13457E-01 
  63943.6011     0.13954E-01 
  63975.8633     0.14464E-01 
  64008.1254     0.14990E-01 
  64040.3876     0.15532E-01 
  64072.6498     0.16088E-01 
  64104.9119     0.16661E-01 
  64137.1741     0.17249E-01 
  64169.4362     0.17854E-01 
  64201.6984     0.18475E-01 
  64233.9606     0.19113E-01 
  64266.2227     0.19767E-01 
  64298.4849     0.20439E-01 
  64330.7470     0.21128E-01 
  64363.0092     0.21835E-01 
  64395.2714     0.22560E-01 
  64427.5335     0.23303E-01 
  64459.7957     0.24065E-01 
  64492.0578     0.24845E-01 
  64524.3200     0.25644E-01 
  64556.5822     0.26463E-01 
  64588.8443     0.27301E-01 
  64621.1065     0.28159E-01 
  64653.3686     0.29038E-01 
  64685.6308     0.29937E-01 
  64717.8930     0.30856E-01 
  64750.1551     0.31797E-01 
  64782.4173     0.32759E-01 
  64814.6794     0.33744E-01 
  64846.9416     0.34750E-01 
  64879.2038     0.35778E-01 
  64911.4659     0.36829E-01 
  64943.7281     0.37904E-01 
  64975.9902     0.39002E-01 
  65008.2524     0.40123E-01 
  65040.5146     0.41269E-01 
  65072.7767     0.42439E-01 
  65105.0389     0.43634E-01 
  65137.3010     0.44854E-01 
  65169.5632     0.46100E-01 
  65201.8254     0.47372E-01 
  65234.0875     0.48671E-01 
  65266.3497     0.49996E-01 
  65298.6118     0.51348E-01 
  65330.8740     0.52728E-01 
  65363.1362     0.54135E-01 
  65395.3983     0.55571E-01 
  65427.6605     0.57036E-01 
  65459.9226     0.58530E-01 
  65492.1848     0.60054E-01 
  65524.4470     0.61608E-01 
  65556.7091     0.63193E-01 
  65588.9713     0.64808E-01 
  65621.2334     0.66455E-01 
  65653.4956     0.68134E-01 
  65685.7578     0.69845E-01 
  65718.0199     0.71588E-01 
  65750.2821     0.73366E-01 
  65782.5442     0.75177E-01 
  65814.8064     0.77022E-01 
  65847.0686     0.78902E-01 
  65879.3307     0.80817E-01 
  65911.5929     0.82768E-01 
  65943.8550     0.84755E-01 
  65976.1172     0.86779E-01 
  66008.3794     0.88841E-01 
  66040.6415     0.90940E-01 
  66072.9037     0.93078E-01 
  66105.1658     0.95254E-01 
  66137.4280     0.97470E-01 
  66169.6902     0.99726E-01 
  66201.9523     0.10202E+00 
  66234.2145     0.10436E+00 
  66266.4766     0.10674E+00 
  66298.7388     0.10916E+00 
  66331.0010     0.11163E+00 
  66363.2631     0.11413E+00 
  66395.5253     0.11669E+00 
  66427.7874     0.11928E+00 
  66460.0496     0.12193E+00 
  66492.3118     0.12461E+00 
  66524.5739     0.12735E+00 
  66556.8361     0.13013E+00 
  66589.0982     0.13296E+00 
  66621.3604     0.13584E+00 
  66653.6226     0.13877E+00 
  66685.8847     0.14174E+00 
  66718.1469     0.14477E+00 
  66750.4090     0.14785E+00 
  66782.6712     0.15098E+00 
  66814.9334     0.15416E+00 
  66847.1955     0.15740E+00 
  66879.4577     0.16069E+00 
  66911.7198     0.16404E+00 
  66943.9820     0.16744E+00 
  66976.2442     0.17089E+00 
  67008.5063     0.17441E+00 
  67040.7685     0.17798E+00 
  67073.0306     0.18160E+00 
  67105.2928     0.18529E+00 
  67137.5550     0.18904E+00 
  67169.8171     0.19285E+00 
  67202.0793     0.19672E+00 
  67234.3414     0.20065E+00 
  67266.6036     0.20464E+00 
  67298.8658     0.20870E+00 
  67331.1279     0.21282E+00 
  67363.3901     0.21701E+00 
  67395.6522     0.22126E+00 
  67427.9144     0.22558E+00 
  67460.1766     0.22997E+00 
  67492.4387     0.23442E+00 
  67524.7009     0.23895E+00 
  67556.9630     0.24354E+00 
  67589.2252     0.24821E+00 
  67621.4874     0.25294E+00 
  67653.7495     0.25775E+00 
  67686.0117     0.26264E+00 
  67718.2738     0.26760E+00 
  67750.5360     0.27263E+00 
  67782.7982     0.27774E+00 
  67815.0603     0.28293E+00 
  67847.3225     0.28819E+00 
  67879.5846     0.29353E+00 
  67911.8468     0.29896E+00 
  67944.1090     0.30446E+00 
  67976.3711     0.31004E+00 
  68008.6333     0.31571E+00 
  68040.8954     0.32146E+00 
  68073.1576     0.32730E+00 
  68105.4198     0.33322E+00 
  68137.6819     0.33922E+00 
  68169.9441     0.34532E+00 
  68202.2062     0.35150E+00 
  68234.4684     0.35777E+00 
  68266.7306     0.36413E+00 
  68298.9927     0.37058E+00 
  68331.2549     0.37713E+00 
  68363.5170     0.38376E+00 
  68395.7792     0.39049E+00 
  68428.0414     0.39732E+00 
  68460.3035     0.40424E+00 
  68492.5657     0.41126E+00 
  68524.8278     0.41838E+00 
  68557.0900     0.42559E+00 
  68589.3522     0.43291E+00 
  68621.6143     0.44032E+00 
  68653.8765     0.44784E+00 
  68686.1386     0.45546E+00 
  68718.4008     0.46319E+00 
  68750.6630     0.47102E+00 
  68782.9251     0.47895E+00 
  68815.1873     0.48700E+00 
  68847.4494     0.49515E+00 
  68879.7116     0.50341E+00 
  68911.9738     0.51178E+00 
  68944.2359     0.52026E+00 
  68976.4981     0.52886E+00 
  69008.7602     0.53757E+00 
  69041.0224     0.54639E+00 
  69073.2846     0.55533E+00 
  69105.5467     0.56438E+00 
  69137.8089     0.57355E+00 
  69170.0710     0.58284E+00 
  69202.3332     0.59226E+00 
  69234.5954     0.60179E+00 
  69266.8575     0.61144E+00 
  69299.1197     0.62122E+00 
  69331.3818     0.63112E+00 
  69363.6440     0.64115E+00 
  69395.9062     0.65130E+00 
  69428.1683     0.66158E+00 
  69460.4305     0.67199E+00 
  69492.6926     0.68253E+00 
  69524.9548     0.69320E+00 
  69557.2170     0.70400E+00 
  69589.4791     0.71493E+00 
  69621.7413     0.72600E+00 
  69654.0034     0.73720E+00 
  69686.2656     0.74854E+00 
  69718.5278     0.76001E+00 
  69750.7899     0.77163E+00 
  69783.0521     0.78338E+00 
  69815.3142     0.79527E+00 
  69847.5764     0.80731E+00 
  69879.8386     0.81948E+00 
  69912.1007     0.83180E+00 
  69944.3629     0.84427E+00 
  69976.6250     0.85688E+00 
  70008.8872     0.86964E+00 
  70041.1494     0.88254E+00 
  70073.4115     0.89560E+00 
  70105.6737     0.90880E+00 
  70137.9358     0.92216E+00 
  70170.1980     0.93567E+00 
  70202.4602     0.94933E+00 
  70234.7223     0.96315E+00 
  70266.9845     0.97712E+00 
  70299.2466     0.99124E+00 
  70331.5088     0.10055E+01 
  70363.7710     0.10200E+01 
  70396.0331     0.10346E+01 
  70428.2953     0.10493E+01 
  70460.5574     0.10643E+01 
  70492.8196     0.10793E+01 
  70525.0818     0.10946E+01 
  70557.3439     0.11100E+01 
  70589.6061     0.11256E+01 
  70621.8682     0.11413E+01 
  70654.1304     0.11572E+01 
  70686.3926     0.11733E+01 
  70718.6547     0.11896E+01 
  70750.9169     0.12060E+01 
  70783.1790     0.12226E+01 
  70815.4412     0.12394E+01 
  70847.7034     0.12563E+01 
  70879.9655     0.12734E+01 
  70912.2277     0.12907E+01 
  70944.4898     0.13082E+01 
  70976.7520     0.13258E+01 
  71009.0142     0.13436E+01 
  71041.2763     0.13616E+01 
  71073.5385     0.13798E+01 
  71105.8006     0.13981E+01 
  71138.0628     0.14167E+01 
  71170.3250     0.14354E+01 
  71202.5871     0.14543E+01 
  71234.8493     0.14734E+01 
  71267.1114     0.14926E+01 
  71299.3736     0.15121E+01 
  71331.6358     0.15317E+01 
  71363.8979     0.15516E+01 
  71396.1601     0.15716E+01 
  71428.4222     0.15918E+01 
  71460.6844     0.16122E+01 
  71492.9466     0.16327E+01 
  71525.2087     0.16535E+01 
  71557.4709     0.16745E+01 
  71589.7330     0.16956E+01 
  71621.9952     0.17170E+01 
  71654.2574     0.17385E+01 
  71686.5195     0.17602E+01 
  71718.7817     0.17822E+01 
  71751.0438     0.18043E+01 
  71783.3060     0.18266E+01 
  71815.5682     0.18491E+01 
  71847.8303     0.18718E+01 
  71880.0925     0.18947E+01 
  71912.3546     0.19178E+01 
  71944.6168     0.19411E+01 
  71976.8790     0.19646E+01 
  72009.1411     0.19883E+01 
  72041.4033     0.20122E+01 
  72073.6654     0.20363E+01 
  72105.9276     0.20606E+01 
  72138.1898     0.20851E+01 
  72170.4519     0.21098E+01 
  72202.7141     0.21347E+01 
  72234.9762     0.21599E+01 
  72267.2384     0.21852E+01 
  72299.5006     0.22107E+01 
  72331.7627     0.22364E+01 
  72364.0249     0.22623E+01 
  72396.2870     0.22884E+01 
  72428.5492     0.23147E+01 
  72460.8114     0.23413E+01 
  72493.0735     0.23680E+01 
  72525.3357     0.23949E+01 
  72557.5978     0.24221E+01 
  72589.8600     0.24494E+01 
