  32262.1600     0.72252E+01 
  32294.4222     0.73127E+01 
  32326.6843     0.74010E+01 
  32358.9465     0.74900E+01 
  32391.2086     0.75797E+01 
  32423.4708     0.76701E+01 
  32455.7330     0.77612E+01 
  32487.9951     0.78531E+01 
  32520.2573     0.79456E+01 
  32552.5194     0.80389E+01 
  32584.7816     0.81329E+01 
  32617.0438     0.82276E+01 
  32649.3059     0.83231E+01 
  32681.5681     0.84192E+01 
  32713.8302     0.85161E+01 
  32746.0924     0.86136E+01 
  32778.3546     0.87119E+01 
  32810.6167     0.88109E+01 
  32842.8789     0.89107E+01 
  32875.1410     0.90111E+01 
  32907.4032     0.91122E+01 
  32939.6654     0.92141E+01 
  32971.9275     0.93167E+01 
  33004.1897     0.94199E+01 
  33036.4518     0.95239E+01 
  33068.7140     0.96286E+01 
  33100.9762     0.97340E+01 
  33133.2383     0.98401E+01 
  33165.5005     0.99470E+01 
  33197.7626     0.10054E+02 
  33230.0248     0.10163E+02 
  33262.2870     0.10272E+02 
  33294.5491     0.10381E+02 
  33326.8113     0.10491E+02 
  33359.0734     0.10602E+02 
  33391.3356     0.10714E+02 
  33423.5978     0.10827E+02 
  33455.8599     0.10940E+02 
  33488.1221     0.11053E+02 
  33520.3842     0.11168E+02 
  33552.6464     0.11283E+02 
  33584.9086     0.11399E+02 
  33617.1707     0.11515E+02 
  33649.4329     0.11632E+02 
  33681.6950     0.11750E+02 
  33713.9572     0.11868E+02 
  33746.2194     0.11987E+02 
  33778.4815     0.12107E+02 
  33810.7437     0.12228E+02 
  33843.0058     0.12349E+02 
  33875.2680     0.12470E+02 
  33907.5302     0.12593E+02 
  33939.7923     0.12716E+02 
  33972.0545     0.12839E+02 
  34004.3166     0.12963E+02 
  34036.5788     0.13088E+02 
  34068.8410     0.13214E+02 
  34101.1031     0.13340E+02 
  34133.3653     0.13466E+02 
  34165.6274     0.13594E+02 
  34197.8896     0.13722E+02 
  34230.1518     0.13850E+02 
  34262.4139     0.13979E+02 
  34294.6761     0.14109E+02 
  34326.9382     0.14239E+02 
  34359.2004     0.14370E+02 
  34391.4626     0.14501E+02 
  34423.7247     0.14633E+02 
  34455.9869     0.14766E+02 
  34488.2490     0.14899E+02 
  34520.5112     0.15033E+02 
  34552.7734     0.15167E+02 
  34585.0355     0.15301E+02 
  34617.2977     0.15437E+02 
  34649.5598     0.15572E+02 
  34681.8220     0.15709E+02 
  34714.0842     0.15846E+02 
  34746.3463     0.15983E+02 
  34778.6085     0.16121E+02 
  34810.8706     0.16259E+02 
  34843.1328     0.16398E+02 
  34875.3950     0.16537E+02 
  34907.6571     0.16677E+02 
  34939.9193     0.16817E+02 
  34972.1814     0.16958E+02 
  35004.4436     0.17099E+02 
  35036.7058     0.17240E+02 
  35068.9679     0.17382E+02 
  35101.2301     0.17525E+02 
  35133.4922     0.17668E+02 
  35165.7544     0.17811E+02 
  35198.0166     0.17955E+02 
  35230.2787     0.18099E+02 
  35262.5409     0.18243E+02 
  35294.8030     0.18388E+02 
  35327.0652     0.18533E+02 
  35359.3274     0.18679E+02 
  35391.5895     0.18825E+02 
  35423.8517     0.18971E+02 
  35456.1138     0.19118E+02 
  35488.3760     0.19265E+02 
  35520.6382     0.19412E+02 
  35552.9003     0.19560E+02 
  35585.1625     0.19707E+02 
  35617.4246     0.19856E+02 
  35649.6868     0.20004E+02 
  35681.9490     0.20153E+02 
  35714.2111     0.20302E+02 
  35746.4733     0.20451E+02 
  35778.7354     0.20601E+02 
  35810.9976     0.20751E+02 
  35843.2598     0.20901E+02 
  35875.5219     0.21051E+02 
  35907.7841     0.21202E+02 
  35940.0462     0.21353E+02 
  35972.3084     0.21504E+02 
  36004.5706     0.21655E+02 
  36036.8327     0.21806E+02 
  36069.0949     0.21957E+02 
  36101.3570     0.22109E+02 
  36133.6192     0.22261E+02 
  36165.8814     0.22413E+02 
  36198.1435     0.22565E+02 
  36230.4057     0.22717E+02 
  36262.6678     0.22869E+02 
  36294.9300     0.23022E+02 
  36327.1922     0.23174E+02 
  36359.4543     0.23327E+02 
  36391.7165     0.23480E+02 
  36423.9786     0.23632E+02 
  36456.2408     0.23785E+02 
  36488.5030     0.23938E+02 
  36520.7651     0.24091E+02 
  36553.0273     0.24244E+02 
  36585.2894     0.24397E+02 
  36617.5516     0.24549E+02 
  36649.8138     0.24702E+02 
  36682.0759     0.24855E+02 
  36714.3381     0.25008E+02 
  36746.6002     0.25161E+02 
  36778.8624     0.25313E+02 
  36811.1246     0.25466E+02 
  36843.3867     0.25619E+02 
  36875.6489     0.25771E+02 
  36907.9110     0.25924E+02 
  36940.1732     0.26076E+02 
  36972.4354     0.26228E+02 
  37004.6975     0.26380E+02 
  37036.9597     0.26532E+02 
  37069.2218     0.26684E+02 
  37101.4840     0.26835E+02 
  37133.7462     0.26987E+02 
  37166.0083     0.27138E+02 
  37198.2705     0.27289E+02 
  37230.5326     0.27440E+02 
  37262.7948     0.27591E+02 
  37295.0570     0.27741E+02 
  37327.3191     0.27891E+02 
  37359.5813     0.28041E+02 
  37391.8434     0.28191E+02 
  37424.1056     0.28340E+02 
  37456.3678     0.28490E+02 
  37488.6299     0.28638E+02 
  37520.8921     0.28787E+02 
  37553.1542     0.28935E+02 
  37585.4164     0.29083E+02 
  37617.6786     0.29231E+02 
  37649.9407     0.29378E+02 
  37682.2029     0.29525E+02 
  37714.4650     0.29671E+02 
  37746.7272     0.29817E+02 
  37778.9894     0.29963E+02 
  37811.2515     0.30108E+02 
  37843.5137     0.30253E+02 
  37875.7758     0.30398E+02 
  37908.0380     0.30542E+02 
  37940.3002     0.30686E+02 
  37972.5623     0.30829E+02 
  38004.8245     0.30971E+02 
  38037.0866     0.31114E+02 
  38069.3488     0.31255E+02 
  38101.6110     0.31397E+02 
  38133.8731     0.31537E+02 
  38166.1353     0.31678E+02 
  38198.3974     0.31817E+02 
  38230.6596     0.31957E+02 
  38262.9218     0.32095E+02 
  38295.1839     0.32233E+02 
  38327.4461     0.32371E+02 
  38359.7082     0.32508E+02 
  38391.9704     0.32644E+02 
  38424.2326     0.32780E+02 
  38456.4947     0.32915E+02 
  38488.7569     0.33049E+02 
  38521.0190     0.33183E+02 
  38553.2812     0.33316E+02 
  38585.5434     0.33449E+02 
  38617.8055     0.33581E+02 
  38650.0677     0.33712E+02 
  38682.3298     0.33843E+02 
  38714.5920     0.33973E+02 
  38746.8542     0.34102E+02 
  38779.1163     0.34230E+02 
  38811.3785     0.34358E+02 
  38843.6406     0.34485E+02 
  38875.9028     0.34612E+02 
  38908.1650     0.34737E+02 
  38940.4271     0.34862E+02 
  38972.6893     0.34986E+02 
  39004.9514     0.35109E+02 
  39037.2136     0.35232E+02 
  39069.4758     0.35353E+02 
  39101.7379     0.35474E+02 
  39134.0001     0.35594E+02 
  39166.2622     0.35714E+02 
  39198.5244     0.35832E+02 
  39230.7866     0.35950E+02 
  39263.0487     0.36066E+02 
  39295.3109     0.36182E+02 
  39327.5730     0.36297E+02 
  39359.8352     0.36411E+02 
  39392.0974     0.36525E+02 
  39424.3595     0.36637E+02 
  39456.6217     0.36749E+02 
  39488.8838     0.36859E+02 
  39521.1460     0.36969E+02 
  39553.4082     0.37078E+02 
  39585.6703     0.37186E+02 
  39617.9325     0.37292E+02 
  39650.1946     0.37398E+02 
  39682.4568     0.37503E+02 
  39714.7190     0.37607E+02 
  39746.9811     0.37711E+02 
  39779.2433     0.37813E+02 
  39811.5054     0.37914E+02 
  39843.7676     0.38014E+02 
  39876.0298     0.38113E+02 
  39908.2919     0.38211E+02 
  39940.5541     0.38309E+02 
  39972.8162     0.38405E+02 
  40005.0784     0.38500E+02 
  40037.3406     0.38594E+02 
  40069.6027     0.38687E+02 
  40101.8649     0.38779E+02 
  40134.1270     0.38870E+02 
  40166.3892     0.38960E+02 
  40198.6514     0.39049E+02 
  40230.9135     0.39137E+02 
  40263.1757     0.39224E+02 
  40295.4378     0.39309E+02 
  40327.7000     0.39394E+02 
  40359.9622     0.39477E+02 
  40392.2243     0.39560E+02 
  40424.4865     0.39641E+02 
  40456.7486     0.39721E+02 
  40489.0108     0.39800E+02 
  40521.2730     0.39878E+02 
  40553.5351     0.39955E+02 
  40585.7973     0.40031E+02 
  40618.0594     0.40106E+02 
  40650.3216     0.40179E+02 
  40682.5838     0.40252E+02 
  40714.8459     0.40323E+02 
  40747.1081     0.40393E+02 
  40779.3702     0.40462E+02 
  40811.6324     0.40530E+02 
  40843.8946     0.40596E+02 
  40876.1567     0.40662E+02 
  40908.4189     0.40726E+02 
  40940.6810     0.40789E+02 
  40972.9432     0.40851E+02 
  41005.2054     0.40912E+02 
  41037.4675     0.40972E+02 
  41069.7297     0.41030E+02 
  41101.9918     0.41088E+02 
  41134.2540     0.41144E+02 
  41166.5162     0.41199E+02 
  41198.7783     0.41252E+02 
  41231.0405     0.41305E+02 
  41263.3026     0.41356E+02 
  41295.5648     0.41406E+02 
  41327.8270     0.41455E+02 
  41360.0891     0.41503E+02 
  41392.3513     0.41550E+02 
  41424.6134     0.41595E+02 
  41456.8756     0.41639E+02 
  41489.1378     0.41682E+02 
  41521.3999     0.41724E+02 
  41553.6621     0.41764E+02 
  41585.9242     0.41803E+02 
  41618.1864     0.41841E+02 
  41650.4486     0.41878E+02 
  41682.7107     0.41914E+02 
  41714.9729     0.41948E+02 
  41747.2350     0.41982E+02 
  41779.4972     0.42013E+02 
  41811.7594     0.42044E+02 
  41844.0215     0.42074E+02 
  41876.2837     0.42102E+02 
  41908.5458     0.42129E+02 
  41940.8080     0.42155E+02 
  41973.0702     0.42180E+02 
  42005.3323     0.42203E+02 
  42037.5945     0.42225E+02 
  42069.8566     0.42246E+02 
  42102.1188     0.42266E+02 
  42134.3810     0.42285E+02 
  42166.6431     0.42302E+02 
  42198.9053     0.42318E+02 
  42231.1674     0.42333E+02 
  42263.4296     0.42346E+02 
  42295.6918     0.42359E+02 
  42327.9539     0.42370E+02 
  42360.2161     0.42380E+02 
  42392.4782     0.42389E+02 
  42424.7404     0.42397E+02 
  42457.0026     0.42403E+02 
  42489.2647     0.42408E+02 
  42521.5269     0.42412E+02 
  42553.7890     0.42415E+02 
  42586.0512     0.42416E+02 
  42618.3134     0.42417E+02 
  42650.5755     0.42416E+02 
  42682.8377     0.42414E+02 
  42715.0998     0.42411E+02 
  42747.3620     0.42406E+02 
  42779.6242     0.42401E+02 
  42811.8863     0.42394E+02 
  42844.1485     0.42386E+02 
  42876.4106     0.42377E+02 
  42908.6728     0.42366E+02 
  42940.9350     0.42355E+02 
  42973.1971     0.42342E+02 
  43005.4593     0.42328E+02 
  43037.7214     0.42313E+02 
  43069.9836     0.42297E+02 
  43102.2458     0.42280E+02 
  43134.5079     0.42261E+02 
  43166.7701     0.42241E+02 
  43199.0322     0.42221E+02 
  43231.2944     0.42199E+02 
  43263.5566     0.42176E+02 
  43295.8187     0.42151E+02 
  43328.0809     0.42126E+02 
  43360.3430     0.42100E+02 
  43392.6052     0.42072E+02 
  43424.8674     0.42043E+02 
  43457.1295     0.42013E+02 
  43489.3917     0.41982E+02 
  43521.6538     0.41950E+02 
  43553.9160     0.41917E+02 
  43586.1782     0.41883E+02 
  43618.4403     0.41847E+02 
  43650.7025     0.41811E+02 
  43682.9646     0.41773E+02 
  43715.2268     0.41735E+02 
  43747.4890     0.41695E+02 
  43779.7511     0.41654E+02 
  43812.0133     0.41613E+02 
  43844.2754     0.41570E+02 
  43876.5376     0.41526E+02 
  43908.7998     0.41481E+02 
  43941.0619     0.41435E+02 
  43973.3241     0.41388E+02 
  44005.5862     0.41339E+02 
  44037.8484     0.41290E+02 
  44070.1106     0.41240E+02 
  44102.3727     0.41189E+02 
  44134.6349     0.41137E+02 
  44166.8970     0.41084E+02 
  44199.1592     0.41029E+02 
  44231.4214     0.40974E+02 
  44263.6835     0.40918E+02 
  44295.9457     0.40861E+02 
  44328.2078     0.40803E+02 
  44360.4700     0.40744E+02 
  44392.7322     0.40684E+02 
  44424.9943     0.40623E+02 
  44457.2565     0.40561E+02 
  44489.5186     0.40498E+02 
  44521.7808     0.40434E+02 
  44554.0430     0.40369E+02 
  44586.3051     0.40304E+02 
  44618.5673     0.40237E+02 
  44650.8294     0.40170E+02 
  44683.0916     0.40101E+02 
  44715.3538     0.40032E+02 
  44747.6159     0.39962E+02 
  44779.8781     0.39891E+02 
  44812.1402     0.39819E+02 
  44844.4024     0.39746E+02 
  44876.6646     0.39672E+02 
  44908.9267     0.39598E+02 
  44941.1889     0.39522E+02 
  44973.4510     0.39446E+02 
  45005.7132     0.39369E+02 
  45037.9754     0.39291E+02 
  45070.2375     0.39212E+02 
  45102.4997     0.39133E+02 
  45134.7618     0.39052E+02 
  45167.0240     0.38971E+02 
  45199.2862     0.38889E+02 
  45231.5483     0.38807E+02 
  45263.8105     0.38723E+02 
  45296.0726     0.38639E+02 
  45328.3348     0.38554E+02 
  45360.5970     0.38468E+02 
  45392.8591     0.38381E+02 
  45425.1213     0.38294E+02 
  45457.3834     0.38206E+02 
  45489.6456     0.38117E+02 
  45521.9078     0.38028E+02 
  45554.1699     0.37938E+02 
  45586.4321     0.37847E+02 
  45618.6942     0.37755E+02 
  45650.9564     0.37663E+02 
  45683.2186     0.37570E+02 
  45715.4807     0.37477E+02 
  45747.7429     0.37382E+02 
  45780.0050     0.37287E+02 
  45812.2672     0.37192E+02 
  45844.5294     0.37096E+02 
  45876.7915     0.36999E+02 
  45909.0537     0.36901E+02 
  45941.3158     0.36803E+02 
  45973.5780     0.36705E+02 
  46005.8402     0.36605E+02 
  46038.1023     0.36505E+02 
  46070.3645     0.36405E+02 
  46102.6266     0.36304E+02 
  46134.8888     0.36202E+02 
  46167.1510     0.36100E+02 
  46199.4131     0.35997E+02 
  46231.6753     0.35894E+02 
  46263.9374     0.35790E+02 
  46296.1996     0.35685E+02 
  46328.4618     0.35580E+02 
  46360.7239     0.35475E+02 
  46392.9861     0.35369E+02 
  46425.2482     0.35263E+02 
  46457.5104     0.35156E+02 
  46489.7726     0.35048E+02 
  46522.0347     0.34940E+02 
  46554.2969     0.34832E+02 
  46586.5590     0.34723E+02 
  46618.8212     0.34613E+02 
  46651.0834     0.34504E+02 
  46683.3455     0.34393E+02 
  46715.6077     0.34283E+02 
  46747.8698     0.34172E+02 
  46780.1320     0.34060E+02 
  46812.3942     0.33948E+02 
  46844.6563     0.33836E+02 
  46876.9185     0.33723E+02 
  46909.1806     0.33610E+02 
  46941.4428     0.33496E+02 
  46973.7050     0.33382E+02 
  47005.9671     0.33268E+02 
  47038.2293     0.33154E+02 
  47070.4914     0.33039E+02 
  47102.7536     0.32923E+02 
  47135.0158     0.32808E+02 
  47167.2779     0.32692E+02 
  47199.5401     0.32575E+02 
  47231.8022     0.32459E+02 
  47264.0644     0.32342E+02 
  47296.3266     0.32224E+02 
  47328.5887     0.32107E+02 
  47360.8509     0.31989E+02 
  47393.1130     0.31871E+02 
  47425.3752     0.31752E+02 
  47457.6374     0.31634E+02 
  47489.8995     0.31515E+02 
  47522.1617     0.31396E+02 
  47554.4238     0.31276E+02 
  47586.6860     0.31157E+02 
  47618.9482     0.31037E+02 
  47651.2103     0.30917E+02 
  47683.4725     0.30796E+02 
  47715.7346     0.30676E+02 
  47747.9968     0.30555E+02 
  47780.2590     0.30434E+02 
  47812.5211     0.30313E+02 
  47844.7833     0.30192E+02 
  47877.0454     0.30070E+02 
  47909.3076     0.29948E+02 
  47941.5698     0.29827E+02 
  47973.8319     0.29705E+02 
  48006.0941     0.29583E+02 
  48038.3562     0.29460E+02 
  48070.6184     0.29338E+02 
  48102.8806     0.29215E+02 
  48135.1427     0.29093E+02 
  48167.4049     0.28970E+02 
  48199.6670     0.28847E+02 
  48231.9292     0.28724E+02 
  48264.1914     0.28601E+02 
  48296.4535     0.28478E+02 
  48328.7157     0.28355E+02 
  48360.9778     0.28231E+02 
  48393.2400     0.28108E+02 
  48425.5022     0.27985E+02 
  48457.7643     0.27861E+02 
  48490.0265     0.27737E+02 
  48522.2886     0.27614E+02 
  48554.5508     0.27490E+02 
  48586.8130     0.27366E+02 
  48619.0751     0.27243E+02 
  48651.3373     0.27119E+02 
  48683.5994     0.26995E+02 
  48715.8616     0.26872E+02 
  48748.1238     0.26748E+02 
  48780.3859     0.26624E+02 
  48812.6481     0.26500E+02 
  48844.9102     0.26376E+02 
  48877.1724     0.26253E+02 
  48909.4346     0.26129E+02 
  48941.6967     0.26005E+02 
  48973.9589     0.25882E+02 
  49006.2210     0.25758E+02 
  49038.4832     0.25635E+02 
  49070.7454     0.25511E+02 
  49103.0075     0.25388E+02 
  49135.2697     0.25264E+02 
  49167.5318     0.25141E+02 
  49199.7940     0.25018E+02 
  49232.0562     0.24894E+02 
  49264.3183     0.24771E+02 
  49296.5805     0.24648E+02 
  49328.8426     0.24525E+02 
  49361.1048     0.24403E+02 
  49393.3670     0.24280E+02 
  49425.6291     0.24157E+02 
  49457.8913     0.24035E+02 
  49490.1534     0.23913E+02 
  49522.4156     0.23790E+02 
  49554.6778     0.23668E+02 
  49586.9399     0.23546E+02 
  49619.2021     0.23424E+02 
  49651.4642     0.23303E+02 
  49683.7264     0.23181E+02 
  49715.9886     0.23060E+02 
  49748.2507     0.22938E+02 
  49780.5129     0.22817E+02 
  49812.7750     0.22696E+02 
  49845.0372     0.22576E+02 
  49877.2994     0.22455E+02 
  49909.5615     0.22335E+02 
  49941.8237     0.22214E+02 
  49974.0858     0.22094E+02 
  50006.3480     0.21974E+02 
  50038.6102     0.21855E+02 
  50070.8723     0.21735E+02 
  50103.1345     0.21616E+02 
  50135.3966     0.21497E+02 
  50167.6588     0.21378E+02 
  50199.9210     0.21259E+02 
  50232.1831     0.21141E+02 
  50264.4453     0.21023E+02 
  50296.7074     0.20905E+02 
  50328.9696     0.20787E+02 
  50361.2318     0.20670E+02 
  50393.4939     0.20552E+02 
  50425.7561     0.20435E+02 
  50458.0182     0.20318E+02 
  50490.2804     0.20202E+02 
  50522.5426     0.20086E+02 
  50554.8047     0.19969E+02 
  50587.0669     0.19854E+02 
  50619.3290     0.19738E+02 
  50651.5912     0.19623E+02 
  50683.8534     0.19508E+02 
  50716.1155     0.19393E+02 
  50748.3777     0.19279E+02 
  50780.6398     0.19164E+02 
  50812.9020     0.19050E+02 
  50845.1642     0.18937E+02 
  50877.4263     0.18823E+02 
  50909.6885     0.18710E+02 
  50941.9506     0.18598E+02 
  50974.2128     0.18485E+02 
  51006.4750     0.18373E+02 
  51038.7371     0.18261E+02 
  51070.9993     0.18149E+02 
  51103.2614     0.18038E+02 
  51135.5236     0.17927E+02 
  51167.7858     0.17816E+02 
  51200.0479     0.17706E+02 
  51232.3101     0.17596E+02 
  51264.5722     0.17486E+02 
  51296.8344     0.17377E+02 
  51329.0966     0.17268E+02 
  51361.3587     0.17159E+02 
  51393.6209     0.17051E+02 
  51425.8830     0.16942E+02 
  51458.1452     0.16835E+02 
  51490.4074     0.16727E+02 
  51522.6695     0.16620E+02 
  51554.9317     0.16513E+02 
  51587.1938     0.16407E+02 
  51619.4560     0.16301E+02 
  51651.7182     0.16195E+02 
  51683.9803     0.16089E+02 
  51716.2425     0.15984E+02 
  51748.5046     0.15880E+02 
  51780.7668     0.15775E+02 
  51813.0290     0.15671E+02 
  51845.2911     0.15567E+02 
  51877.5533     0.15464E+02 
  51909.8154     0.15361E+02 
  51942.0776     0.15258E+02 
  51974.3398     0.15156E+02 
  52006.6019     0.15054E+02 
  52038.8641     0.14953E+02 
  52071.1262     0.14852E+02 
  52103.3884     0.14751E+02 
  52135.6506     0.14650E+02 
  52167.9127     0.14550E+02 
  52200.1749     0.14450E+02 
  52232.4370     0.14351E+02 
  52264.6992     0.14252E+02 
  52296.9614     0.14154E+02 
  52329.2235     0.14055E+02 
  52361.4857     0.13957E+02 
  52393.7478     0.13860E+02 
  52426.0100     0.13763E+02 
  52458.2722     0.13666E+02 
  52490.5343     0.13570E+02 
  52522.7965     0.13474E+02 
  52555.0586     0.13378E+02 
  52587.3208     0.13283E+02 
  52619.5830     0.13188E+02 
  52651.8451     0.13094E+02 
  52684.1073     0.13000E+02 
  52716.3694     0.12906E+02 
  52748.6316     0.12813E+02 
  52780.8938     0.12720E+02 
  52813.1559     0.12627E+02 
  52845.4181     0.12535E+02 
  52877.6802     0.12444E+02 
  52909.9424     0.12352E+02 
  52942.2046     0.12261E+02 
  52974.4667     0.12171E+02 
  53006.7289     0.12081E+02 
  53038.9910     0.11991E+02 
  53071.2532     0.11901E+02 
  53103.5154     0.11812E+02 
  53135.7775     0.11724E+02 
  53168.0397     0.11636E+02 
  53200.3018     0.11548E+02 
  53232.5640     0.11460E+02 
  53264.8262     0.11373E+02 
  53297.0883     0.11287E+02 
  53329.3505     0.11201E+02 
  53361.6126     0.11115E+02 
  53393.8748     0.11029E+02 
  53426.1370     0.10944E+02 
  53458.3991     0.10860E+02 
  53490.6613     0.10775E+02 
  53522.9234     0.10691E+02 
  53555.1856     0.10608E+02 
  53587.4478     0.10525E+02 
  53619.7099     0.10442E+02 
  53651.9721     0.10360E+02 
  53684.2342     0.10278E+02 
  53716.4964     0.10197E+02 
  53748.7586     0.10115E+02 
  53781.0207     0.10035E+02 
  53813.2829     0.99544E+01 
  53845.5450     0.98745E+01 
  53877.8072     0.97950E+01 
  53910.0694     0.97158E+01 
  53942.3315     0.96371E+01 
  53974.5937     0.95587E+01 
  54006.8558     0.94808E+01 
  54039.1180     0.94032E+01 
  54071.3802     0.93261E+01 
  54103.6423     0.92493E+01 
  54135.9045     0.91729E+01 
  54168.1666     0.90970E+01 
  54200.4288     0.90214E+01 
  54232.6910     0.89462E+01 
  54264.9531     0.88714E+01 
  54297.2153     0.87969E+01 
  54329.4774     0.87229E+01 
  54361.7396     0.86493E+01 
  54394.0018     0.85760E+01 
  54426.2639     0.85031E+01 
  54458.5261     0.84307E+01 
  54490.7882     0.83586E+01 
  54523.0504     0.82869E+01 
  54555.3126     0.82156E+01 
  54587.5747     0.81446E+01 
  54619.8369     0.80741E+01 
  54652.0990     0.80039E+01 
  54684.3612     0.79341E+01 
  54716.6234     0.78647E+01 
  54748.8855     0.77957E+01 
  54781.1477     0.77271E+01 
  54813.4098     0.76588E+01 
  54845.6720     0.75910E+01 
  54877.9342     0.75235E+01 
  54910.1963     0.74564E+01 
  54942.4585     0.73896E+01 
  54974.7206     0.73233E+01 
  55006.9828     0.72573E+01 
  55039.2450     0.71917E+01 
  55071.5071     0.71264E+01 
  55103.7693     0.70616E+01 
  55136.0314     0.69971E+01 
  55168.2936     0.69330E+01 
  55200.5558     0.68692E+01 
  55232.8179     0.68059E+01 
  55265.0801     0.67429E+01 
  55297.3422     0.66802E+01 
  55329.6044     0.66180E+01 
  55361.8666     0.65561E+01 
  55394.1287     0.64945E+01 
  55426.3909     0.64334E+01 
  55458.6530     0.63726E+01 
  55490.9152     0.63121E+01 
  55523.1774     0.62520E+01 
  55555.4395     0.61923E+01 
  55587.7017     0.61330E+01 
  55619.9638     0.60740E+01 
  55652.2260     0.60153E+01 
  55684.4882     0.59570E+01 
  55716.7503     0.58991E+01 
  55749.0125     0.58415E+01 
  55781.2746     0.57843E+01 
  55813.5368     0.57275E+01 
  55845.7990     0.56709E+01 
  55878.0611     0.56148E+01 
  55910.3233     0.55590E+01 
  55942.5854     0.55035E+01 
  55974.8476     0.54484E+01 
  56007.1098     0.53936E+01 
  56039.3719     0.53392E+01 
  56071.6341     0.52851E+01 
  56103.8962     0.52314E+01 
  56136.1584     0.51780E+01 
  56168.4206     0.51249E+01 
  56200.6827     0.50722E+01 
  56232.9449     0.50198E+01 
  56265.2070     0.49678E+01 
  56297.4692     0.49161E+01 
  56329.7314     0.48647E+01 
  56361.9935     0.48137E+01 
  56394.2557     0.47630E+01 
  56426.5178     0.47126E+01 
  56458.7800     0.46626E+01 
  56491.0422     0.46129E+01 
  56523.3043     0.45635E+01 
  56555.5665     0.45145E+01 
  56587.8286     0.44658E+01 
  56620.0908     0.44174E+01 
  56652.3530     0.43693E+01 
  56684.6151     0.43215E+01 
  56716.8773     0.42741E+01 
  56749.1394     0.42270E+01 
  56781.4016     0.41802E+01 
  56813.6638     0.41338E+01 
  56845.9259     0.40876E+01 
  56878.1881     0.40418E+01 
  56910.4502     0.39963E+01 
  56942.7124     0.39510E+01 
  56974.9746     0.39062E+01 
  57007.2367     0.38616E+01 
  57039.4989     0.38173E+01 
  57071.7610     0.37733E+01 
  57104.0232     0.37297E+01 
  57136.2854     0.36863E+01 
  57168.5475     0.36433E+01 
  57200.8097     0.36005E+01 
  57233.0718     0.35581E+01 
  57265.3340     0.35160E+01 
  57297.5962     0.34741E+01 
  57329.8583     0.34326E+01 
  57362.1205     0.33914E+01 
  57394.3826     0.33504E+01 
  57426.6448     0.33098E+01 
  57458.9070     0.32695E+01 
  57491.1691     0.32294E+01 
  57523.4313     0.31896E+01 
  57555.6934     0.31502E+01 
  57587.9556     0.31110E+01 
  57620.2178     0.30721E+01 
  57652.4799     0.30335E+01 
  57684.7421     0.29952E+01 
  57717.0042     0.29572E+01 
  57749.2664     0.29194E+01 
  57781.5286     0.28820E+01 
  57813.7907     0.28448E+01 
  57846.0529     0.28079E+01 
  57878.3150     0.27713E+01 
  57910.5772     0.27350E+01 
  57942.8394     0.26989E+01 
  57975.1015     0.26632E+01 
  58007.3637     0.26277E+01 
  58039.6258     0.25925E+01 
  58071.8880     0.25575E+01 
  58104.1502     0.25228E+01 
  58136.4123     0.24884E+01 
  58168.6745     0.24543E+01 
  58200.9366     0.24204E+01 
  58233.1988     0.23868E+01 
  58265.4610     0.23535E+01 
  58297.7231     0.23205E+01 
  58329.9853     0.22877E+01 
  58362.2474     0.22552E+01 
  58394.5096     0.22229E+01 
  58426.7718     0.21909E+01 
  58459.0339     0.21592E+01 
  58491.2961     0.21277E+01 
  58523.5582     0.20965E+01 
  58555.8204     0.20655E+01 
  58588.0826     0.20348E+01 
  58620.3447     0.20044E+01 
  58652.6069     0.19742E+01 
  58684.8690     0.19443E+01 
  58717.1312     0.19146E+01 
  58749.3934     0.18852E+01 
  58781.6555     0.18560E+01 
  58813.9177     0.18271E+01 
  58846.1798     0.17985E+01 
  58878.4420     0.17701E+01 
  58910.7042     0.17419E+01 
  58942.9663     0.17140E+01 
  58975.2285     0.16863E+01 
  59007.4906     0.16589E+01 
  59039.7528     0.16318E+01 
  59072.0150     0.16048E+01 
  59104.2771     0.15782E+01 
  59136.5393     0.15517E+01 
  59168.8014     0.15256E+01 
  59201.0636     0.14996E+01 
  59233.3258     0.14739E+01 
  59265.5879     0.14485E+01 
  59297.8501     0.14232E+01 
  59330.1122     0.13983E+01 
  59362.3744     0.13735E+01 
  59394.6366     0.13490E+01 
  59426.8987     0.13248E+01 
  59459.1609     0.13007E+01 
  59491.4230     0.12770E+01 
  59523.6852     0.12534E+01 
  59555.9474     0.12301E+01 
  59588.2095     0.12070E+01 
  59620.4717     0.11842E+01 
  59652.7338     0.11616E+01 
  59684.9960     0.11392E+01 
  59717.2582     0.11171E+01 
  59749.5203     0.10952E+01 
  59781.7825     0.10735E+01 
  59814.0446     0.10520E+01 
  59846.3068     0.10308E+01 
  59878.5690     0.10099E+01 
  59910.8311     0.98912E+00 
  59943.0933     0.96861E+00 
  59975.3554     0.94833E+00 
  60007.6176     0.92828E+00 
  60039.8798     0.90846E+00 
  60072.1419     0.88887E+00 
  60104.4041     0.86951E+00 
  60136.6662     0.85038E+00 
  60168.9284     0.83148E+00 
  60201.1906     0.81281E+00 
  60233.4527     0.79437E+00 
  60265.7149     0.77616E+00 
  60297.9770     0.75818E+00 
  60330.2392     0.74042E+00 
  60362.5014     0.72290E+00 
  60394.7635     0.70560E+00 
  60427.0257     0.68854E+00 
  60459.2878     0.67170E+00 
  60491.5500     0.65510E+00 
  60523.8122     0.63872E+00 
  60556.0743     0.62257E+00 
  60588.3365     0.60665E+00 
  60620.5986     0.59096E+00 
  60652.8608     0.57551E+00 
  60685.1230     0.56028E+00 
  60717.3851     0.54528E+00 
  60749.6473     0.53052E+00 
  60781.9094     0.51598E+00 
  60814.1716     0.50168E+00 
  60846.4338     0.48761E+00 
  60878.6959     0.47377E+00 
  60910.9581     0.46017E+00 
  60943.2202     0.44680E+00 
  60975.4824     0.43366E+00 
  61007.7446     0.42076E+00 
  61040.0067     0.40809E+00 
  61072.2689     0.39566E+00 
  61104.5310     0.38347E+00 
  61136.7932     0.37151E+00 
  61169.0554     0.35979E+00 
  61201.3175     0.34832E+00 
  61233.5797     0.33708E+00 
  61265.8418     0.32608E+00 
  61298.1040     0.31532E+00 
  61330.3662     0.30481E+00 
  61362.6283     0.29454E+00 
  61394.8905     0.28451E+00 
  61427.1526     0.27473E+00 
  61459.4148     0.26520E+00 
  61491.6770     0.25592E+00 
  61523.9391     0.24688E+00 
  61556.2013     0.23810E+00 
  61588.4634     0.22957E+00 
  61620.7256     0.22129E+00 
  61652.9878     0.21327E+00 
  61685.2499     0.20550E+00 
  61717.5121     0.19799E+00 
  61749.7742     0.19074E+00 
  61782.0364     0.18375E+00 
  61814.2986     0.17703E+00 
  61846.5607     0.17056E+00 
  61878.8229     0.16437E+00 
  61911.0850     0.15844E+00 
  61943.3472     0.15278E+00 
  61975.6094     0.14740E+00 
  62007.8715     0.14229E+00 
  62040.1337     0.13746E+00 
  62072.3958     0.13290E+00 
  62104.6580     0.12862E+00 
  62136.9202     0.12463E+00 
  62169.1823     0.12092E+00 
  62201.4445     0.11750E+00 
  62233.7066     0.11437E+00 
  62265.9688     0.11154E+00 
  62298.2310     0.10900E+00 
  62330.4931     0.10675E+00 
  62362.7553     0.10481E+00 
  62395.0174     0.10317E+00 
  62427.2796     0.10184E+00 
  62459.5418     0.10081E+00 
  62491.8039     0.10010E+00 
  62524.0661     0.99708E-01 
  62556.3282     0.99632E-01 
  62588.5904     0.99878E-01 
  62620.8526     0.10045E+00 
  62653.1147     0.10135E+00 
  62685.3769     0.10258E+00 
  62717.6390     0.10415E+00 
  62749.9012     0.10606E+00 
  62782.1634     0.10832E+00 
  62814.4255     0.11092E+00 
  62846.6877     0.11387E+00 
  62878.9498     0.11718E+00 
  62911.2120     0.12085E+00 
  62943.4742     0.12489E+00 
  62975.7363     0.12929E+00 
  63007.9985     0.13406E+00 
  63040.2606     0.13922E+00 
  63072.5228     0.14475E+00 
  63104.7850     0.15068E+00 
  63137.0471     0.15699E+00 
  63169.3093     0.16371E+00 
  63201.5714     0.17082E+00 
  63233.8336     0.17835E+00 
  63266.0958     0.18628E+00 
  63298.3579     0.19464E+00 
  63330.6201     0.20342E+00 
  63362.8822     0.21263E+00 
  63395.1444     0.22227E+00 
  63427.4066     0.23236E+00 
  63459.6687     0.24289E+00 
  63491.9309     0.25388E+00 
  63524.1930     0.26533E+00 
  63556.4552     0.27725E+00 
  63588.7174     0.28963E+00 
  63620.9795     0.30250E+00 
  63653.2417     0.31586E+00 
  63685.5038     0.32971E+00 
  63717.7660     0.34406E+00 
  63750.0282     0.35892E+00 
  63782.2903     0.37430E+00 
  63814.5525     0.39020E+00 
  63846.8146     0.40663E+00 
  63879.0768     0.42360E+00 
  63911.3390     0.44112E+00 
  63943.6011     0.45920E+00 
  63975.8633     0.47783E+00 
  64008.1254     0.49705E+00 
  64040.3876     0.51684E+00 
  64072.6498     0.53722E+00 
  64104.9119     0.55820E+00 
  64137.1741     0.57979E+00 
  64169.4362     0.60200E+00 
  64201.6984     0.62484E+00 
  64233.9606     0.64831E+00 
  64266.2227     0.67244E+00 
  64298.4849     0.69722E+00 
  64330.7470     0.72266E+00 
  64363.0092     0.74879E+00 
  64395.2714     0.77560E+00 
  64427.5335     0.80312E+00 
  64459.7957     0.83134E+00 
  64492.0578     0.86029E+00 
  64524.3200     0.88997E+00 
  64556.5822     0.92040E+00 
  64588.8443     0.95159E+00 
  64621.1065     0.98354E+00 
  64653.3686     0.10163E+01 
  64685.6308     0.10498E+01 
  64717.8930     0.10841E+01 
  64750.1551     0.11193E+01 
  64782.4173     0.11553E+01 
  64814.6794     0.11921E+01 
  64846.9416     0.12298E+01 
  64879.2038     0.12684E+01 
  64911.4659     0.13079E+01 
  64943.7281     0.13483E+01 
  64975.9902     0.13895E+01 
  65008.2524     0.14318E+01 
  65040.5146     0.14749E+01 
  65072.7767     0.15191E+01 
  65105.0389     0.15642E+01 
  65137.3010     0.16103E+01 
  65169.5632     0.16574E+01 
  65201.8254     0.17056E+01 
  65234.0875     0.17548E+01 
  65266.3497     0.18050E+01 
  65298.6118     0.18563E+01 
  65330.8740     0.19088E+01 
  65363.1362     0.19623E+01 
  65395.3983     0.20170E+01 
  65427.6605     0.20728E+01 
  65459.9226     0.21298E+01 
  65492.1848     0.21880E+01 
  65524.4470     0.22474E+01 
  65556.7091     0.23080E+01 
  65588.9713     0.23699E+01 
  65621.2334     0.24330E+01 
  65653.4956     0.24975E+01 
  65685.7578     0.25632E+01 
  65718.0199     0.26303E+01 
  65750.2821     0.26987E+01 
  65782.5442     0.27685E+01 
  65814.8064     0.28397E+01 
  65847.0686     0.29123E+01 
  65879.3307     0.29863E+01 
  65911.5929     0.30618E+01 
  65943.8550     0.31388E+01 
  65976.1172     0.32173E+01 
  66008.3794     0.32974E+01 
  66040.6415     0.33790E+01 
  66072.9037     0.34621E+01 
  66105.1658     0.35469E+01 
  66137.4280     0.36334E+01 
  66169.6902     0.37214E+01 
  66201.9523     0.38112E+01 
  66234.2145     0.39027E+01 
  66266.4766     0.39959E+01 
  66298.7388     0.40909E+01 
  66331.0010     0.41877E+01 
  66363.2631     0.42864E+01 
  66395.5253     0.43868E+01 
  66427.7874     0.44892E+01 
  66460.0496     0.45934E+01 
  66492.3118     0.46996E+01 
  66524.5739     0.48078E+01 
  66556.8361     0.49180E+01 
  66589.0982     0.50302E+01 
  66621.3604     0.51444E+01 
  66653.6226     0.52608E+01 
  66685.8847     0.53792E+01 
  66718.1469     0.54999E+01 
  66750.4090     0.56227E+01 
  66782.6712     0.57477E+01 
  66814.9334     0.58750E+01 
  66847.1955     0.60046E+01 
  66879.4577     0.61366E+01 
  66911.7198     0.62708E+01 
  66943.9820     0.64075E+01 
  66976.2442     0.65466E+01 
  67008.5063     0.66882E+01 
  67040.7685     0.68322E+01 
  67073.0306     0.69788E+01 
  67105.2928     0.71280E+01 
  67137.5550     0.72798E+01 
  67169.8171     0.74343E+01 
  67202.0793     0.75914E+01 
  67234.3414     0.77513E+01 
  67266.6036     0.79139E+01 
  67298.8658     0.80793E+01 
  67331.1279     0.82476E+01 
  67363.3901     0.84188E+01 
  67395.6522     0.85929E+01 
  67427.9144     0.87700E+01 
  67460.1766     0.89501E+01 
  67492.4387     0.91333E+01 
  67524.7009     0.93195E+01 
  67556.9630     0.95089E+01 
  67589.2252     0.97015E+01 
  67621.4874     0.98973E+01 
  67653.7495     0.10096E+02 
  67686.0117     0.10299E+02 
  67718.2738     0.10505E+02 
  67750.5360     0.10714E+02 
  67782.7982     0.10926E+02 
  67815.0603     0.11143E+02 
  67847.3225     0.11362E+02 
  67879.5846     0.11585E+02 
  67911.8468     0.11812E+02 
  67944.1090     0.12043E+02 
  67976.3711     0.12277E+02 
  68008.6333     0.12516E+02 
  68040.8954     0.12758E+02 
  68073.1576     0.13003E+02 
  68105.4198     0.13253E+02 
  68137.6819     0.13507E+02 
  68169.9441     0.13765E+02 
  68202.2062     0.14027E+02 
  68234.4684     0.14293E+02 
  68266.7306     0.14563E+02 
  68298.9927     0.14838E+02 
  68331.2549     0.15117E+02 
  68363.5170     0.15400E+02 
  68395.7792     0.15688E+02 
  68428.0414     0.15980E+02 
  68460.3035     0.16276E+02 
  68492.5657     0.16578E+02 
  68524.8278     0.16884E+02 
  68557.0900     0.17194E+02 
  68589.3522     0.17509E+02 
  68621.6143     0.17830E+02 
  68653.8765     0.18154E+02 
  68686.1386     0.18484E+02 
  68718.4008     0.18819E+02 
  68750.6630     0.19159E+02 
  68782.9251     0.19504E+02 
  68815.1873     0.19854E+02 
  68847.4494     0.20210E+02 
  68879.7116     0.20570E+02 
  68911.9738     0.20936E+02 
  68944.2359     0.21308E+02 
  68976.4981     0.21684E+02 
  69008.7602     0.22067E+02 
  69041.0224     0.22455E+02 
  69073.2846     0.22848E+02 
  69105.5467     0.23247E+02 
  69137.8089     0.23652E+02 
  69170.0710     0.24063E+02 
  69202.3332     0.24480E+02 
  69234.5954     0.24902E+02 
  69266.8575     0.25331E+02 
  69299.1197     0.25766E+02 
  69331.3818     0.26207E+02 
  69363.6440     0.26654E+02 
  69395.9062     0.27107E+02 
  69428.1683     0.27567E+02 
  69460.4305     0.28033E+02 
  69492.6926     0.28505E+02 
  69524.9548     0.28985E+02 
  69557.2170     0.29470E+02 
  69589.4791     0.29962E+02 
  69621.7413     0.30461E+02 
  69654.0034     0.30967E+02 
  69686.2656     0.31480E+02 
  69718.5278     0.32000E+02 
  69750.7899     0.32526E+02 
  69783.0521     0.33060E+02 
  69815.3142     0.33600E+02 
  69847.5764     0.34148E+02 
  69879.8386     0.34704E+02 
  69912.1007     0.35266E+02 
  69944.3629     0.35836E+02 
  69976.6250     0.36413E+02 
  70008.8872     0.36998E+02 
  70041.1494     0.37591E+02 
  70073.4115     0.38191E+02 
  70105.6737     0.38798E+02 
  70137.9358     0.39414E+02 
  70170.1980     0.40037E+02 
  70202.4602     0.40669E+02 
  70234.7223     0.41308E+02 
  70266.9845     0.41955E+02 
  70299.2466     0.42611E+02 
  70331.5088     0.43275E+02 
  70363.7710     0.43946E+02 
  70396.0331     0.44627E+02 
  70428.2953     0.45315E+02 
  70460.5574     0.46012E+02 
  70492.8196     0.46718E+02 
  70525.0818     0.47432E+02 
  70557.3439     0.48155E+02 
  70589.6061     0.48886E+02 
  70621.8682     0.49627E+02 
  70654.1304     0.50376E+02 
  70686.3926     0.51134E+02 
  70718.6547     0.51901E+02 
  70750.9169     0.52677E+02 
  70783.1790     0.53462E+02 
  70815.4412     0.54256E+02 
  70847.7034     0.55060E+02 
  70879.9655     0.55873E+02 
  70912.2277     0.56695E+02 
  70944.4898     0.57526E+02 
  70976.7520     0.58368E+02 
  71009.0142     0.59218E+02 
  71041.2763     0.60078E+02 
  71073.5385     0.60948E+02 
  71105.8006     0.61828E+02 
  71138.0628     0.62717E+02 
  71170.3250     0.63616E+02 
  71202.5871     0.64525E+02 
  71234.8493     0.65444E+02 
  71267.1114     0.66373E+02 
  71299.3736     0.67312E+02 
  71331.6358     0.68262E+02 
  71363.8979     0.69221E+02 
  71396.1601     0.70191E+02 
  71428.4222     0.71171E+02 
  71460.6844     0.72161E+02 
  71492.9466     0.73162E+02 
  71525.2087     0.74173E+02 
  71557.4709     0.75194E+02 
  71589.7330     0.76226E+02 
  71621.9952     0.77269E+02 
  71654.2574     0.78323E+02 
  71686.5195     0.79387E+02 
  71718.7817     0.80462E+02 
  71751.0438     0.81548E+02 
  71783.3060     0.82644E+02 
  71815.5682     0.83752E+02 
  71847.8303     0.84870E+02 
  71880.0925     0.86000E+02 
  71912.3546     0.87140E+02 
  71944.6168     0.88292E+02 
  71976.8790     0.89454E+02 
  72009.1411     0.90628E+02 
  72041.4033     0.91813E+02 
  72073.6654     0.93009E+02 
  72105.9276     0.94217E+02 
  72138.1898     0.95436E+02 
  72170.4519     0.96666E+02 
  72202.7141     0.97908E+02 
  72234.9762     0.99161E+02 
  72267.2384     0.10043E+03 
  72299.5006     0.10170E+03 
  72331.7627     0.10299E+03 
  72364.0249     0.10429E+03 
  72396.2870     0.10560E+03 
  72428.5492     0.10692E+03 
  72460.8114     0.10825E+03 
  72493.0735     0.10960E+03 
  72525.3357     0.11096E+03 
  72557.5978     0.11233E+03 
  72589.8600     0.11371E+03 
