  32262.1600     0.63146E+02 
  32294.4222     0.63866E+02 
  32326.6843     0.64592E+02 
  32358.9465     0.65323E+02 
  32391.2086     0.66059E+02 
  32423.4708     0.66802E+02 
  32455.7330     0.67549E+02 
  32487.9951     0.68302E+02 
  32520.2573     0.69061E+02 
  32552.5194     0.69825E+02 
  32584.7816     0.70595E+02 
  32617.0438     0.71371E+02 
  32649.3059     0.72152E+02 
  32681.5681     0.72938E+02 
  32713.8302     0.73730E+02 
  32746.0924     0.74528E+02 
  32778.3546     0.75331E+02 
  32810.6167     0.76139E+02 
  32842.8789     0.76954E+02 
  32875.1410     0.77773E+02 
  32907.4032     0.78599E+02 
  32939.6654     0.79430E+02 
  32971.9275     0.80266E+02 
  33004.1897     0.81108E+02 
  33036.4518     0.81955E+02 
  33068.7140     0.82808E+02 
  33100.9762     0.83666E+02 
  33133.2383     0.84530E+02 
  33165.5005     0.85399E+02 
  33197.7626     0.86274E+02 
  33230.0248     0.87154E+02 
  33262.2870     0.88040E+02 
  33294.5491     0.88931E+02 
  33326.8113     0.89827E+02 
  33359.0734     0.90729E+02 
  33391.3356     0.91637E+02 
  33423.5978     0.92549E+02 
  33455.8599     0.93467E+02 
  33488.1221     0.94390E+02 
  33520.3842     0.95319E+02 
  33552.6464     0.96253E+02 
  33584.9086     0.97192E+02 
  33617.1707     0.98136E+02 
  33649.4329     0.99086E+02 
  33681.6950     0.10004E+03 
  33713.9572     0.10100E+03 
  33746.2194     0.10197E+03 
  33778.4815     0.10294E+03 
  33810.7437     0.10391E+03 
  33843.0058     0.10489E+03 
  33875.2680     0.10588E+03 
  33907.5302     0.10687E+03 
  33939.7923     0.10787E+03 
  33972.0545     0.10887E+03 
  34004.3166     0.10987E+03 
  34036.5788     0.11088E+03 
  34068.8410     0.11190E+03 
  34101.1031     0.11292E+03 
  34133.3653     0.11394E+03 
  34165.6274     0.11497E+03 
  34197.8896     0.11601E+03 
  34230.1518     0.11705E+03 
  34262.4139     0.11809E+03 
  34294.6761     0.11914E+03 
  34326.9382     0.12020E+03 
  34359.2004     0.12125E+03 
  34391.4626     0.12232E+03 
  34423.7247     0.12338E+03 
  34455.9869     0.12446E+03 
  34488.2490     0.12553E+03 
  34520.5112     0.12661E+03 
  34552.7734     0.12770E+03 
  34585.0355     0.12879E+03 
  34617.2977     0.12988E+03 
  34649.5598     0.13098E+03 
  34681.8220     0.13208E+03 
  34714.0842     0.13319E+03 
  34746.3463     0.13430E+03 
  34778.6085     0.13542E+03 
  34810.8706     0.13653E+03 
  34843.1328     0.13766E+03 
  34875.3950     0.13878E+03 
  34907.6571     0.13991E+03 
  34939.9193     0.14105E+03 
  34972.1814     0.14219E+03 
  35004.4436     0.14333E+03 
  35036.7058     0.14448E+03 
  35068.9679     0.14563E+03 
  35101.2301     0.14678E+03 
  35133.4922     0.14793E+03 
  35165.7544     0.14910E+03 
  35198.0166     0.15026E+03 
  35230.2787     0.15143E+03 
  35262.5409     0.15260E+03 
  35294.8030     0.15377E+03 
  35327.0652     0.15495E+03 
  35359.3274     0.15613E+03 
  35391.5895     0.15731E+03 
  35423.8517     0.15850E+03 
  35456.1138     0.15968E+03 
  35488.3760     0.16088E+03 
  35520.6382     0.16207E+03 
  35552.9003     0.16327E+03 
  35585.1625     0.16447E+03 
  35617.4246     0.16567E+03 
  35649.6868     0.16688E+03 
  35681.9490     0.16809E+03 
  35714.2111     0.16930E+03 
  35746.4733     0.17051E+03 
  35778.7354     0.17173E+03 
  35810.9976     0.17295E+03 
  35843.2598     0.17417E+03 
  35875.5219     0.17539E+03 
  35907.7841     0.17661E+03 
  35940.0462     0.17784E+03 
  35972.3084     0.17907E+03 
  36004.5706     0.18030E+03 
  36036.8327     0.18153E+03 
  36069.0949     0.18277E+03 
  36101.3570     0.18400E+03 
  36133.6192     0.18524E+03 
  36165.8814     0.18648E+03 
  36198.1435     0.18772E+03 
  36230.4057     0.18896E+03 
  36262.6678     0.19020E+03 
  36294.9300     0.19145E+03 
  36327.1922     0.19269E+03 
  36359.4543     0.19394E+03 
  36391.7165     0.19519E+03 
  36423.9786     0.19644E+03 
  36456.2408     0.19769E+03 
  36488.5030     0.19894E+03 
  36520.7651     0.20019E+03 
  36553.0273     0.20144E+03 
  36585.2894     0.20270E+03 
  36617.5516     0.20395E+03 
  36649.8138     0.20520E+03 
  36682.0759     0.20646E+03 
  36714.3381     0.20771E+03 
  36746.6002     0.20897E+03 
  36778.8624     0.21022E+03 
  36811.1246     0.21148E+03 
  36843.3867     0.21273E+03 
  36875.6489     0.21399E+03 
  36907.9110     0.21524E+03 
  36940.1732     0.21650E+03 
  36972.4354     0.21775E+03 
  37004.6975     0.21900E+03 
  37036.9597     0.22026E+03 
  37069.2218     0.22151E+03 
  37101.4840     0.22276E+03 
  37133.7462     0.22401E+03 
  37166.0083     0.22526E+03 
  37198.2705     0.22651E+03 
  37230.5326     0.22776E+03 
  37262.7948     0.22901E+03 
  37295.0570     0.23026E+03 
  37327.3191     0.23150E+03 
  37359.5813     0.23275E+03 
  37391.8434     0.23399E+03 
  37424.1056     0.23523E+03 
  37456.3678     0.23647E+03 
  37488.6299     0.23771E+03 
  37520.8921     0.23895E+03 
  37553.1542     0.24018E+03 
  37585.4164     0.24141E+03 
  37617.6786     0.24264E+03 
  37649.9407     0.24387E+03 
  37682.2029     0.24510E+03 
  37714.4650     0.24632E+03 
  37746.7272     0.24755E+03 
  37778.9894     0.24877E+03 
  37811.2515     0.24998E+03 
  37843.5137     0.25120E+03 
  37875.7758     0.25241E+03 
  37908.0380     0.25362E+03 
  37940.3002     0.25483E+03 
  37972.5623     0.25603E+03 
  38004.8245     0.25723E+03 
  38037.0866     0.25843E+03 
  38069.3488     0.25963E+03 
  38101.6110     0.26082E+03 
  38133.8731     0.26201E+03 
  38166.1353     0.26319E+03 
  38198.3974     0.26437E+03 
  38230.6596     0.26555E+03 
  38262.9218     0.26673E+03 
  38295.1839     0.26790E+03 
  38327.4461     0.26906E+03 
  38359.7082     0.27023E+03 
  38391.9704     0.27139E+03 
  38424.2326     0.27254E+03 
  38456.4947     0.27369E+03 
  38488.7569     0.27484E+03 
  38521.0190     0.27598E+03 
  38553.2812     0.27712E+03 
  38585.5434     0.27826E+03 
  38617.8055     0.27939E+03 
  38650.0677     0.28051E+03 
  38682.3298     0.28163E+03 
  38714.5920     0.28275E+03 
  38746.8542     0.28386E+03 
  38779.1163     0.28497E+03 
  38811.3785     0.28607E+03 
  38843.6406     0.28717E+03 
  38875.9028     0.28826E+03 
  38908.1650     0.28934E+03 
  38940.4271     0.29042E+03 
  38972.6893     0.29150E+03 
  39004.9514     0.29257E+03 
  39037.2136     0.29364E+03 
  39069.4758     0.29469E+03 
  39101.7379     0.29575E+03 
  39134.0001     0.29680E+03 
  39166.2622     0.29784E+03 
  39198.5244     0.29887E+03 
  39230.7866     0.29991E+03 
  39263.0487     0.30093E+03 
  39295.3109     0.30195E+03 
  39327.5730     0.30296E+03 
  39359.8352     0.30397E+03 
  39392.0974     0.30497E+03 
  39424.3595     0.30596E+03 
  39456.6217     0.30695E+03 
  39488.8838     0.30793E+03 
  39521.1460     0.30890E+03 
  39553.4082     0.30987E+03 
  39585.6703     0.31083E+03 
  39617.9325     0.31178E+03 
  39650.1946     0.31273E+03 
  39682.4568     0.31367E+03 
  39714.7190     0.31461E+03 
  39746.9811     0.31553E+03 
  39779.2433     0.31645E+03 
  39811.5054     0.31737E+03 
  39843.7676     0.31827E+03 
  39876.0298     0.31917E+03 
  39908.2919     0.32006E+03 
  39940.5541     0.32094E+03 
  39972.8162     0.32182E+03 
  40005.0784     0.32269E+03 
  40037.3406     0.32355E+03 
  40069.6027     0.32440E+03 
  40101.8649     0.32525E+03 
  40134.1270     0.32609E+03 
  40166.3892     0.32692E+03 
  40198.6514     0.32774E+03 
  40230.9135     0.32855E+03 
  40263.1757     0.32936E+03 
  40295.4378     0.33016E+03 
  40327.7000     0.33095E+03 
  40359.9622     0.33173E+03 
  40392.2243     0.33251E+03 
  40424.4865     0.33327E+03 
  40456.7486     0.33403E+03 
  40489.0108     0.33478E+03 
  40521.2730     0.33552E+03 
  40553.5351     0.33625E+03 
  40585.7973     0.33698E+03 
  40618.0594     0.33769E+03 
  40650.3216     0.33840E+03 
  40682.5838     0.33910E+03 
  40714.8459     0.33979E+03 
  40747.1081     0.34047E+03 
  40779.3702     0.34115E+03 
  40811.6324     0.34181E+03 
  40843.8946     0.34247E+03 
  40876.1567     0.34311E+03 
  40908.4189     0.34375E+03 
  40940.6810     0.34438E+03 
  40972.9432     0.34500E+03 
  41005.2054     0.34561E+03 
  41037.4675     0.34621E+03 
  41069.7297     0.34681E+03 
  41101.9918     0.34739E+03 
  41134.2540     0.34797E+03 
  41166.5162     0.34853E+03 
  41198.7783     0.34909E+03 
  41231.0405     0.34964E+03 
  41263.3026     0.35017E+03 
  41295.5648     0.35070E+03 
  41327.8270     0.35122E+03 
  41360.0891     0.35173E+03 
  41392.3513     0.35223E+03 
  41424.6134     0.35273E+03 
  41456.8756     0.35321E+03 
  41489.1378     0.35368E+03 
  41521.3999     0.35414E+03 
  41553.6621     0.35460E+03 
  41585.9242     0.35504E+03 
  41618.1864     0.35548E+03 
  41650.4486     0.35590E+03 
  41682.7107     0.35632E+03 
  41714.9729     0.35673E+03 
  41747.2350     0.35712E+03 
  41779.4972     0.35751E+03 
  41811.7594     0.35789E+03 
  41844.0215     0.35825E+03 
  41876.2837     0.35861E+03 
  41908.5458     0.35896E+03 
  41940.8080     0.35930E+03 
  41973.0702     0.35963E+03 
  42005.3323     0.35995E+03 
  42037.5945     0.36026E+03 
  42069.8566     0.36056E+03 
  42102.1188     0.36085E+03 
  42134.3810     0.36113E+03 
  42166.6431     0.36140E+03 
  42198.9053     0.36166E+03 
  42231.1674     0.36191E+03 
  42263.4296     0.36215E+03 
  42295.6918     0.36239E+03 
  42327.9539     0.36261E+03 
  42360.2161     0.36282E+03 
  42392.4782     0.36302E+03 
  42424.7404     0.36322E+03 
  42457.0026     0.36340E+03 
  42489.2647     0.36357E+03 
  42521.5269     0.36373E+03 
  42553.7890     0.36389E+03 
  42586.0512     0.36403E+03 
  42618.3134     0.36417E+03 
  42650.5755     0.36429E+03 
  42682.8377     0.36440E+03 
  42715.0998     0.36451E+03 
  42747.3620     0.36460E+03 
  42779.6242     0.36469E+03 
  42811.8863     0.36476E+03 
  42844.1485     0.36483E+03 
  42876.4106     0.36489E+03 
  42908.6728     0.36493E+03 
  42940.9350     0.36497E+03 
  42973.1971     0.36500E+03 
  43005.4593     0.36501E+03 
  43037.7214     0.36502E+03 
  43069.9836     0.36502E+03 
  43102.2458     0.36501E+03 
  43134.5079     0.36498E+03 
  43166.7701     0.36495E+03 
  43199.0322     0.36491E+03 
  43231.2944     0.36486E+03 
  43263.5566     0.36480E+03 
  43295.8187     0.36473E+03 
  43328.0809     0.36466E+03 
  43360.3430     0.36457E+03 
  43392.6052     0.36447E+03 
  43424.8674     0.36436E+03 
  43457.1295     0.36425E+03 
  43489.3917     0.36412E+03 
  43521.6538     0.36399E+03 
  43553.9160     0.36384E+03 
  43586.1782     0.36369E+03 
  43618.4403     0.36352E+03 
  43650.7025     0.36335E+03 
  43682.9646     0.36317E+03 
  43715.2268     0.36298E+03 
  43747.4890     0.36278E+03 
  43779.7511     0.36257E+03 
  43812.0133     0.36235E+03 
  43844.2754     0.36212E+03 
  43876.5376     0.36189E+03 
  43908.7998     0.36164E+03 
  43941.0619     0.36139E+03 
  43973.3241     0.36112E+03 
  44005.5862     0.36085E+03 
  44037.8484     0.36057E+03 
  44070.1106     0.36028E+03 
  44102.3727     0.35998E+03 
  44134.6349     0.35967E+03 
  44166.8970     0.35936E+03 
  44199.1592     0.35903E+03 
  44231.4214     0.35870E+03 
  44263.6835     0.35835E+03 
  44295.9457     0.35800E+03 
  44328.2078     0.35764E+03 
  44360.4700     0.35727E+03 
  44392.7322     0.35690E+03 
  44424.9943     0.35651E+03 
  44457.2565     0.35612E+03 
  44489.5186     0.35572E+03 
  44521.7808     0.35531E+03 
  44554.0430     0.35489E+03 
  44586.3051     0.35446E+03 
  44618.5673     0.35403E+03 
  44650.8294     0.35358E+03 
  44683.0916     0.35313E+03 
  44715.3538     0.35267E+03 
  44747.6159     0.35220E+03 
  44779.8781     0.35173E+03 
  44812.1402     0.35125E+03 
  44844.4024     0.35075E+03 
  44876.6646     0.35026E+03 
  44908.9267     0.34975E+03 
  44941.1889     0.34923E+03 
  44973.4510     0.34871E+03 
  45005.7132     0.34818E+03 
  45037.9754     0.34764E+03 
  45070.2375     0.34710E+03 
  45102.4997     0.34655E+03 
  45134.7618     0.34599E+03 
  45167.0240     0.34542E+03 
  45199.2862     0.34485E+03 
  45231.5483     0.34426E+03 
  45263.8105     0.34367E+03 
  45296.0726     0.34308E+03 
  45328.3348     0.34247E+03 
  45360.5970     0.34186E+03 
  45392.8591     0.34125E+03 
  45425.1213     0.34062E+03 
  45457.3834     0.33999E+03 
  45489.6456     0.33935E+03 
  45521.9078     0.33871E+03 
  45554.1699     0.33806E+03 
  45586.4321     0.33740E+03 
  45618.6942     0.33673E+03 
  45650.9564     0.33606E+03 
  45683.2186     0.33538E+03 
  45715.4807     0.33470E+03 
  45747.7429     0.33401E+03 
  45780.0050     0.33331E+03 
  45812.2672     0.33260E+03 
  45844.5294     0.33189E+03 
  45876.7915     0.33118E+03 
  45909.0537     0.33046E+03 
  45941.3158     0.32973E+03 
  45973.5780     0.32899E+03 
  46005.8402     0.32825E+03 
  46038.1023     0.32751E+03 
  46070.3645     0.32675E+03 
  46102.6266     0.32599E+03 
  46134.8888     0.32523E+03 
  46167.1510     0.32446E+03 
  46199.4131     0.32369E+03 
  46231.6753     0.32291E+03 
  46263.9374     0.32212E+03 
  46296.1996     0.32133E+03 
  46328.4618     0.32053E+03 
  46360.7239     0.31973E+03 
  46392.9861     0.31892E+03 
  46425.2482     0.31811E+03 
  46457.5104     0.31729E+03 
  46489.7726     0.31647E+03 
  46522.0347     0.31564E+03 
  46554.2969     0.31481E+03 
  46586.5590     0.31397E+03 
  46618.8212     0.31312E+03 
  46651.0834     0.31228E+03 
  46683.3455     0.31142E+03 
  46715.6077     0.31057E+03 
  46747.8698     0.30971E+03 
  46780.1320     0.30884E+03 
  46812.3942     0.30797E+03 
  46844.6563     0.30709E+03 
  46876.9185     0.30621E+03 
  46909.1806     0.30533E+03 
  46941.4428     0.30444E+03 
  46973.7050     0.30355E+03 
  47005.9671     0.30265E+03 
  47038.2293     0.30175E+03 
  47070.4914     0.30085E+03 
  47102.7536     0.29994E+03 
  47135.0158     0.29903E+03 
  47167.2779     0.29811E+03 
  47199.5401     0.29719E+03 
  47231.8022     0.29627E+03 
  47264.0644     0.29534E+03 
  47296.3266     0.29441E+03 
  47328.5887     0.29347E+03 
  47360.8509     0.29254E+03 
  47393.1130     0.29159E+03 
  47425.3752     0.29065E+03 
  47457.6374     0.28970E+03 
  47489.8995     0.28875E+03 
  47522.1617     0.28780E+03 
  47554.4238     0.28684E+03 
  47586.6860     0.28588E+03 
  47618.9482     0.28491E+03 
  47651.2103     0.28395E+03 
  47683.4725     0.28298E+03 
  47715.7346     0.28201E+03 
  47747.9968     0.28103E+03 
  47780.2590     0.28005E+03 
  47812.5211     0.27907E+03 
  47844.7833     0.27809E+03 
  47877.0454     0.27710E+03 
  47909.3076     0.27611E+03 
  47941.5698     0.27512E+03 
  47973.8319     0.27413E+03 
  48006.0941     0.27314E+03 
  48038.3562     0.27214E+03 
  48070.6184     0.27114E+03 
  48102.8806     0.27014E+03 
  48135.1427     0.26913E+03 
  48167.4049     0.26813E+03 
  48199.6670     0.26712E+03 
  48231.9292     0.26611E+03 
  48264.1914     0.26510E+03 
  48296.4535     0.26408E+03 
  48328.7157     0.26307E+03 
  48360.9778     0.26205E+03 
  48393.2400     0.26103E+03 
  48425.5022     0.26001E+03 
  48457.7643     0.25899E+03 
  48490.0265     0.25797E+03 
  48522.2886     0.25694E+03 
  48554.5508     0.25592E+03 
  48586.8130     0.25489E+03 
  48619.0751     0.25386E+03 
  48651.3373     0.25283E+03 
  48683.5994     0.25180E+03 
  48715.8616     0.25077E+03 
  48748.1238     0.24973E+03 
  48780.3859     0.24870E+03 
  48812.6481     0.24766E+03 
  48844.9102     0.24663E+03 
  48877.1724     0.24559E+03 
  48909.4346     0.24455E+03 
  48941.6967     0.24351E+03 
  48973.9589     0.24247E+03 
  49006.2210     0.24143E+03 
  49038.4832     0.24039E+03 
  49070.7454     0.23935E+03 
  49103.0075     0.23831E+03 
  49135.2697     0.23727E+03 
  49167.5318     0.23622E+03 
  49199.7940     0.23518E+03 
  49232.0562     0.23414E+03 
  49264.3183     0.23309E+03 
  49296.5805     0.23205E+03 
  49328.8426     0.23101E+03 
  49361.1048     0.22996E+03 
  49393.3670     0.22892E+03 
  49425.6291     0.22787E+03 
  49457.8913     0.22683E+03 
  49490.1534     0.22579E+03 
  49522.4156     0.22474E+03 
  49554.6778     0.22370E+03 
  49586.9399     0.22265E+03 
  49619.2021     0.22161E+03 
  49651.4642     0.22057E+03 
  49683.7264     0.21952E+03 
  49715.9886     0.21848E+03 
  49748.2507     0.21744E+03 
  49780.5129     0.21640E+03 
  49812.7750     0.21536E+03 
  49845.0372     0.21431E+03 
  49877.2994     0.21327E+03 
  49909.5615     0.21223E+03 
  49941.8237     0.21120E+03 
  49974.0858     0.21016E+03 
  50006.3480     0.20912E+03 
  50038.6102     0.20808E+03 
  50070.8723     0.20705E+03 
  50103.1345     0.20601E+03 
  50135.3966     0.20498E+03 
  50167.6588     0.20394E+03 
  50199.9210     0.20291E+03 
  50232.1831     0.20188E+03 
  50264.4453     0.20085E+03 
  50296.7074     0.19982E+03 
  50328.9696     0.19879E+03 
  50361.2318     0.19777E+03 
  50393.4939     0.19674E+03 
  50425.7561     0.19572E+03 
  50458.0182     0.19469E+03 
  50490.2804     0.19367E+03 
  50522.5426     0.19265E+03 
  50554.8047     0.19163E+03 
  50587.0669     0.19061E+03 
  50619.3290     0.18960E+03 
  50651.5912     0.18858E+03 
  50683.8534     0.18757E+03 
  50716.1155     0.18656E+03 
  50748.3777     0.18555E+03 
  50780.6398     0.18454E+03 
  50812.9020     0.18353E+03 
  50845.1642     0.18252E+03 
  50877.4263     0.18152E+03 
  50909.6885     0.18052E+03 
  50941.9506     0.17952E+03 
  50974.2128     0.17852E+03 
  51006.4750     0.17752E+03 
  51038.7371     0.17653E+03 
  51070.9993     0.17553E+03 
  51103.2614     0.17454E+03 
  51135.5236     0.17355E+03 
  51167.7858     0.17257E+03 
  51200.0479     0.17158E+03 
  51232.3101     0.17060E+03 
  51264.5722     0.16962E+03 
  51296.8344     0.16864E+03 
  51329.0966     0.16766E+03 
  51361.3587     0.16669E+03 
  51393.6209     0.16571E+03 
  51425.8830     0.16474E+03 
  51458.1452     0.16377E+03 
  51490.4074     0.16281E+03 
  51522.6695     0.16184E+03 
  51554.9317     0.16088E+03 
  51587.1938     0.15992E+03 
  51619.4560     0.15897E+03 
  51651.7182     0.15801E+03 
  51683.9803     0.15706E+03 
  51716.2425     0.15611E+03 
  51748.5046     0.15516E+03 
  51780.7668     0.15422E+03 
  51813.0290     0.15327E+03 
  51845.2911     0.15233E+03 
  51877.5533     0.15139E+03 
  51909.8154     0.15046E+03 
  51942.0776     0.14953E+03 
  51974.3398     0.14860E+03 
  52006.6019     0.14767E+03 
  52038.8641     0.14674E+03 
  52071.1262     0.14582E+03 
  52103.3884     0.14490E+03 
  52135.6506     0.14398E+03 
  52167.9127     0.14307E+03 
  52200.1749     0.14216E+03 
  52232.4370     0.14125E+03 
  52264.6992     0.14034E+03 
  52296.9614     0.13944E+03 
  52329.2235     0.13854E+03 
  52361.4857     0.13764E+03 
  52393.7478     0.13674E+03 
  52426.0100     0.13585E+03 
  52458.2722     0.13496E+03 
  52490.5343     0.13407E+03 
  52522.7965     0.13319E+03 
  52555.0586     0.13231E+03 
  52587.3208     0.13143E+03 
  52619.5830     0.13055E+03 
  52651.8451     0.12968E+03 
  52684.1073     0.12881E+03 
  52716.3694     0.12794E+03 
  52748.6316     0.12708E+03 
  52780.8938     0.12622E+03 
  52813.1559     0.12536E+03 
  52845.4181     0.12451E+03 
  52877.6802     0.12365E+03 
  52909.9424     0.12281E+03 
  52942.2046     0.12196E+03 
  52974.4667     0.12112E+03 
  53006.7289     0.12028E+03 
  53038.9910     0.11944E+03 
  53071.2532     0.11861E+03 
  53103.5154     0.11777E+03 
  53135.7775     0.11695E+03 
  53168.0397     0.11612E+03 
  53200.3018     0.11530E+03 
  53232.5640     0.11448E+03 
  53264.8262     0.11367E+03 
  53297.0883     0.11285E+03 
  53329.3505     0.11204E+03 
  53361.6126     0.11124E+03 
  53393.8748     0.11043E+03 
  53426.1370     0.10963E+03 
  53458.3991     0.10884E+03 
  53490.6613     0.10804E+03 
  53522.9234     0.10725E+03 
  53555.1856     0.10647E+03 
  53587.4478     0.10568E+03 
  53619.7099     0.10490E+03 
  53651.9721     0.10412E+03 
  53684.2342     0.10335E+03 
  53716.4964     0.10258E+03 
  53748.7586     0.10181E+03 
  53781.0207     0.10104E+03 
  53813.2829     0.10028E+03 
  53845.5450     0.99524E+02 
  53877.8072     0.98768E+02 
  53910.0694     0.98016E+02 
  53942.3315     0.97267E+02 
  53974.5937     0.96521E+02 
  54006.8558     0.95778E+02 
  54039.1180     0.95039E+02 
  54071.3802     0.94303E+02 
  54103.6423     0.93570E+02 
  54135.9045     0.92840E+02 
  54168.1666     0.92114E+02 
  54200.4288     0.91391E+02 
  54232.6910     0.90671E+02 
  54264.9531     0.89954E+02 
  54297.2153     0.89241E+02 
  54329.4774     0.88530E+02 
  54361.7396     0.87823E+02 
  54394.0018     0.87120E+02 
  54426.2639     0.86419E+02 
  54458.5261     0.85722E+02 
  54490.7882     0.85028E+02 
  54523.0504     0.84337E+02 
  54555.3126     0.83650E+02 
  54587.5747     0.82965E+02 
  54619.8369     0.82284E+02 
  54652.0990     0.81607E+02 
  54684.3612     0.80932E+02 
  54716.6234     0.80261E+02 
  54748.8855     0.79593E+02 
  54781.1477     0.78928E+02 
  54813.4098     0.78266E+02 
  54845.6720     0.77608E+02 
  54877.9342     0.76953E+02 
  54910.1963     0.76301E+02 
  54942.4585     0.75652E+02 
  54974.7206     0.75007E+02 
  55006.9828     0.74364E+02 
  55039.2450     0.73725E+02 
  55071.5071     0.73090E+02 
  55103.7693     0.72457E+02 
  55136.0314     0.71828E+02 
  55168.2936     0.71202E+02 
  55200.5558     0.70579E+02 
  55232.8179     0.69959E+02 
  55265.0801     0.69342E+02 
  55297.3422     0.68729E+02 
  55329.6044     0.68119E+02 
  55361.8666     0.67512E+02 
  55394.1287     0.66908E+02 
  55426.3909     0.66308E+02 
  55458.6530     0.65710E+02 
  55490.9152     0.65116E+02 
  55523.1774     0.64525E+02 
  55555.4395     0.63937E+02 
  55587.7017     0.63352E+02 
  55619.9638     0.62770E+02 
  55652.2260     0.62192E+02 
  55684.4882     0.61617E+02 
  55716.7503     0.61044E+02 
  55749.0125     0.60475E+02 
  55781.2746     0.59909E+02 
  55813.5368     0.59347E+02 
  55845.7990     0.58787E+02 
  55878.0611     0.58230E+02 
  55910.3233     0.57677E+02 
  55942.5854     0.57126E+02 
  55974.8476     0.56579E+02 
  56007.1098     0.56035E+02 
  56039.3719     0.55494E+02 
  56071.6341     0.54956E+02 
  56103.8962     0.54421E+02 
  56136.1584     0.53889E+02 
  56168.4206     0.53360E+02 
  56200.6827     0.52834E+02 
  56232.9449     0.52311E+02 
  56265.2070     0.51791E+02 
  56297.4692     0.51275E+02 
  56329.7314     0.50761E+02 
  56361.9935     0.50250E+02 
  56394.2557     0.49743E+02 
  56426.5178     0.49238E+02 
  56458.7800     0.48736E+02 
  56491.0422     0.48238E+02 
  56523.3043     0.47742E+02 
  56555.5665     0.47249E+02 
  56587.8286     0.46759E+02 
  56620.0908     0.46273E+02 
  56652.3530     0.45789E+02 
  56684.6151     0.45308E+02 
  56716.8773     0.44830E+02 
  56749.1394     0.44355E+02 
  56781.4016     0.43883E+02 
  56813.6638     0.43414E+02 
  56845.9259     0.42947E+02 
  56878.1881     0.42484E+02 
  56910.4502     0.42023E+02 
  56942.7124     0.41566E+02 
  56974.9746     0.41111E+02 
  57007.2367     0.40659E+02 
  57039.4989     0.40210E+02 
  57071.7610     0.39764E+02 
  57104.0232     0.39321E+02 
  57136.2854     0.38880E+02 
  57168.5475     0.38443E+02 
  57200.8097     0.38008E+02 
  57233.0718     0.37576E+02 
  57265.3340     0.37147E+02 
  57297.5962     0.36720E+02 
  57329.8583     0.36297E+02 
  57362.1205     0.35876E+02 
  57394.3826     0.35458E+02 
  57426.6448     0.35043E+02 
  57458.9070     0.34630E+02 
  57491.1691     0.34221E+02 
  57523.4313     0.33814E+02 
  57555.6934     0.33410E+02 
  57587.9556     0.33008E+02 
  57620.2178     0.32609E+02 
  57652.4799     0.32213E+02 
  57684.7421     0.31820E+02 
  57717.0042     0.31429E+02 
  57749.2664     0.31042E+02 
  57781.5286     0.30656E+02 
  57813.7907     0.30274E+02 
  57846.0529     0.29894E+02 
  57878.3150     0.29517E+02 
  57910.5772     0.29142E+02 
  57942.8394     0.28771E+02 
  57975.1015     0.28401E+02 
  58007.3637     0.28035E+02 
  58039.6258     0.27671E+02 
  58071.8880     0.27309E+02 
  58104.1502     0.26951E+02 
  58136.4123     0.26595E+02 
  58168.6745     0.26241E+02 
  58200.9366     0.25890E+02 
  58233.1988     0.25542E+02 
  58265.4610     0.25196E+02 
  58297.7231     0.24853E+02 
  58329.9853     0.24513E+02 
  58362.2474     0.24175E+02 
  58394.5096     0.23839E+02 
  58426.7718     0.23507E+02 
  58459.0339     0.23176E+02 
  58491.2961     0.22849E+02 
  58523.5582     0.22523E+02 
  58555.8204     0.22201E+02 
  58588.0826     0.21880E+02 
  58620.3447     0.21563E+02 
  58652.6069     0.21248E+02 
  58684.8690     0.20935E+02 
  58717.1312     0.20625E+02 
  58749.3934     0.20317E+02 
  58781.6555     0.20012E+02 
  58813.9177     0.19710E+02 
  58846.1798     0.19409E+02 
  58878.4420     0.19112E+02 
  58910.7042     0.18816E+02 
  58942.9663     0.18524E+02 
  58975.2285     0.18233E+02 
  59007.4906     0.17946E+02 
  59039.7528     0.17660E+02 
  59072.0150     0.17377E+02 
  59104.2771     0.17097E+02 
  59136.5393     0.16819E+02 
  59168.8014     0.16543E+02 
  59201.0636     0.16270E+02 
  59233.3258     0.15999E+02 
  59265.5879     0.15731E+02 
  59297.8501     0.15465E+02 
  59330.1122     0.15202E+02 
  59362.3744     0.14941E+02 
  59394.6366     0.14682E+02 
  59426.8987     0.14426E+02 
  59459.1609     0.14172E+02 
  59491.4230     0.13920E+02 
  59523.6852     0.13671E+02 
  59555.9474     0.13425E+02 
  59588.2095     0.13181E+02 
  59620.4717     0.12939E+02 
  59652.7338     0.12700E+02 
  59684.9960     0.12463E+02 
  59717.2582     0.12228E+02 
  59749.5203     0.11996E+02 
  59781.7825     0.11766E+02 
  59814.0446     0.11539E+02 
  59846.3068     0.11314E+02 
  59878.5690     0.11091E+02 
  59910.8311     0.10871E+02 
  59943.0933     0.10653E+02 
  59975.3554     0.10438E+02 
  60007.6176     0.10225E+02 
  60039.8798     0.10014E+02 
  60072.1419     0.98060E+01 
  60104.4041     0.96003E+01 
  60136.6662     0.93969E+01 
  60168.9284     0.91959E+01 
  60201.1906     0.89974E+01 
  60233.4527     0.88013E+01 
  60265.7149     0.86076E+01 
  60297.9770     0.84163E+01 
  60330.2392     0.82275E+01 
  60362.5014     0.80410E+01 
  60394.7635     0.78571E+01 
  60427.0257     0.76755E+01 
  60459.2878     0.74964E+01 
  60491.5500     0.73198E+01 
  60523.8122     0.71456E+01 
  60556.0743     0.69739E+01 
  60588.3365     0.68046E+01 
  60620.5986     0.66378E+01 
  60652.8608     0.64735E+01 
  60685.1230     0.63117E+01 
  60717.3851     0.61524E+01 
  60749.6473     0.59955E+01 
  60781.9094     0.58412E+01 
  60814.1716     0.56894E+01 
  60846.4338     0.55402E+01 
  60878.6959     0.53935E+01 
  60910.9581     0.52493E+01 
  60943.2202     0.51077E+01 
  60975.4824     0.49687E+01 
  61007.7446     0.48322E+01 
  61040.0067     0.46983E+01 
  61072.2689     0.45671E+01 
  61104.5310     0.44384E+01 
  61136.7932     0.43124E+01 
  61169.0554     0.41890E+01 
  61201.3175     0.40683E+01 
  61233.5797     0.39503E+01 
  61265.8418     0.38349E+01 
  61298.1040     0.37222E+01 
  61330.3662     0.36123E+01 
  61362.6283     0.35050E+01 
  61394.8905     0.34006E+01 
  61427.1526     0.32988E+01 
  61459.4148     0.31999E+01 
  61491.6770     0.31038E+01 
  61523.9391     0.30104E+01 
  61556.2013     0.29200E+01 
  61588.4634     0.28323E+01 
  61620.7256     0.27476E+01 
  61652.9878     0.26657E+01 
  61685.2499     0.25867E+01 
  61717.5121     0.25107E+01 
  61749.7742     0.24377E+01 
  61782.0364     0.23676E+01 
  61814.2986     0.23006E+01 
  61846.5607     0.22365E+01 
  61878.8229     0.21755E+01 
  61911.0850     0.21176E+01 
  61943.3472     0.20629E+01 
  61975.6094     0.20112E+01 
  62007.8715     0.19627E+01 
  62040.1337     0.19174E+01 
  62072.3958     0.18753E+01 
  62104.6580     0.18365E+01 
  62136.9202     0.18009E+01 
  62169.1823     0.17686E+01 
  62201.4445     0.17397E+01 
  62233.7066     0.17141E+01 
  62265.9688     0.16920E+01 
  62298.2310     0.16732E+01 
  62330.4931     0.16580E+01 
  62362.7553     0.16462E+01 
  62395.0174     0.16380E+01 
  62427.2796     0.16334E+01 
  62459.5418     0.16324E+01 
  62491.8039     0.16350E+01 
  62524.0661     0.16414E+01 
  62556.3282     0.16514E+01 
  62588.5904     0.16653E+01 
  62620.8526     0.16829E+01 
  62653.1147     0.17045E+01 
  62685.3769     0.17299E+01 
  62717.6390     0.17592E+01 
  62749.9012     0.17926E+01 
  62782.1634     0.18300E+01 
  62814.4255     0.18714E+01 
  62846.6877     0.19170E+01 
  62878.9498     0.19668E+01 
  62911.2120     0.20208E+01 
  62943.4742     0.20791E+01 
  62975.7363     0.21417E+01 
  63007.9985     0.22088E+01 
  63040.2606     0.22802E+01 
  63072.5228     0.23562E+01 
  63104.7850     0.24367E+01 
  63137.0471     0.25218E+01 
  63169.3093     0.26116E+01 
  63201.5714     0.27061E+01 
  63233.8336     0.28054E+01 
  63266.0958     0.29095E+01 
  63298.3579     0.30186E+01 
  63330.6201     0.31326E+01 
  63362.8822     0.32517E+01 
  63395.1444     0.33758E+01 
  63427.4066     0.35052E+01 
  63459.6687     0.36398E+01 
  63491.9309     0.37797E+01 
  63524.1930     0.39250E+01 
  63556.4552     0.40757E+01 
  63588.7174     0.42320E+01 
  63620.9795     0.43939E+01 
  63653.2417     0.45615E+01 
  63685.5038     0.47348E+01 
  63717.7660     0.49139E+01 
  63750.0282     0.50990E+01 
  63782.2903     0.52901E+01 
  63814.5525     0.54873E+01 
  63846.8146     0.56906E+01 
  63879.0768     0.59002E+01 
  63911.3390     0.61161E+01 
  63943.6011     0.63385E+01 
  63975.8633     0.65674E+01 
  64008.1254     0.68029E+01 
  64040.3876     0.70451E+01 
  64072.6498     0.72941E+01 
  64104.9119     0.75500E+01 
  64137.1741     0.78129E+01 
  64169.4362     0.80829E+01 
  64201.6984     0.83600E+01 
  64233.9606     0.86445E+01 
  64266.2227     0.89364E+01 
  64298.4849     0.92358E+01 
  64330.7470     0.95428E+01 
  64363.0092     0.98576E+01 
  64395.2714     0.10180E+02 
  64427.5335     0.10511E+02 
  64459.7957     0.10849E+02 
  64492.0578     0.11196E+02 
  64524.3200     0.11551E+02 
  64556.5822     0.11915E+02 
  64588.8443     0.12287E+02 
  64621.1065     0.12667E+02 
  64653.3686     0.13057E+02 
  64685.6308     0.13455E+02 
  64717.8930     0.13863E+02 
  64750.1551     0.14279E+02 
  64782.4173     0.14705E+02 
  64814.6794     0.15141E+02 
  64846.9416     0.15585E+02 
  64879.2038     0.16040E+02 
  64911.4659     0.16505E+02 
  64943.7281     0.16979E+02 
  64975.9902     0.17464E+02 
  65008.2524     0.17959E+02 
  65040.5146     0.18464E+02 
  65072.7767     0.18980E+02 
  65105.0389     0.19507E+02 
  65137.3010     0.20045E+02 
  65169.5632     0.20593E+02 
  65201.8254     0.21153E+02 
  65234.0875     0.21725E+02 
  65266.3497     0.22307E+02 
  65298.6118     0.22902E+02 
  65330.8740     0.23508E+02 
  65363.1362     0.24127E+02 
  65395.3983     0.24757E+02 
  65427.6605     0.25401E+02 
  65459.9226     0.26056E+02 
  65492.1848     0.26725E+02 
  65524.4470     0.27406E+02 
  65556.7091     0.28100E+02 
  65588.9713     0.28808E+02 
  65621.2334     0.29529E+02 
  65653.4956     0.30264E+02 
  65685.7578     0.31013E+02 
  65718.0199     0.31776E+02 
  65750.2821     0.32553E+02 
  65782.5442     0.33344E+02 
  65814.8064     0.34151E+02 
  65847.0686     0.34972E+02 
  65879.3307     0.35808E+02 
  65911.5929     0.36659E+02 
  65943.8550     0.37526E+02 
  65976.1172     0.38409E+02 
  66008.3794     0.39308E+02 
  66040.6415     0.40222E+02 
  66072.9037     0.41154E+02 
  66105.1658     0.42101E+02 
  66137.4280     0.43066E+02 
  66169.6902     0.44048E+02 
  66201.9523     0.45047E+02 
  66234.2145     0.46063E+02 
  66266.4766     0.47097E+02 
  66298.7388     0.48150E+02 
  66331.0010     0.49220E+02 
  66363.2631     0.50309E+02 
  66395.5253     0.51417E+02 
  66427.7874     0.52544E+02 
  66460.0496     0.53690E+02 
  66492.3118     0.54855E+02 
  66524.5739     0.56041E+02 
  66556.8361     0.57246E+02 
  66589.0982     0.58472E+02 
  66621.3604     0.59718E+02 
  66653.6226     0.60985E+02 
  66685.8847     0.62273E+02 
  66718.1469     0.63583E+02 
  66750.4090     0.64914E+02 
  66782.6712     0.66267E+02 
  66814.9334     0.67642E+02 
  66847.1955     0.69040E+02 
  66879.4577     0.70461E+02 
  66911.7198     0.71905E+02 
  66943.9820     0.73372E+02 
  66976.2442     0.74863E+02 
  67008.5063     0.76378E+02 
  67040.7685     0.77917E+02 
  67073.0306     0.79481E+02 
  67105.2928     0.81070E+02 
  67137.5550     0.82683E+02 
  67169.8171     0.84323E+02 
  67202.0793     0.85988E+02 
  67234.3414     0.87680E+02 
  67266.6036     0.89398E+02 
  67298.8658     0.91142E+02 
  67331.1279     0.92914E+02 
  67363.3901     0.94714E+02 
  67395.6522     0.96541E+02 
  67427.9144     0.98396E+02 
  67460.1766     0.10028E+03 
  67492.4387     0.10219E+03 
  67524.7009     0.10413E+03 
  67556.9630     0.10611E+03 
  67589.2252     0.10811E+03 
  67621.4874     0.11014E+03 
  67653.7495     0.11220E+03 
  67686.0117     0.11429E+03 
  67718.2738     0.11642E+03 
  67750.5360     0.11857E+03 
  67782.7982     0.12076E+03 
  67815.0603     0.12298E+03 
  67847.3225     0.12524E+03 
  67879.5846     0.12752E+03 
  67911.8468     0.12984E+03 
  67944.1090     0.13219E+03 
  67976.3711     0.13458E+03 
  68008.6333     0.13700E+03 
  68040.8954     0.13946E+03 
  68073.1576     0.14196E+03 
  68105.4198     0.14448E+03 
  68137.6819     0.14705E+03 
  68169.9441     0.14965E+03 
  68202.2062     0.15229E+03 
  68234.4684     0.15496E+03 
  68266.7306     0.15768E+03 
  68298.9927     0.16043E+03 
  68331.2549     0.16322E+03 
  68363.5170     0.16605E+03 
  68395.7792     0.16892E+03 
  68428.0414     0.17183E+03 
  68460.3035     0.17478E+03 
  68492.5657     0.17777E+03 
  68524.8278     0.18080E+03 
  68557.0900     0.18387E+03 
  68589.3522     0.18698E+03 
  68621.6143     0.19014E+03 
  68653.8765     0.19334E+03 
  68686.1386     0.19658E+03 
  68718.4008     0.19987E+03 
  68750.6630     0.20320E+03 
  68782.9251     0.20657E+03 
  68815.1873     0.20999E+03 
  68847.4494     0.21346E+03 
  68879.7116     0.21697E+03 
  68911.9738     0.22053E+03 
  68944.2359     0.22413E+03 
  68976.4981     0.22778E+03 
  69008.7602     0.23148E+03 
  69041.0224     0.23523E+03 
  69073.2846     0.23902E+03 
  69105.5467     0.24286E+03 
  69137.8089     0.24676E+03 
  69170.0710     0.25070E+03 
  69202.3332     0.25469E+03 
  69234.5954     0.25874E+03 
  69266.8575     0.26283E+03 
  69299.1197     0.26698E+03 
  69331.3818     0.27118E+03 
  69363.6440     0.27543E+03 
  69395.9062     0.27973E+03 
  69428.1683     0.28409E+03 
  69460.4305     0.28850E+03 
  69492.6926     0.29297E+03 
  69524.9548     0.29749E+03 
  69557.2170     0.30207E+03 
  69589.4791     0.30670E+03 
  69621.7413     0.31139E+03 
  69654.0034     0.31613E+03 
  69686.2656     0.32094E+03 
  69718.5278     0.32580E+03 
  69750.7899     0.33071E+03 
  69783.0521     0.33569E+03 
  69815.3142     0.34073E+03 
  69847.5764     0.34582E+03 
  69879.8386     0.35098E+03 
  69912.1007     0.35619E+03 
  69944.3629     0.36147E+03 
  69976.6250     0.36680E+03 
  70008.8872     0.37220E+03 
  70041.1494     0.37766E+03 
  70073.4115     0.38319E+03 
  70105.6737     0.38877E+03 
  70137.9358     0.39442E+03 
  70170.1980     0.40014E+03 
  70202.4602     0.40592E+03 
  70234.7223     0.41176E+03 
  70266.9845     0.41767E+03 
  70299.2466     0.42365E+03 
  70331.5088     0.42969E+03 
  70363.7710     0.43580E+03 
  70396.0331     0.44197E+03 
  70428.2953     0.44821E+03 
  70460.5574     0.45452E+03 
  70492.8196     0.46090E+03 
  70525.0818     0.46735E+03 
  70557.3439     0.47387E+03 
  70589.6061     0.48046E+03 
  70621.8682     0.48711E+03 
  70654.1304     0.49384E+03 
  70686.3926     0.50064E+03 
  70718.6547     0.50751E+03 
  70750.9169     0.51446E+03 
  70783.1790     0.52147E+03 
  70815.4412     0.52856E+03 
  70847.7034     0.53572E+03 
  70879.9655     0.54296E+03 
  70912.2277     0.55027E+03 
  70944.4898     0.55765E+03 
  70976.7520     0.56511E+03 
  71009.0142     0.57264E+03 
  71041.2763     0.58025E+03 
  71073.5385     0.58793E+03 
  71105.8006     0.59570E+03 
  71138.0628     0.60353E+03 
  71170.3250     0.61145E+03 
  71202.5871     0.61944E+03 
  71234.8493     0.62751E+03 
  71267.1114     0.63566E+03 
  71299.3736     0.64389E+03 
  71331.6358     0.65220E+03 
  71363.8979     0.66058E+03 
  71396.1601     0.66905E+03 
  71428.4222     0.67759E+03 
  71460.6844     0.68622E+03 
  71492.9466     0.69493E+03 
  71525.2087     0.70371E+03 
  71557.4709     0.71258E+03 
  71589.7330     0.72153E+03 
  71621.9952     0.73057E+03 
  71654.2574     0.73968E+03 
  71686.5195     0.74888E+03 
  71718.7817     0.75816E+03 
  71751.0438     0.76753E+03 
  71783.3060     0.77697E+03 
  71815.5682     0.78651E+03 
  71847.8303     0.79612E+03 
  71880.0925     0.80582E+03 
  71912.3546     0.81561E+03 
  71944.6168     0.82547E+03 
  71976.8790     0.83543E+03 
  72009.1411     0.84547E+03 
  72041.4033     0.85559E+03 
  72073.6654     0.86581E+03 
  72105.9276     0.87610E+03 
  72138.1898     0.88649E+03 
  72170.4519     0.89696E+03 
  72202.7141     0.90751E+03 
  72234.9762     0.91816E+03 
  72267.2384     0.92889E+03 
  72299.5006     0.93971E+03 
  72331.7627     0.95061E+03 
  72364.0249     0.96160E+03 
  72396.2870     0.97268E+03 
  72428.5492     0.98385E+03 
  72460.8114     0.99511E+03 
  72493.0735     0.10065E+04 
  72525.3357     0.10179E+04 
  72557.5978     0.10294E+04 
  72589.8600     0.10410E+04 
