  32262.1600     0.46636E+01 
  32294.4222     0.47248E+01 
  32326.6843     0.47865E+01 
  32358.9465     0.48488E+01 
  32391.2086     0.49117E+01 
  32423.4708     0.49751E+01 
  32455.7330     0.50390E+01 
  32487.9951     0.51035E+01 
  32520.2573     0.51686E+01 
  32552.5194     0.52342E+01 
  32584.7816     0.53004E+01 
  32617.0438     0.53671E+01 
  32649.3059     0.54344E+01 
  32681.5681     0.55023E+01 
  32713.8302     0.55707E+01 
  32746.0924     0.56397E+01 
  32778.3546     0.57092E+01 
  32810.6167     0.57793E+01 
  32842.8789     0.58500E+01 
  32875.1410     0.59212E+01 
  32907.4032     0.59930E+01 
  32939.6654     0.60653E+01 
  32971.9275     0.61382E+01 
  33004.1897     0.62117E+01 
  33036.4518     0.62857E+01 
  33068.7140     0.63603E+01 
  33100.9762     0.64354E+01 
  33133.2383     0.65111E+01 
  33165.5005     0.65873E+01 
  33197.7626     0.66641E+01 
  33230.0248     0.67414E+01 
  33262.2870     0.68193E+01 
  33294.5491     0.68978E+01 
  33326.8113     0.69768E+01 
  33359.0734     0.70563E+01 
  33391.3356     0.71364E+01 
  33423.5978     0.72170E+01 
  33455.8599     0.72982E+01 
  33488.1221     0.73799E+01 
  33520.3842     0.74621E+01 
  33552.6464     0.75449E+01 
  33584.9086     0.76282E+01 
  33617.1707     0.77121E+01 
  33649.4329     0.77964E+01 
  33681.6950     0.78813E+01 
  33713.9572     0.79668E+01 
  33746.2194     0.80527E+01 
  33778.4815     0.81392E+01 
  33810.7437     0.82262E+01 
  33843.0058     0.83137E+01 
  33875.2680     0.84017E+01 
  33907.5302     0.84902E+01 
  33939.7923     0.85793E+01 
  33972.0545     0.86688E+01 
  34004.3166     0.87589E+01 
  34036.5788     0.88494E+01 
  34068.8410     0.89404E+01 
  34101.1031     0.90319E+01 
  34133.3653     0.91239E+01 
  34165.6274     0.92164E+01 
  34197.8896     0.93094E+01 
  34230.1518     0.94028E+01 
  34262.4139     0.94968E+01 
  34294.6761     0.95911E+01 
  34326.9382     0.96860E+01 
  34359.2004     0.97813E+01 
  34391.4626     0.98771E+01 
  34423.7247     0.99733E+01 
  34455.9869     0.10070E+02 
  34488.2490     0.10167E+02 
  34520.5112     0.10265E+02 
  34552.7734     0.10363E+02 
  34585.0355     0.10461E+02 
  34617.2977     0.10560E+02 
  34649.5598     0.10659E+02 
  34681.8220     0.10759E+02 
  34714.0842     0.10859E+02 
  34746.3463     0.10959E+02 
  34778.6085     0.11060E+02 
  34810.8706     0.11161E+02 
  34843.1328     0.11263E+02 
  34875.3950     0.11365E+02 
  34907.6571     0.11467E+02 
  34939.9193     0.11570E+02 
  34972.1814     0.11673E+02 
  35004.4436     0.11777E+02 
  35036.7058     0.11881E+02 
  35068.9679     0.11985E+02 
  35101.2301     0.12089E+02 
  35133.4922     0.12194E+02 
  35165.7544     0.12299E+02 
  35198.0166     0.12405E+02 
  35230.2787     0.12511E+02 
  35262.5409     0.12617E+02 
  35294.8030     0.12723E+02 
  35327.0652     0.12830E+02 
  35359.3274     0.12937E+02 
  35391.5895     0.13044E+02 
  35423.8517     0.13152E+02 
  35456.1138     0.13260E+02 
  35488.3760     0.13368E+02 
  35520.6382     0.13476E+02 
  35552.9003     0.13585E+02 
  35585.1625     0.13694E+02 
  35617.4246     0.13803E+02 
  35649.6868     0.13912E+02 
  35681.9490     0.14022E+02 
  35714.2111     0.14132E+02 
  35746.4733     0.14242E+02 
  35778.7354     0.14352E+02 
  35810.9976     0.14462E+02 
  35843.2598     0.14573E+02 
  35875.5219     0.14683E+02 
  35907.7841     0.14794E+02 
  35940.0462     0.14905E+02 
  35972.3084     0.15017E+02 
  36004.5706     0.15128E+02 
  36036.8327     0.15239E+02 
  36069.0949     0.15351E+02 
  36101.3570     0.15463E+02 
  36133.6192     0.15575E+02 
  36165.8814     0.15686E+02 
  36198.1435     0.15798E+02 
  36230.4057     0.15911E+02 
  36262.6678     0.16023E+02 
  36294.9300     0.16135E+02 
  36327.1922     0.16247E+02 
  36359.4543     0.16360E+02 
  36391.7165     0.16472E+02 
  36423.9786     0.16585E+02 
  36456.2408     0.16697E+02 
  36488.5030     0.16810E+02 
  36520.7651     0.16922E+02 
  36553.0273     0.17035E+02 
  36585.2894     0.17147E+02 
  36617.5516     0.17260E+02 
  36649.8138     0.17372E+02 
  36682.0759     0.17485E+02 
  36714.3381     0.17597E+02 
  36746.6002     0.17709E+02 
  36778.8624     0.17822E+02 
  36811.1246     0.17934E+02 
  36843.3867     0.18046E+02 
  36875.6489     0.18158E+02 
  36907.9110     0.18270E+02 
  36940.1732     0.18382E+02 
  36972.4354     0.18494E+02 
  37004.6975     0.18605E+02 
  37036.9597     0.18717E+02 
  37069.2218     0.18828E+02 
  37101.4840     0.18939E+02 
  37133.7462     0.19050E+02 
  37166.0083     0.19161E+02 
  37198.2705     0.19272E+02 
  37230.5326     0.19383E+02 
  37262.7948     0.19493E+02 
  37295.0570     0.19603E+02 
  37327.3191     0.19713E+02 
  37359.5813     0.19823E+02 
  37391.8434     0.19932E+02 
  37424.1056     0.20041E+02 
  37456.3678     0.20150E+02 
  37488.6299     0.20259E+02 
  37520.8921     0.20368E+02 
  37553.1542     0.20476E+02 
  37585.4164     0.20584E+02 
  37617.6786     0.20691E+02 
  37649.9407     0.20799E+02 
  37682.2029     0.20906E+02 
  37714.4650     0.21013E+02 
  37746.7272     0.21119E+02 
  37778.9894     0.21225E+02 
  37811.2515     0.21331E+02 
  37843.5137     0.21436E+02 
  37875.7758     0.21541E+02 
  37908.0380     0.21646E+02 
  37940.3002     0.21750E+02 
  37972.5623     0.21854E+02 
  38004.8245     0.21957E+02 
  38037.0866     0.22060E+02 
  38069.3488     0.22163E+02 
  38101.6110     0.22265E+02 
  38133.8731     0.22367E+02 
  38166.1353     0.22468E+02 
  38198.3974     0.22569E+02 
  38230.6596     0.22670E+02 
  38262.9218     0.22770E+02 
  38295.1839     0.22869E+02 
  38327.4461     0.22968E+02 
  38359.7082     0.23067E+02 
  38391.9704     0.23165E+02 
  38424.2326     0.23262E+02 
  38456.4947     0.23360E+02 
  38488.7569     0.23456E+02 
  38521.0190     0.23552E+02 
  38553.2812     0.23647E+02 
  38585.5434     0.23742E+02 
  38617.8055     0.23837E+02 
  38650.0677     0.23931E+02 
  38682.3298     0.24024E+02 
  38714.5920     0.24116E+02 
  38746.8542     0.24208E+02 
  38779.1163     0.24300E+02 
  38811.3785     0.24391E+02 
  38843.6406     0.24481E+02 
  38875.9028     0.24571E+02 
  38908.1650     0.24660E+02 
  38940.4271     0.24748E+02 
  38972.6893     0.24836E+02 
  39004.9514     0.24923E+02 
  39037.2136     0.25010E+02 
  39069.4758     0.25095E+02 
  39101.7379     0.25181E+02 
  39134.0001     0.25265E+02 
  39166.2622     0.25349E+02 
  39198.5244     0.25432E+02 
  39230.7866     0.25514E+02 
  39263.0487     0.25596E+02 
  39295.3109     0.25677E+02 
  39327.5730     0.25758E+02 
  39359.8352     0.25837E+02 
  39392.0974     0.25916E+02 
  39424.3595     0.25994E+02 
  39456.6217     0.26072E+02 
  39488.8838     0.26148E+02 
  39521.1460     0.26224E+02 
  39553.4082     0.26300E+02 
  39585.6703     0.26374E+02 
  39617.9325     0.26448E+02 
  39650.1946     0.26521E+02 
  39682.4568     0.26593E+02 
  39714.7190     0.26664E+02 
  39746.9811     0.26735E+02 
  39779.2433     0.26804E+02 
  39811.5054     0.26873E+02 
  39843.7676     0.26942E+02 
  39876.0298     0.27009E+02 
  39908.2919     0.27075E+02 
  39940.5541     0.27141E+02 
  39972.8162     0.27206E+02 
  40005.0784     0.27270E+02 
  40037.3406     0.27333E+02 
  40069.6027     0.27396E+02 
  40101.8649     0.27457E+02 
  40134.1270     0.27518E+02 
  40166.3892     0.27578E+02 
  40198.6514     0.27637E+02 
  40230.9135     0.27695E+02 
  40263.1757     0.27753E+02 
  40295.4378     0.27809E+02 
  40327.7000     0.27865E+02 
  40359.9622     0.27919E+02 
  40392.2243     0.27973E+02 
  40424.4865     0.28026E+02 
  40456.7486     0.28078E+02 
  40489.0108     0.28129E+02 
  40521.2730     0.28180E+02 
  40553.5351     0.28229E+02 
  40585.7973     0.28278E+02 
  40618.0594     0.28325E+02 
  40650.3216     0.28372E+02 
  40682.5838     0.28418E+02 
  40714.8459     0.28463E+02 
  40747.1081     0.28507E+02 
  40779.3702     0.28550E+02 
  40811.6324     0.28592E+02 
  40843.8946     0.28633E+02 
  40876.1567     0.28674E+02 
  40908.4189     0.28713E+02 
  40940.6810     0.28752E+02 
  40972.9432     0.28789E+02 
  41005.2054     0.28826E+02 
  41037.4675     0.28862E+02 
  41069.7297     0.28896E+02 
  41101.9918     0.28930E+02 
  41134.2540     0.28963E+02 
  41166.5162     0.28995E+02 
  41198.7783     0.29026E+02 
  41231.0405     0.29056E+02 
  41263.3026     0.29086E+02 
  41295.5648     0.29114E+02 
  41327.8270     0.29141E+02 
  41360.0891     0.29167E+02 
  41392.3513     0.29193E+02 
  41424.6134     0.29217E+02 
  41456.8756     0.29241E+02 
  41489.1378     0.29264E+02 
  41521.3999     0.29285E+02 
  41553.6621     0.29306E+02 
  41585.9242     0.29326E+02 
  41618.1864     0.29345E+02 
  41650.4486     0.29363E+02 
  41682.7107     0.29380E+02 
  41714.9729     0.29396E+02 
  41747.2350     0.29411E+02 
  41779.4972     0.29425E+02 
  41811.7594     0.29438E+02 
  41844.0215     0.29450E+02 
  41876.2837     0.29462E+02 
  41908.5458     0.29472E+02 
  41940.8080     0.29481E+02 
  41973.0702     0.29490E+02 
  42005.3323     0.29498E+02 
  42037.5945     0.29504E+02 
  42069.8566     0.29510E+02 
  42102.1188     0.29515E+02 
  42134.3810     0.29519E+02 
  42166.6431     0.29521E+02 
  42198.9053     0.29523E+02 
  42231.1674     0.29525E+02 
  42263.4296     0.29525E+02 
  42295.6918     0.29524E+02 
  42327.9539     0.29522E+02 
  42360.2161     0.29520E+02 
  42392.4782     0.29516E+02 
  42424.7404     0.29512E+02 
  42457.0026     0.29506E+02 
  42489.2647     0.29500E+02 
  42521.5269     0.29493E+02 
  42553.7890     0.29485E+02 
  42586.0512     0.29476E+02 
  42618.3134     0.29466E+02 
  42650.5755     0.29455E+02 
  42682.8377     0.29444E+02 
  42715.0998     0.29431E+02 
  42747.3620     0.29418E+02 
  42779.6242     0.29403E+02 
  42811.8863     0.29388E+02 
  42844.1485     0.29372E+02 
  42876.4106     0.29355E+02 
  42908.6728     0.29337E+02 
  42940.9350     0.29319E+02 
  42973.1971     0.29299E+02 
  43005.4593     0.29279E+02 
  43037.7214     0.29257E+02 
  43069.9836     0.29235E+02 
  43102.2458     0.29212E+02 
  43134.5079     0.29188E+02 
  43166.7701     0.29164E+02 
  43199.0322     0.29138E+02 
  43231.2944     0.29112E+02 
  43263.5566     0.29085E+02 
  43295.8187     0.29057E+02 
  43328.0809     0.29028E+02 
  43360.3430     0.28998E+02 
  43392.6052     0.28968E+02 
  43424.8674     0.28936E+02 
  43457.1295     0.28904E+02 
  43489.3917     0.28871E+02 
  43521.6538     0.28838E+02 
  43553.9160     0.28803E+02 
  43586.1782     0.28768E+02 
  43618.4403     0.28732E+02 
  43650.7025     0.28695E+02 
  43682.9646     0.28658E+02 
  43715.2268     0.28619E+02 
  43747.4890     0.28580E+02 
  43779.7511     0.28540E+02 
  43812.0133     0.28499E+02 
  43844.2754     0.28458E+02 
  43876.5376     0.28416E+02 
  43908.7998     0.28373E+02 
  43941.0619     0.28329E+02 
  43973.3241     0.28285E+02 
  44005.5862     0.28240E+02 
  44037.8484     0.28194E+02 
  44070.1106     0.28148E+02 
  44102.3727     0.28100E+02 
  44134.6349     0.28053E+02 
  44166.8970     0.28004E+02 
  44199.1592     0.27955E+02 
  44231.4214     0.27905E+02 
  44263.6835     0.27854E+02 
  44295.9457     0.27803E+02 
  44328.2078     0.27750E+02 
  44360.4700     0.27698E+02 
  44392.7322     0.27644E+02 
  44424.9943     0.27590E+02 
  44457.2565     0.27536E+02 
  44489.5186     0.27480E+02 
  44521.7808     0.27425E+02 
  44554.0430     0.27368E+02 
  44586.3051     0.27311E+02 
  44618.5673     0.27253E+02 
  44650.8294     0.27195E+02 
  44683.0916     0.27135E+02 
  44715.3538     0.27076E+02 
  44747.6159     0.27016E+02 
  44779.8781     0.26955E+02 
  44812.1402     0.26893E+02 
  44844.4024     0.26831E+02 
  44876.6646     0.26769E+02 
  44908.9267     0.26706E+02 
  44941.1889     0.26642E+02 
  44973.4510     0.26578E+02 
  45005.7132     0.26513E+02 
  45037.9754     0.26448E+02 
  45070.2375     0.26382E+02 
  45102.4997     0.26315E+02 
  45134.7618     0.26248E+02 
  45167.0240     0.26181E+02 
  45199.2862     0.26113E+02 
  45231.5483     0.26045E+02 
  45263.8105     0.25976E+02 
  45296.0726     0.25906E+02 
  45328.3348     0.25836E+02 
  45360.5970     0.25766E+02 
  45392.8591     0.25695E+02 
  45425.1213     0.25624E+02 
  45457.3834     0.25552E+02 
  45489.6456     0.25479E+02 
  45521.9078     0.25407E+02 
  45554.1699     0.25334E+02 
  45586.4321     0.25260E+02 
  45618.6942     0.25186E+02 
  45650.9564     0.25111E+02 
  45683.2186     0.25037E+02 
  45715.4807     0.24961E+02 
  45747.7429     0.24886E+02 
  45780.0050     0.24809E+02 
  45812.2672     0.24733E+02 
  45844.5294     0.24656E+02 
  45876.7915     0.24579E+02 
  45909.0537     0.24501E+02 
  45941.3158     0.24423E+02 
  45973.5780     0.24345E+02 
  46005.8402     0.24266E+02 
  46038.1023     0.24187E+02 
  46070.3645     0.24108E+02 
  46102.6266     0.24028E+02 
  46134.8888     0.23948E+02 
  46167.1510     0.23867E+02 
  46199.4131     0.23787E+02 
  46231.6753     0.23705E+02 
  46263.9374     0.23624E+02 
  46296.1996     0.23542E+02 
  46328.4618     0.23460E+02 
  46360.7239     0.23378E+02 
  46392.9861     0.23296E+02 
  46425.2482     0.23213E+02 
  46457.5104     0.23130E+02 
  46489.7726     0.23046E+02 
  46522.0347     0.22963E+02 
  46554.2969     0.22879E+02 
  46586.5590     0.22795E+02 
  46618.8212     0.22710E+02 
  46651.0834     0.22626E+02 
  46683.3455     0.22541E+02 
  46715.6077     0.22456E+02 
  46747.8698     0.22371E+02 
  46780.1320     0.22285E+02 
  46812.3942     0.22200E+02 
  46844.6563     0.22114E+02 
  46876.9185     0.22028E+02 
  46909.1806     0.21941E+02 
  46941.4428     0.21855E+02 
  46973.7050     0.21768E+02 
  47005.9671     0.21681E+02 
  47038.2293     0.21594E+02 
  47070.4914     0.21507E+02 
  47102.7536     0.21420E+02 
  47135.0158     0.21333E+02 
  47167.2779     0.21245E+02 
  47199.5401     0.21157E+02 
  47231.8022     0.21069E+02 
  47264.0644     0.20981E+02 
  47296.3266     0.20893E+02 
  47328.5887     0.20805E+02 
  47360.8509     0.20717E+02 
  47393.1130     0.20628E+02 
  47425.3752     0.20540E+02 
  47457.6374     0.20451E+02 
  47489.8995     0.20362E+02 
  47522.1617     0.20274E+02 
  47554.4238     0.20185E+02 
  47586.6860     0.20096E+02 
  47618.9482     0.20007E+02 
  47651.2103     0.19918E+02 
  47683.4725     0.19828E+02 
  47715.7346     0.19739E+02 
  47747.9968     0.19650E+02 
  47780.2590     0.19561E+02 
  47812.5211     0.19471E+02 
  47844.7833     0.19382E+02 
  47877.0454     0.19292E+02 
  47909.3076     0.19203E+02 
  47941.5698     0.19113E+02 
  47973.8319     0.19024E+02 
  48006.0941     0.18934E+02 
  48038.3562     0.18845E+02 
  48070.6184     0.18755E+02 
  48102.8806     0.18666E+02 
  48135.1427     0.18576E+02 
  48167.4049     0.18487E+02 
  48199.6670     0.18397E+02 
  48231.9292     0.18308E+02 
  48264.1914     0.18219E+02 
  48296.4535     0.18129E+02 
  48328.7157     0.18040E+02 
  48360.9778     0.17950E+02 
  48393.2400     0.17861E+02 
  48425.5022     0.17772E+02 
  48457.7643     0.17683E+02 
  48490.0265     0.17594E+02 
  48522.2886     0.17505E+02 
  48554.5508     0.17416E+02 
  48586.8130     0.17327E+02 
  48619.0751     0.17238E+02 
  48651.3373     0.17149E+02 
  48683.5994     0.17060E+02 
  48715.8616     0.16972E+02 
  48748.1238     0.16883E+02 
  48780.3859     0.16795E+02 
  48812.6481     0.16706E+02 
  48844.9102     0.16618E+02 
  48877.1724     0.16530E+02 
  48909.4346     0.16442E+02 
  48941.6967     0.16354E+02 
  48973.9589     0.16266E+02 
  49006.2210     0.16178E+02 
  49038.4832     0.16091E+02 
  49070.7454     0.16003E+02 
  49103.0075     0.15916E+02 
  49135.2697     0.15829E+02 
  49167.5318     0.15742E+02 
  49199.7940     0.15655E+02 
  49232.0562     0.15568E+02 
  49264.3183     0.15482E+02 
  49296.5805     0.15395E+02 
  49328.8426     0.15309E+02 
  49361.1048     0.15223E+02 
  49393.3670     0.15137E+02 
  49425.6291     0.15051E+02 
  49457.8913     0.14965E+02 
  49490.1534     0.14879E+02 
  49522.4156     0.14794E+02 
  49554.6778     0.14709E+02 
  49586.9399     0.14624E+02 
  49619.2021     0.14539E+02 
  49651.4642     0.14454E+02 
  49683.7264     0.14370E+02 
  49715.9886     0.14286E+02 
  49748.2507     0.14202E+02 
  49780.5129     0.14118E+02 
  49812.7750     0.14034E+02 
  49845.0372     0.13951E+02 
  49877.2994     0.13867E+02 
  49909.5615     0.13784E+02 
  49941.8237     0.13701E+02 
  49974.0858     0.13619E+02 
  50006.3480     0.13536E+02 
  50038.6102     0.13454E+02 
  50070.8723     0.13372E+02 
  50103.1345     0.13290E+02 
  50135.3966     0.13208E+02 
  50167.6588     0.13127E+02 
  50199.9210     0.13046E+02 
  50232.1831     0.12965E+02 
  50264.4453     0.12884E+02 
  50296.7074     0.12804E+02 
  50328.9696     0.12723E+02 
  50361.2318     0.12643E+02 
  50393.4939     0.12564E+02 
  50425.7561     0.12484E+02 
  50458.0182     0.12405E+02 
  50490.2804     0.12326E+02 
  50522.5426     0.12247E+02 
  50554.8047     0.12168E+02 
  50587.0669     0.12090E+02 
  50619.3290     0.12012E+02 
  50651.5912     0.11934E+02 
  50683.8534     0.11857E+02 
  50716.1155     0.11779E+02 
  50748.3777     0.11702E+02 
  50780.6398     0.11625E+02 
  50812.9020     0.11549E+02 
  50845.1642     0.11473E+02 
  50877.4263     0.11397E+02 
  50909.6885     0.11321E+02 
  50941.9506     0.11245E+02 
  50974.2128     0.11170E+02 
  51006.4750     0.11095E+02 
  51038.7371     0.11021E+02 
  51070.9993     0.10946E+02 
  51103.2614     0.10872E+02 
  51135.5236     0.10798E+02 
  51167.7858     0.10725E+02 
  51200.0479     0.10651E+02 
  51232.3101     0.10578E+02 
  51264.5722     0.10505E+02 
  51296.8344     0.10433E+02 
  51329.0966     0.10361E+02 
  51361.3587     0.10289E+02 
  51393.6209     0.10217E+02 
  51425.8830     0.10146E+02 
  51458.1452     0.10075E+02 
  51490.4074     0.10004E+02 
  51522.6695     0.99335E+01 
  51554.9317     0.98633E+01 
  51587.1938     0.97933E+01 
  51619.4560     0.97237E+01 
  51651.7182     0.96544E+01 
  51683.9803     0.95853E+01 
  51716.2425     0.95165E+01 
  51748.5046     0.94480E+01 
  51780.7668     0.93799E+01 
  51813.0290     0.93120E+01 
  51845.2911     0.92444E+01 
  51877.5533     0.91770E+01 
  51909.8154     0.91100E+01 
  51942.0776     0.90433E+01 
  51974.3398     0.89769E+01 
  52006.6019     0.89107E+01 
  52038.8641     0.88449E+01 
  52071.1262     0.87794E+01 
  52103.3884     0.87141E+01 
  52135.6506     0.86492E+01 
  52167.9127     0.85845E+01 
  52200.1749     0.85202E+01 
  52232.4370     0.84561E+01 
  52264.6992     0.83924E+01 
  52296.9614     0.83289E+01 
  52329.2235     0.82657E+01 
  52361.4857     0.82029E+01 
  52393.7478     0.81403E+01 
  52426.0100     0.80781E+01 
  52458.2722     0.80161E+01 
  52490.5343     0.79544E+01 
  52522.7965     0.78931E+01 
  52555.0586     0.78320E+01 
  52587.3208     0.77712E+01 
  52619.5830     0.77108E+01 
  52651.8451     0.76506E+01 
  52684.1073     0.75908E+01 
  52716.3694     0.75312E+01 
  52748.6316     0.74719E+01 
  52780.8938     0.74130E+01 
  52813.1559     0.73543E+01 
  52845.4181     0.72959E+01 
  52877.6802     0.72379E+01 
  52909.9424     0.71801E+01 
  52942.2046     0.71226E+01 
  52974.4667     0.70654E+01 
  53006.7289     0.70086E+01 
  53038.9910     0.69520E+01 
  53071.2532     0.68957E+01 
  53103.5154     0.68397E+01 
  53135.7775     0.67841E+01 
  53168.0397     0.67287E+01 
  53200.3018     0.66736E+01 
  53232.5640     0.66188E+01 
  53264.8262     0.65643E+01 
  53297.0883     0.65101E+01 
  53329.3505     0.64562E+01 
  53361.6126     0.64026E+01 
  53393.8748     0.63493E+01 
  53426.1370     0.62963E+01 
  53458.3991     0.62435E+01 
  53490.6613     0.61911E+01 
  53522.9234     0.61390E+01 
  53555.1856     0.60871E+01 
  53587.4478     0.60355E+01 
  53619.7099     0.59843E+01 
  53651.9721     0.59333E+01 
  53684.2342     0.58826E+01 
  53716.4964     0.58322E+01 
  53748.7586     0.57821E+01 
  53781.0207     0.57323E+01 
  53813.2829     0.56828E+01 
  53845.5450     0.56336E+01 
  53877.8072     0.55846E+01 
  53910.0694     0.55359E+01 
  53942.3315     0.54876E+01 
  53974.5937     0.54395E+01 
  54006.8558     0.53916E+01 
  54039.1180     0.53441E+01 
  54071.3802     0.52969E+01 
  54103.6423     0.52499E+01 
  54135.9045     0.52032E+01 
  54168.1666     0.51568E+01 
  54200.4288     0.51107E+01 
  54232.6910     0.50649E+01 
  54264.9531     0.50193E+01 
  54297.2153     0.49740E+01 
  54329.4774     0.49290E+01 
  54361.7396     0.48843E+01 
  54394.0018     0.48398E+01 
  54426.2639     0.47956E+01 
  54458.5261     0.47517E+01 
  54490.7882     0.47081E+01 
  54523.0504     0.46647E+01 
  54555.3126     0.46217E+01 
  54587.5747     0.45788E+01 
  54619.8369     0.45363E+01 
  54652.0990     0.44940E+01 
  54684.3612     0.44520E+01 
  54716.6234     0.44102E+01 
  54748.8855     0.43688E+01 
  54781.1477     0.43276E+01 
  54813.4098     0.42866E+01 
  54845.6720     0.42459E+01 
  54877.9342     0.42055E+01 
  54910.1963     0.41653E+01 
  54942.4585     0.41254E+01 
  54974.7206     0.40858E+01 
  55006.9828     0.40464E+01 
  55039.2450     0.40073E+01 
  55071.5071     0.39684E+01 
  55103.7693     0.39298E+01 
  55136.0314     0.38915E+01 
  55168.2936     0.38534E+01 
  55200.5558     0.38155E+01 
  55232.8179     0.37779E+01 
  55265.0801     0.37406E+01 
  55297.3422     0.37035E+01 
  55329.6044     0.36667E+01 
  55361.8666     0.36301E+01 
  55394.1287     0.35937E+01 
  55426.3909     0.35576E+01 
  55458.6530     0.35218E+01 
  55490.9152     0.34862E+01 
  55523.1774     0.34508E+01 
  55555.4395     0.34157E+01 
  55587.7017     0.33808E+01 
  55619.9638     0.33462E+01 
  55652.2260     0.33118E+01 
  55684.4882     0.32776E+01 
  55716.7503     0.32437E+01 
  55749.0125     0.32100E+01 
  55781.2746     0.31766E+01 
  55813.5368     0.31434E+01 
  55845.7990     0.31104E+01 
  55878.0611     0.30777E+01 
  55910.3233     0.30451E+01 
  55942.5854     0.30129E+01 
  55974.8476     0.29808E+01 
  56007.1098     0.29490E+01 
  56039.3719     0.29174E+01 
  56071.6341     0.28860E+01 
  56103.8962     0.28549E+01 
  56136.1584     0.28239E+01 
  56168.4206     0.27932E+01 
  56200.6827     0.27628E+01 
  56232.9449     0.27325E+01 
  56265.2070     0.27025E+01 
  56297.4692     0.26727E+01 
  56329.7314     0.26431E+01 
  56361.9935     0.26137E+01 
  56394.2557     0.25845E+01 
  56426.5178     0.25556E+01 
  56458.7800     0.25269E+01 
  56491.0422     0.24983E+01 
  56523.3043     0.24700E+01 
  56555.5665     0.24419E+01 
  56587.8286     0.24141E+01 
  56620.0908     0.23864E+01 
  56652.3530     0.23589E+01 
  56684.6151     0.23317E+01 
  56716.8773     0.23046E+01 
  56749.1394     0.22778E+01 
  56781.4016     0.22511E+01 
  56813.6638     0.22247E+01 
  56845.9259     0.21984E+01 
  56878.1881     0.21724E+01 
  56910.4502     0.21466E+01 
  56942.7124     0.21209E+01 
  56974.9746     0.20955E+01 
  57007.2367     0.20703E+01 
  57039.4989     0.20452E+01 
  57071.7610     0.20204E+01 
  57104.0232     0.19957E+01 
  57136.2854     0.19713E+01 
  57168.5475     0.19470E+01 
  57200.8097     0.19229E+01 
  57233.0718     0.18990E+01 
  57265.3340     0.18753E+01 
  57297.5962     0.18518E+01 
  57329.8583     0.18285E+01 
  57362.1205     0.18054E+01 
  57394.3826     0.17824E+01 
  57426.6448     0.17596E+01 
  57458.9070     0.17371E+01 
  57491.1691     0.17147E+01 
  57523.4313     0.16924E+01 
  57555.6934     0.16704E+01 
  57587.9556     0.16485E+01 
  57620.2178     0.16269E+01 
  57652.4799     0.16054E+01 
  57684.7421     0.15841E+01 
  57717.0042     0.15629E+01 
  57749.2664     0.15419E+01 
  57781.5286     0.15211E+01 
  57813.7907     0.15005E+01 
  57846.0529     0.14801E+01 
  57878.3150     0.14598E+01 
  57910.5772     0.14397E+01 
  57942.8394     0.14198E+01 
  57975.1015     0.14000E+01 
  58007.3637     0.13804E+01 
  58039.6258     0.13610E+01 
  58071.8880     0.13417E+01 
  58104.1502     0.13226E+01 
  58136.4123     0.13037E+01 
  58168.6745     0.12849E+01 
  58200.9366     0.12663E+01 
  58233.1988     0.12479E+01 
  58265.4610     0.12296E+01 
  58297.7231     0.12114E+01 
  58329.9853     0.11935E+01 
  58362.2474     0.11757E+01 
  58394.5096     0.11580E+01 
  58426.7718     0.11406E+01 
  58459.0339     0.11232E+01 
  58491.2961     0.11061E+01 
  58523.5582     0.10890E+01 
  58555.8204     0.10722E+01 
  58588.0826     0.10555E+01 
  58620.3447     0.10389E+01 
  58652.6069     0.10225E+01 
  58684.8690     0.10063E+01 
  58717.1312     0.99017E+00 
  58749.3934     0.97422E+00 
  58781.6555     0.95842E+00 
  58813.9177     0.94277E+00 
  58846.1798     0.92727E+00 
  58878.4420     0.91192E+00 
  58910.7042     0.89671E+00 
  58942.9663     0.88165E+00 
  58975.2285     0.86673E+00 
  59007.4906     0.85196E+00 
  59039.7528     0.83733E+00 
  59072.0150     0.82285E+00 
  59104.2771     0.80851E+00 
  59136.5393     0.79431E+00 
  59168.8014     0.78025E+00 
  59201.0636     0.76634E+00 
  59233.3258     0.75256E+00 
  59265.5879     0.73893E+00 
  59297.8501     0.72543E+00 
  59330.1122     0.71207E+00 
  59362.3744     0.69885E+00 
  59394.6366     0.68577E+00 
  59426.8987     0.67283E+00 
  59459.1609     0.66002E+00 
  59491.4230     0.64735E+00 
  59523.6852     0.63482E+00 
  59555.9474     0.62242E+00 
  59588.2095     0.61015E+00 
  59620.4717     0.59802E+00 
  59652.7338     0.58602E+00 
  59684.9960     0.57416E+00 
  59717.2582     0.56243E+00 
  59749.5203     0.55083E+00 
  59781.7825     0.53936E+00 
  59814.0446     0.52803E+00 
  59846.3068     0.51682E+00 
  59878.5690     0.50575E+00 
  59910.8311     0.49480E+00 
  59943.0933     0.48399E+00 
  59975.3554     0.47331E+00 
  60007.6176     0.46275E+00 
  60039.8798     0.45233E+00 
  60072.1419     0.44203E+00 
  60104.4041     0.43186E+00 
  60136.6662     0.42182E+00 
  60168.9284     0.41191E+00 
  60201.1906     0.40213E+00 
  60233.4527     0.39247E+00 
  60265.7149     0.38294E+00 
  60297.9770     0.37354E+00 
  60330.2392     0.36426E+00 
  60362.5014     0.35511E+00 
  60394.7635     0.34608E+00 
  60427.0257     0.33718E+00 
  60459.2878     0.32841E+00 
  60491.5500     0.31976E+00 
  60523.8122     0.31124E+00 
  60556.0743     0.30285E+00 
  60588.3365     0.29458E+00 
  60620.5986     0.28643E+00 
  60652.8608     0.27841E+00 
  60685.1230     0.27051E+00 
  60717.3851     0.26274E+00 
  60749.6473     0.25510E+00 
  60781.9094     0.24758E+00 
  60814.1716     0.24018E+00 
  60846.4338     0.23291E+00 
  60878.6959     0.22577E+00 
  60910.9581     0.21875E+00 
  60943.2202     0.21185E+00 
  60975.4824     0.20508E+00 
  61007.7446     0.19844E+00 
  61040.0067     0.19192E+00 
  61072.2689     0.18553E+00 
  61104.5310     0.17926E+00 
  61136.7932     0.17312E+00 
  61169.0554     0.16710E+00 
  61201.3175     0.16121E+00 
  61233.5797     0.15545E+00 
  61265.8418     0.14982E+00 
  61298.1040     0.14431E+00 
  61330.3662     0.13893E+00 
  61362.6283     0.13367E+00 
  61394.8905     0.12855E+00 
  61427.1526     0.12355E+00 
  61459.4148     0.11869E+00 
  61491.6770     0.11395E+00 
  61523.9391     0.10934E+00 
  61556.2013     0.10486E+00 
  61588.4634     0.10051E+00 
  61620.7256     0.96295E-01 
  61652.9878     0.92210E-01 
  61685.2499     0.88257E-01 
  61717.5121     0.84437E-01 
  61749.7742     0.80750E-01 
  61782.0364     0.77197E-01 
  61814.2986     0.73779E-01 
  61846.5607     0.70496E-01 
  61878.8229     0.67348E-01 
  61911.0850     0.64338E-01 
  61943.3472     0.61465E-01 
  61975.6094     0.58731E-01 
  62007.8715     0.56135E-01 
  62040.1337     0.53679E-01 
  62072.3958     0.51364E-01 
  62104.6580     0.49191E-01 
  62136.9202     0.47161E-01 
  62169.1823     0.45274E-01 
  62201.4445     0.43532E-01 
  62233.7066     0.41935E-01 
  62265.9688     0.40485E-01 
  62298.2310     0.39183E-01 
  62330.4931     0.38029E-01 
  62362.7553     0.37026E-01 
  62395.0174     0.36175E-01 
  62427.2796     0.35475E-01 
  62459.5418     0.34930E-01 
  62491.8039     0.34540E-01 
  62524.0661     0.34306E-01 
  62556.3282     0.34230E-01 
  62588.5904     0.34314E-01 
  62620.8526     0.34558E-01 
  62653.1147     0.34964E-01 
  62685.3769     0.35535E-01 
  62717.6390     0.36271E-01 
  62749.9012     0.37174E-01 
  62782.1634     0.38246E-01 
  62814.4255     0.39489E-01 
  62846.6877     0.40904E-01 
  62878.9498     0.42493E-01 
  62911.2120     0.44258E-01 
  62943.4742     0.46201E-01 
  62975.7363     0.48324E-01 
  63007.9985     0.50630E-01 
  63040.2606     0.53119E-01 
  63072.5228     0.55794E-01 
  63104.7850     0.58658E-01 
  63137.0471     0.61712E-01 
  63169.3093     0.64959E-01 
  63201.5714     0.68402E-01 
  63233.8336     0.72042E-01 
  63266.0958     0.75882E-01 
  63298.3579     0.79925E-01 
  63330.6201     0.84173E-01 
  63362.8822     0.88630E-01 
  63395.1444     0.93296E-01 
  63427.4066     0.98176E-01 
  63459.6687     0.10327E+00 
  63491.9309     0.10859E+00 
  63524.1930     0.11413E+00 
  63556.4552     0.11989E+00 
  63588.7174     0.12588E+00 
  63620.9795     0.13210E+00 
  63653.2417     0.13856E+00 
  63685.5038     0.14525E+00 
  63717.7660     0.15219E+00 
  63750.0282     0.15937E+00 
  63782.2903     0.16680E+00 
  63814.5525     0.17448E+00 
  63846.8146     0.18242E+00 
  63879.0768     0.19062E+00 
  63911.3390     0.19908E+00 
  63943.6011     0.20781E+00 
  63975.8633     0.21681E+00 
  64008.1254     0.22608E+00 
  64040.3876     0.23564E+00 
  64072.6498     0.24548E+00 
  64104.9119     0.25561E+00 
  64137.1741     0.26603E+00 
  64169.4362     0.27675E+00 
  64201.6984     0.28777E+00 
  64233.9606     0.29910E+00 
  64266.2227     0.31074E+00 
  64298.4849     0.32270E+00 
  64330.7470     0.33498E+00 
  64363.0092     0.34759E+00 
  64395.2714     0.36053E+00 
  64427.5335     0.37381E+00 
  64459.7957     0.38744E+00 
  64492.0578     0.40141E+00 
  64524.3200     0.41574E+00 
  64556.5822     0.43043E+00 
  64588.8443     0.44549E+00 
  64621.1065     0.46093E+00 
  64653.3686     0.47674E+00 
  64685.6308     0.49294E+00 
  64717.8930     0.50953E+00 
  64750.1551     0.52652E+00 
  64782.4173     0.54392E+00 
  64814.6794     0.56173E+00 
  64846.9416     0.57996E+00 
  64879.2038     0.59862E+00 
  64911.4659     0.61771E+00 
  64943.7281     0.63725E+00 
  64975.9902     0.65723E+00 
  65008.2524     0.67768E+00 
  65040.5146     0.69859E+00 
  65072.7767     0.71997E+00 
  65105.0389     0.74184E+00 
  65137.3010     0.76419E+00 
  65169.5632     0.78705E+00 
  65201.8254     0.81041E+00 
  65234.0875     0.83429E+00 
  65266.3497     0.85870E+00 
  65298.6118     0.88364E+00 
  65330.8740     0.90913E+00 
  65363.1362     0.93517E+00 
  65395.3983     0.96177E+00 
  65427.6605     0.98895E+00 
  65459.9226     0.10167E+01 
  65492.1848     0.10451E+01 
  65524.4470     0.10740E+01 
  65556.7091     0.11036E+01 
  65588.9713     0.11338E+01 
  65621.2334     0.11647E+01 
  65653.4956     0.11961E+01 
  65685.7578     0.12283E+01 
  65718.0199     0.12611E+01 
  65750.2821     0.12946E+01 
  65782.5442     0.13288E+01 
  65814.8064     0.13637E+01 
  65847.0686     0.13994E+01 
  65879.3307     0.14357E+01 
  65911.5929     0.14729E+01 
  65943.8550     0.15107E+01 
  65976.1172     0.15494E+01 
  66008.3794     0.15888E+01 
  66040.6415     0.16290E+01 
  66072.9037     0.16701E+01 
  66105.1658     0.17120E+01 
  66137.4280     0.17547E+01 
  66169.6902     0.17983E+01 
  66201.9523     0.18427E+01 
  66234.2145     0.18881E+01 
  66266.4766     0.19343E+01 
  66298.7388     0.19815E+01 
  66331.0010     0.20296E+01 
  66363.2631     0.20787E+01 
  66395.5253     0.21287E+01 
  66427.7874     0.21798E+01 
  66460.0496     0.22318E+01 
  66492.3118     0.22848E+01 
  66524.5739     0.23389E+01 
  66556.8361     0.23941E+01 
  66589.0982     0.24503E+01 
  66621.3604     0.25076E+01 
  66653.6226     0.25661E+01 
  66685.8847     0.26256E+01 
  66718.1469     0.26864E+01 
  66750.4090     0.27482E+01 
  66782.6712     0.28113E+01 
  66814.9334     0.28756E+01 
  66847.1955     0.29412E+01 
  66879.4577     0.30080E+01 
  66911.7198     0.30760E+01 
  66943.9820     0.31454E+01 
  66976.2442     0.32161E+01 
  67008.5063     0.32881E+01 
  67040.7685     0.33615E+01 
  67073.0306     0.34363E+01 
  67105.2928     0.35125E+01 
  67137.5550     0.35901E+01 
  67169.8171     0.36692E+01 
  67202.0793     0.37498E+01 
  67234.3414     0.38318E+01 
  67266.6036     0.39155E+01 
  67298.8658     0.40006E+01 
  67331.1279     0.40874E+01 
  67363.3901     0.41757E+01 
  67395.6522     0.42657E+01 
  67427.9144     0.43574E+01 
  67460.1766     0.44508E+01 
  67492.4387     0.45458E+01 
  67524.7009     0.46426E+01 
  67556.9630     0.47412E+01 
  67589.2252     0.48416E+01 
  67621.4874     0.49439E+01 
  67653.7495     0.50479E+01 
  67686.0117     0.51539E+01 
  67718.2738     0.52618E+01 
  67750.5360     0.53717E+01 
  67782.7982     0.54835E+01 
  67815.0603     0.55973E+01 
  67847.3225     0.57132E+01 
  67879.5846     0.58312E+01 
  67911.8468     0.59513E+01 
  67944.1090     0.60735E+01 
  67976.3711     0.61979E+01 
  68008.6333     0.63245E+01 
  68040.8954     0.64533E+01 
  68073.1576     0.65844E+01 
  68105.4198     0.67178E+01 
  68137.6819     0.68536E+01 
  68169.9441     0.69917E+01 
  68202.2062     0.71323E+01 
  68234.4684     0.72753E+01 
  68266.7306     0.74208E+01 
  68298.9927     0.75689E+01 
  68331.2549     0.77195E+01 
  68363.5170     0.78727E+01 
  68395.7792     0.80285E+01 
  68428.0414     0.81870E+01 
  68460.3035     0.83482E+01 
  68492.5657     0.85122E+01 
  68524.8278     0.86790E+01 
  68557.0900     0.88486E+01 
  68589.3522     0.90211E+01 
  68621.6143     0.91965E+01 
  68653.8765     0.93749E+01 
  68686.1386     0.95563E+01 
  68718.4008     0.97407E+01 
  68750.6630     0.99282E+01 
  68782.9251     0.10119E+02 
  68815.1873     0.10313E+02 
  68847.4494     0.10510E+02 
  68879.7116     0.10710E+02 
  68911.9738     0.10913E+02 
  68944.2359     0.11120E+02 
  68976.4981     0.11331E+02 
  69008.7602     0.11544E+02 
  69041.0224     0.11762E+02 
  69073.2846     0.11982E+02 
  69105.5467     0.12207E+02 
  69137.8089     0.12435E+02 
  69170.0710     0.12666E+02 
  69202.3332     0.12902E+02 
  69234.5954     0.13141E+02 
  69266.8575     0.13384E+02 
  69299.1197     0.13630E+02 
  69331.3818     0.13881E+02 
  69363.6440     0.14136E+02 
  69395.9062     0.14394E+02 
  69428.1683     0.14657E+02 
  69460.4305     0.14924E+02 
  69492.6926     0.15195E+02 
  69524.9548     0.15470E+02 
  69557.2170     0.15750E+02 
  69589.4791     0.16033E+02 
  69621.7413     0.16322E+02 
  69654.0034     0.16614E+02 
  69686.2656     0.16911E+02 
  69718.5278     0.17213E+02 
  69750.7899     0.17519E+02 
  69783.0521     0.17830E+02 
  69815.3142     0.18145E+02 
  69847.5764     0.18465E+02 
  69879.8386     0.18790E+02 
  69912.1007     0.19120E+02 
  69944.3629     0.19454E+02 
  69976.6250     0.19794E+02 
  70008.8872     0.20139E+02 
  70041.1494     0.20488E+02 
  70073.4115     0.20843E+02 
  70105.6737     0.21203E+02 
  70137.9358     0.21568E+02 
  70170.1980     0.21939E+02 
  70202.4602     0.22315E+02 
  70234.7223     0.22696E+02 
  70266.9845     0.23082E+02 
  70299.2466     0.23474E+02 
  70331.5088     0.23872E+02 
  70363.7710     0.24275E+02 
  70396.0331     0.24684E+02 
  70428.2953     0.25099E+02 
  70460.5574     0.25520E+02 
  70492.8196     0.25946E+02 
  70525.0818     0.26378E+02 
  70557.3439     0.26816E+02 
  70589.6061     0.27260E+02 
  70621.8682     0.27711E+02 
  70654.1304     0.28167E+02 
  70686.3926     0.28630E+02 
  70718.6547     0.29098E+02 
  70750.9169     0.29573E+02 
  70783.1790     0.30055E+02 
  70815.4412     0.30543E+02 
  70847.7034     0.31037E+02 
  70879.9655     0.31538E+02 
  70912.2277     0.32045E+02 
  70944.4898     0.32559E+02 
  70976.7520     0.33080E+02 
  71009.0142     0.33607E+02 
  71041.2763     0.34141E+02 
  71073.5385     0.34683E+02 
  71105.8006     0.35231E+02 
  71138.0628     0.35785E+02 
  71170.3250     0.36347E+02 
  71202.5871     0.36917E+02 
  71234.8493     0.37493E+02 
  71267.1114     0.38076E+02 
  71299.3736     0.38667E+02 
  71331.6358     0.39265E+02 
  71363.8979     0.39870E+02 
  71396.1601     0.40482E+02 
  71428.4222     0.41103E+02 
  71460.6844     0.41730E+02 
  71492.9466     0.42365E+02 
  71525.2087     0.43008E+02 
  71557.4709     0.43659E+02 
  71589.7330     0.44317E+02 
  71621.9952     0.44983E+02 
  71654.2574     0.45656E+02 
  71686.5195     0.46338E+02 
  71718.7817     0.47027E+02 
  71751.0438     0.47725E+02 
  71783.3060     0.48430E+02 
  71815.5682     0.49144E+02 
  71847.8303     0.49865E+02 
  71880.0925     0.50595E+02 
  71912.3546     0.51333E+02 
  71944.6168     0.52079E+02 
  71976.8790     0.52834E+02 
  72009.1411     0.53597E+02 
  72041.4033     0.54368E+02 
  72073.6654     0.55148E+02 
  72105.9276     0.55936E+02 
  72138.1898     0.56732E+02 
  72170.4519     0.57538E+02 
  72202.7141     0.58351E+02 
  72234.9762     0.59174E+02 
  72267.2384     0.60005E+02 
  72299.5006     0.60844E+02 
  72331.7627     0.61693E+02 
  72364.0249     0.62550E+02 
  72396.2870     0.63416E+02 
  72428.5492     0.64291E+02 
  72460.8114     0.65175E+02 
  72493.0735     0.66068E+02 
  72525.3357     0.66970E+02 
  72557.5978     0.67880E+02 
  72589.8600     0.68800E+02 
