  32262.1600     0.37683E+02 
  32294.4222     0.38123E+02 
  32326.6843     0.38566E+02 
  32358.9465     0.39013E+02 
  32391.2086     0.39463E+02 
  32423.4708     0.39917E+02 
  32455.7330     0.40374E+02 
  32487.9951     0.40835E+02 
  32520.2573     0.41299E+02 
  32552.5194     0.41767E+02 
  32584.7816     0.42238E+02 
  32617.0438     0.42712E+02 
  32649.3059     0.43190E+02 
  32681.5681     0.43672E+02 
  32713.8302     0.44157E+02 
  32746.0924     0.44645E+02 
  32778.3546     0.45137E+02 
  32810.6167     0.45633E+02 
  32842.8789     0.46132E+02 
  32875.1410     0.46634E+02 
  32907.4032     0.47140E+02 
  32939.6654     0.47649E+02 
  32971.9275     0.48162E+02 
  33004.1897     0.48678E+02 
  33036.4518     0.49198E+02 
  33068.7140     0.49721E+02 
  33100.9762     0.50248E+02 
  33133.2383     0.50777E+02 
  33165.5005     0.51311E+02 
  33197.7626     0.51848E+02 
  33230.0248     0.52388E+02 
  33262.2870     0.52932E+02 
  33294.5491     0.53479E+02 
  33326.8113     0.54029E+02 
  33359.0734     0.54583E+02 
  33391.3356     0.55140E+02 
  33423.5978     0.55700E+02 
  33455.8599     0.56264E+02 
  33488.1221     0.56832E+02 
  33520.3842     0.57402E+02 
  33552.6464     0.57976E+02 
  33584.9086     0.58553E+02 
  33617.1707     0.59134E+02 
  33649.4329     0.59717E+02 
  33681.6950     0.60304E+02 
  33713.9572     0.60895E+02 
  33746.2194     0.61488E+02 
  33778.4815     0.62085E+02 
  33810.7437     0.62685E+02 
  33843.0058     0.63288E+02 
  33875.2680     0.63894E+02 
  33907.5302     0.64504E+02 
  33939.7923     0.65116E+02 
  33972.0545     0.65732E+02 
  34004.3166     0.66351E+02 
  34036.5788     0.66973E+02 
  34068.8410     0.67598E+02 
  34101.1031     0.68226E+02 
  34133.3653     0.68857E+02 
  34165.6274     0.69491E+02 
  34197.8896     0.70128E+02 
  34230.1518     0.70768E+02 
  34262.4139     0.71411E+02 
  34294.6761     0.72057E+02 
  34326.9382     0.72706E+02 
  34359.2004     0.73357E+02 
  34391.4626     0.74012E+02 
  34423.7247     0.74669E+02 
  34455.9869     0.75330E+02 
  34488.2490     0.75993E+02 
  34520.5112     0.76658E+02 
  34552.7734     0.77327E+02 
  34585.0355     0.77998E+02 
  34617.2977     0.78672E+02 
  34649.5598     0.79349E+02 
  34681.8220     0.80028E+02 
  34714.0842     0.80710E+02 
  34746.3463     0.81394E+02 
  34778.6085     0.82081E+02 
  34810.8706     0.82770E+02 
  34843.1328     0.83462E+02 
  34875.3950     0.84157E+02 
  34907.6571     0.84853E+02 
  34939.9193     0.85553E+02 
  34972.1814     0.86254E+02 
  35004.4436     0.86958E+02 
  35036.7058     0.87664E+02 
  35068.9679     0.88373E+02 
  35101.2301     0.89083E+02 
  35133.4922     0.89796E+02 
  35165.7544     0.90511E+02 
  35198.0166     0.91228E+02 
  35230.2787     0.91948E+02 
  35262.5409     0.92669E+02 
  35294.8030     0.93392E+02 
  35327.0652     0.94118E+02 
  35359.3274     0.94845E+02 
  35391.5895     0.95574E+02 
  35423.8517     0.96305E+02 
  35456.1138     0.97038E+02 
  35488.3760     0.97773E+02 
  35520.6382     0.98510E+02 
  35552.9003     0.99248E+02 
  35585.1625     0.99988E+02 
  35617.4246     0.10073E+03 
  35649.6868     0.10147E+03 
  35681.9490     0.10222E+03 
  35714.2111     0.10296E+03 
  35746.4733     0.10371E+03 
  35778.7354     0.10446E+03 
  35810.9976     0.10521E+03 
  35843.2598     0.10596E+03 
  35875.5219     0.10672E+03 
  35907.7841     0.10747E+03 
  35940.0462     0.10823E+03 
  35972.3084     0.10899E+03 
  36004.5706     0.10974E+03 
  36036.8327     0.11050E+03 
  36069.0949     0.11126E+03 
  36101.3570     0.11202E+03 
  36133.6192     0.11279E+03 
  36165.8814     0.11355E+03 
  36198.1435     0.11432E+03 
  36230.4057     0.11508E+03 
  36262.6678     0.11585E+03 
  36294.9300     0.11661E+03 
  36327.1922     0.11738E+03 
  36359.4543     0.11815E+03 
  36391.7165     0.11892E+03 
  36423.9786     0.11969E+03 
  36456.2408     0.12046E+03 
  36488.5030     0.12123E+03 
  36520.7651     0.12200E+03 
  36553.0273     0.12277E+03 
  36585.2894     0.12354E+03 
  36617.5516     0.12431E+03 
  36649.8138     0.12508E+03 
  36682.0759     0.12586E+03 
  36714.3381     0.12663E+03 
  36746.6002     0.12740E+03 
  36778.8624     0.12817E+03 
  36811.1246     0.12894E+03 
  36843.3867     0.12972E+03 
  36875.6489     0.13049E+03 
  36907.9110     0.13126E+03 
  36940.1732     0.13203E+03 
  36972.4354     0.13280E+03 
  37004.6975     0.13357E+03 
  37036.9597     0.13435E+03 
  37069.2218     0.13512E+03 
  37101.4840     0.13589E+03 
  37133.7462     0.13666E+03 
  37166.0083     0.13742E+03 
  37198.2705     0.13819E+03 
  37230.5326     0.13896E+03 
  37262.7948     0.13973E+03 
  37295.0570     0.14049E+03 
  37327.3191     0.14126E+03 
  37359.5813     0.14202E+03 
  37391.8434     0.14279E+03 
  37424.1056     0.14355E+03 
  37456.3678     0.14431E+03 
  37488.6299     0.14507E+03 
  37520.8921     0.14583E+03 
  37553.1542     0.14659E+03 
  37585.4164     0.14734E+03 
  37617.6786     0.14810E+03 
  37649.9407     0.14885E+03 
  37682.2029     0.14961E+03 
  37714.4650     0.15036E+03 
  37746.7272     0.15111E+03 
  37778.9894     0.15186E+03 
  37811.2515     0.15260E+03 
  37843.5137     0.15335E+03 
  37875.7758     0.15409E+03 
  37908.0380     0.15483E+03 
  37940.3002     0.15557E+03 
  37972.5623     0.15631E+03 
  38004.8245     0.15704E+03 
  38037.0866     0.15778E+03 
  38069.3488     0.15851E+03 
  38101.6110     0.15924E+03 
  38133.8731     0.15997E+03 
  38166.1353     0.16069E+03 
  38198.3974     0.16142E+03 
  38230.6596     0.16214E+03 
  38262.9218     0.16286E+03 
  38295.1839     0.16357E+03 
  38327.4461     0.16429E+03 
  38359.7082     0.16500E+03 
  38391.9704     0.16571E+03 
  38424.2326     0.16641E+03 
  38456.4947     0.16712E+03 
  38488.7569     0.16782E+03 
  38521.0190     0.16852E+03 
  38553.2812     0.16921E+03 
  38585.5434     0.16990E+03 
  38617.8055     0.17059E+03 
  38650.0677     0.17128E+03 
  38682.3298     0.17196E+03 
  38714.5920     0.17265E+03 
  38746.8542     0.17332E+03 
  38779.1163     0.17400E+03 
  38811.3785     0.17467E+03 
  38843.6406     0.17534E+03 
  38875.9028     0.17600E+03 
  38908.1650     0.17666E+03 
  38940.4271     0.17732E+03 
  38972.6893     0.17798E+03 
  39004.9514     0.17863E+03 
  39037.2136     0.17928E+03 
  39069.4758     0.17992E+03 
  39101.7379     0.18056E+03 
  39134.0001     0.18120E+03 
  39166.2622     0.18183E+03 
  39198.5244     0.18246E+03 
  39230.7866     0.18309E+03 
  39263.0487     0.18371E+03 
  39295.3109     0.18433E+03 
  39327.5730     0.18494E+03 
  39359.8352     0.18555E+03 
  39392.0974     0.18616E+03 
  39424.3595     0.18676E+03 
  39456.6217     0.18736E+03 
  39488.8838     0.18795E+03 
  39521.1460     0.18854E+03 
  39553.4082     0.18913E+03 
  39585.6703     0.18971E+03 
  39617.9325     0.19029E+03 
  39650.1946     0.19086E+03 
  39682.4568     0.19143E+03 
  39714.7190     0.19199E+03 
  39746.9811     0.19255E+03 
  39779.2433     0.19311E+03 
  39811.5054     0.19366E+03 
  39843.7676     0.19421E+03 
  39876.0298     0.19475E+03 
  39908.2919     0.19528E+03 
  39940.5541     0.19582E+03 
  39972.8162     0.19634E+03 
  40005.0784     0.19687E+03 
  40037.3406     0.19738E+03 
  40069.6027     0.19790E+03 
  40101.8649     0.19840E+03 
  40134.1270     0.19891E+03 
  40166.3892     0.19941E+03 
  40198.6514     0.19990E+03 
  40230.9135     0.20039E+03 
  40263.1757     0.20087E+03 
  40295.4378     0.20135E+03 
  40327.7000     0.20182E+03 
  40359.9622     0.20229E+03 
  40392.2243     0.20275E+03 
  40424.4865     0.20321E+03 
  40456.7486     0.20367E+03 
  40489.0108     0.20411E+03 
  40521.2730     0.20455E+03 
  40553.5351     0.20499E+03 
  40585.7973     0.20542E+03 
  40618.0594     0.20585E+03 
  40650.3216     0.20627E+03 
  40682.5838     0.20669E+03 
  40714.8459     0.20710E+03 
  40747.1081     0.20750E+03 
  40779.3702     0.20790E+03 
  40811.6324     0.20829E+03 
  40843.8946     0.20868E+03 
  40876.1567     0.20906E+03 
  40908.4189     0.20944E+03 
  40940.6810     0.20981E+03 
  40972.9432     0.21018E+03 
  41005.2054     0.21054E+03 
  41037.4675     0.21089E+03 
  41069.7297     0.21124E+03 
  41101.9918     0.21158E+03 
  41134.2540     0.21192E+03 
  41166.5162     0.21225E+03 
  41198.7783     0.21258E+03 
  41231.0405     0.21290E+03 
  41263.3026     0.21321E+03 
  41295.5648     0.21352E+03 
  41327.8270     0.21382E+03 
  41360.0891     0.21412E+03 
  41392.3513     0.21441E+03 
  41424.6134     0.21469E+03 
  41456.8756     0.21497E+03 
  41489.1378     0.21524E+03 
  41521.3999     0.21551E+03 
  41553.6621     0.21577E+03 
  41585.9242     0.21603E+03 
  41618.1864     0.21628E+03 
  41650.4486     0.21652E+03 
  41682.7107     0.21676E+03 
  41714.9729     0.21699E+03 
  41747.2350     0.21721E+03 
  41779.4972     0.21743E+03 
  41811.7594     0.21765E+03 
  41844.0215     0.21785E+03 
  41876.2837     0.21805E+03 
  41908.5458     0.21825E+03 
  41940.8080     0.21844E+03 
  41973.0702     0.21862E+03 
  42005.3323     0.21880E+03 
  42037.5945     0.21897E+03 
  42069.8566     0.21913E+03 
  42102.1188     0.21929E+03 
  42134.3810     0.21944E+03 
  42166.6431     0.21959E+03 
  42198.9053     0.21973E+03 
  42231.1674     0.21987E+03 
  42263.4296     0.21999E+03 
  42295.6918     0.22012E+03 
  42327.9539     0.22023E+03 
  42360.2161     0.22034E+03 
  42392.4782     0.22045E+03 
  42424.7404     0.22054E+03 
  42457.0026     0.22064E+03 
  42489.2647     0.22072E+03 
  42521.5269     0.22080E+03 
  42553.7890     0.22087E+03 
  42586.0512     0.22094E+03 
  42618.3134     0.22100E+03 
  42650.5755     0.22106E+03 
  42682.8377     0.22111E+03 
  42715.0998     0.22115E+03 
  42747.3620     0.22119E+03 
  42779.6242     0.22122E+03 
  42811.8863     0.22124E+03 
  42844.1485     0.22126E+03 
  42876.4106     0.22127E+03 
  42908.6728     0.22128E+03 
  42940.9350     0.22128E+03 
  42973.1971     0.22128E+03 
  43005.4593     0.22127E+03 
  43037.7214     0.22125E+03 
  43069.9836     0.22122E+03 
  43102.2458     0.22120E+03 
  43134.5079     0.22116E+03 
  43166.7701     0.22112E+03 
  43199.0322     0.22107E+03 
  43231.2944     0.22102E+03 
  43263.5566     0.22096E+03 
  43295.8187     0.22090E+03 
  43328.0809     0.22083E+03 
  43360.3430     0.22075E+03 
  43392.6052     0.22067E+03 
  43424.8674     0.22058E+03 
  43457.1295     0.22049E+03 
  43489.3917     0.22039E+03 
  43521.6538     0.22028E+03 
  43553.9160     0.22017E+03 
  43586.1782     0.22005E+03 
  43618.4403     0.21993E+03 
  43650.7025     0.21980E+03 
  43682.9646     0.21967E+03 
  43715.2268     0.21953E+03 
  43747.4890     0.21938E+03 
  43779.7511     0.21923E+03 
  43812.0133     0.21907E+03 
  43844.2754     0.21891E+03 
  43876.5376     0.21875E+03 
  43908.7998     0.21857E+03 
  43941.0619     0.21839E+03 
  43973.3241     0.21821E+03 
  44005.5862     0.21802E+03 
  44037.8484     0.21782E+03 
  44070.1106     0.21762E+03 
  44102.3727     0.21742E+03 
  44134.6349     0.21721E+03 
  44166.8970     0.21699E+03 
  44199.1592     0.21677E+03 
  44231.4214     0.21654E+03 
  44263.6835     0.21631E+03 
  44295.9457     0.21607E+03 
  44328.2078     0.21583E+03 
  44360.4700     0.21558E+03 
  44392.7322     0.21532E+03 
  44424.9943     0.21507E+03 
  44457.2565     0.21480E+03 
  44489.5186     0.21453E+03 
  44521.7808     0.21426E+03 
  44554.0430     0.21398E+03 
  44586.3051     0.21370E+03 
  44618.5673     0.21341E+03 
  44650.8294     0.21311E+03 
  44683.0916     0.21281E+03 
  44715.3538     0.21251E+03 
  44747.6159     0.21220E+03 
  44779.8781     0.21189E+03 
  44812.1402     0.21157E+03 
  44844.4024     0.21125E+03 
  44876.6646     0.21092E+03 
  44908.9267     0.21059E+03 
  44941.1889     0.21025E+03 
  44973.4510     0.20991E+03 
  45005.7132     0.20956E+03 
  45037.9754     0.20921E+03 
  45070.2375     0.20885E+03 
  45102.4997     0.20849E+03 
  45134.7618     0.20813E+03 
  45167.0240     0.20776E+03 
  45199.2862     0.20739E+03 
  45231.5483     0.20701E+03 
  45263.8105     0.20663E+03 
  45296.0726     0.20624E+03 
  45328.3348     0.20585E+03 
  45360.5970     0.20546E+03 
  45392.8591     0.20506E+03 
  45425.1213     0.20465E+03 
  45457.3834     0.20424E+03 
  45489.6456     0.20383E+03 
  45521.9078     0.20342E+03 
  45554.1699     0.20300E+03 
  45586.4321     0.20257E+03 
  45618.6942     0.20215E+03 
  45650.9564     0.20171E+03 
  45683.2186     0.20128E+03 
  45715.4807     0.20084E+03 
  45747.7429     0.20040E+03 
  45780.0050     0.19995E+03 
  45812.2672     0.19950E+03 
  45844.5294     0.19904E+03 
  45876.7915     0.19859E+03 
  45909.0537     0.19812E+03 
  45941.3158     0.19766E+03 
  45973.5780     0.19719E+03 
  46005.8402     0.19672E+03 
  46038.1023     0.19624E+03 
  46070.3645     0.19576E+03 
  46102.6266     0.19528E+03 
  46134.8888     0.19479E+03 
  46167.1510     0.19430E+03 
  46199.4131     0.19381E+03 
  46231.6753     0.19331E+03 
  46263.9374     0.19281E+03 
  46296.1996     0.19231E+03 
  46328.4618     0.19180E+03 
  46360.7239     0.19129E+03 
  46392.9861     0.19078E+03 
  46425.2482     0.19027E+03 
  46457.5104     0.18975E+03 
  46489.7726     0.18923E+03 
  46522.0347     0.18870E+03 
  46554.2969     0.18818E+03 
  46586.5590     0.18765E+03 
  46618.8212     0.18711E+03 
  46651.0834     0.18658E+03 
  46683.3455     0.18604E+03 
  46715.6077     0.18550E+03 
  46747.8698     0.18496E+03 
  46780.1320     0.18441E+03 
  46812.3942     0.18386E+03 
  46844.6563     0.18331E+03 
  46876.9185     0.18276E+03 
  46909.1806     0.18220E+03 
  46941.4428     0.18164E+03 
  46973.7050     0.18108E+03 
  47005.9671     0.18052E+03 
  47038.2293     0.17995E+03 
  47070.4914     0.17938E+03 
  47102.7536     0.17881E+03 
  47135.0158     0.17824E+03 
  47167.2779     0.17766E+03 
  47199.5401     0.17709E+03 
  47231.8022     0.17651E+03 
  47264.0644     0.17593E+03 
  47296.3266     0.17534E+03 
  47328.5887     0.17476E+03 
  47360.8509     0.17417E+03 
  47393.1130     0.17358E+03 
  47425.3752     0.17299E+03 
  47457.6374     0.17240E+03 
  47489.8995     0.17180E+03 
  47522.1617     0.17121E+03 
  47554.4238     0.17061E+03 
  47586.6860     0.17001E+03 
  47618.9482     0.16941E+03 
  47651.2103     0.16880E+03 
  47683.4725     0.16820E+03 
  47715.7346     0.16759E+03 
  47747.9968     0.16698E+03 
  47780.2590     0.16637E+03 
  47812.5211     0.16576E+03 
  47844.7833     0.16515E+03 
  47877.0454     0.16454E+03 
  47909.3076     0.16392E+03 
  47941.5698     0.16331E+03 
  47973.8319     0.16269E+03 
  48006.0941     0.16207E+03 
  48038.3562     0.16145E+03 
  48070.6184     0.16083E+03 
  48102.8806     0.16021E+03 
  48135.1427     0.15958E+03 
  48167.4049     0.15896E+03 
  48199.6670     0.15834E+03 
  48231.9292     0.15771E+03 
  48264.1914     0.15708E+03 
  48296.4535     0.15645E+03 
  48328.7157     0.15582E+03 
  48360.9778     0.15519E+03 
  48393.2400     0.15456E+03 
  48425.5022     0.15393E+03 
  48457.7643     0.15330E+03 
  48490.0265     0.15267E+03 
  48522.2886     0.15203E+03 
  48554.5508     0.15140E+03 
  48586.8130     0.15076E+03 
  48619.0751     0.15013E+03 
  48651.3373     0.14949E+03 
  48683.5994     0.14886E+03 
  48715.8616     0.14822E+03 
  48748.1238     0.14758E+03 
  48780.3859     0.14694E+03 
  48812.6481     0.14631E+03 
  48844.9102     0.14567E+03 
  48877.1724     0.14503E+03 
  48909.4346     0.14439E+03 
  48941.6967     0.14375E+03 
  48973.9589     0.14311E+03 
  49006.2210     0.14247E+03 
  49038.4832     0.14183E+03 
  49070.7454     0.14119E+03 
  49103.0075     0.14055E+03 
  49135.2697     0.13991E+03 
  49167.5318     0.13927E+03 
  49199.7940     0.13863E+03 
  49232.0562     0.13798E+03 
  49264.3183     0.13734E+03 
  49296.5805     0.13670E+03 
  49328.8426     0.13606E+03 
  49361.1048     0.13542E+03 
  49393.3670     0.13478E+03 
  49425.6291     0.13414E+03 
  49457.8913     0.13350E+03 
  49490.1534     0.13286E+03 
  49522.4156     0.13222E+03 
  49554.6778     0.13158E+03 
  49586.9399     0.13094E+03 
  49619.2021     0.13031E+03 
  49651.4642     0.12967E+03 
  49683.7264     0.12903E+03 
  49715.9886     0.12839E+03 
  49748.2507     0.12776E+03 
  49780.5129     0.12712E+03 
  49812.7750     0.12648E+03 
  49845.0372     0.12585E+03 
  49877.2994     0.12521E+03 
  49909.5615     0.12458E+03 
  49941.8237     0.12394E+03 
  49974.0858     0.12331E+03 
  50006.3480     0.12268E+03 
  50038.6102     0.12205E+03 
  50070.8723     0.12142E+03 
  50103.1345     0.12079E+03 
  50135.3966     0.12016E+03 
  50167.6588     0.11953E+03 
  50199.9210     0.11890E+03 
  50232.1831     0.11827E+03 
  50264.4453     0.11764E+03 
  50296.7074     0.11702E+03 
  50328.9696     0.11639E+03 
  50361.2318     0.11577E+03 
  50393.4939     0.11515E+03 
  50425.7561     0.11452E+03 
  50458.0182     0.11390E+03 
  50490.2804     0.11328E+03 
  50522.5426     0.11266E+03 
  50554.8047     0.11204E+03 
  50587.0669     0.11143E+03 
  50619.3290     0.11081E+03 
  50651.5912     0.11020E+03 
  50683.8534     0.10958E+03 
  50716.1155     0.10897E+03 
  50748.3777     0.10836E+03 
  50780.6398     0.10775E+03 
  50812.9020     0.10714E+03 
  50845.1642     0.10653E+03 
  50877.4263     0.10592E+03 
  50909.6885     0.10531E+03 
  50941.9506     0.10471E+03 
  50974.2128     0.10411E+03 
  51006.4750     0.10350E+03 
  51038.7371     0.10290E+03 
  51070.9993     0.10230E+03 
  51103.2614     0.10171E+03 
  51135.5236     0.10111E+03 
  51167.7858     0.10051E+03 
  51200.0479     0.99918E+02 
  51232.3101     0.99325E+02 
  51264.5722     0.98734E+02 
  51296.8344     0.98144E+02 
  51329.0966     0.97555E+02 
  51361.3587     0.96968E+02 
  51393.6209     0.96382E+02 
  51425.8830     0.95798E+02 
  51458.1452     0.95215E+02 
  51490.4074     0.94634E+02 
  51522.6695     0.94054E+02 
  51554.9317     0.93476E+02 
  51587.1938     0.92900E+02 
  51619.4560     0.92324E+02 
  51651.7182     0.91751E+02 
  51683.9803     0.91179E+02 
  51716.2425     0.90609E+02 
  51748.5046     0.90040E+02 
  51780.7668     0.89473E+02 
  51813.0290     0.88907E+02 
  51845.2911     0.88343E+02 
  51877.5533     0.87781E+02 
  51909.8154     0.87221E+02 
  51942.0776     0.86662E+02 
  51974.3398     0.86105E+02 
  52006.6019     0.85549E+02 
  52038.8641     0.84996E+02 
  52071.1262     0.84443E+02 
  52103.3884     0.83893E+02 
  52135.6506     0.83345E+02 
  52167.9127     0.82798E+02 
  52200.1749     0.82253E+02 
  52232.4370     0.81710E+02 
  52264.6992     0.81168E+02 
  52296.9614     0.80628E+02 
  52329.2235     0.80090E+02 
  52361.4857     0.79554E+02 
  52393.7478     0.79020E+02 
  52426.0100     0.78488E+02 
  52458.2722     0.77957E+02 
  52490.5343     0.77428E+02 
  52522.7965     0.76901E+02 
  52555.0586     0.76376E+02 
  52587.3208     0.75853E+02 
  52619.5830     0.75332E+02 
  52651.8451     0.74812E+02 
  52684.1073     0.74294E+02 
  52716.3694     0.73779E+02 
  52748.6316     0.73265E+02 
  52780.8938     0.72753E+02 
  52813.1559     0.72243E+02 
  52845.4181     0.71735E+02 
  52877.6802     0.71229E+02 
  52909.9424     0.70725E+02 
  52942.2046     0.70222E+02 
  52974.4667     0.69722E+02 
  53006.7289     0.69223E+02 
  53038.9910     0.68727E+02 
  53071.2532     0.68232E+02 
  53103.5154     0.67740E+02 
  53135.7775     0.67249E+02 
  53168.0397     0.66760E+02 
  53200.3018     0.66274E+02 
  53232.5640     0.65789E+02 
  53264.8262     0.65306E+02 
  53297.0883     0.64826E+02 
  53329.3505     0.64347E+02 
  53361.6126     0.63870E+02 
  53393.8748     0.63395E+02 
  53426.1370     0.62922E+02 
  53458.3991     0.62452E+02 
  53490.6613     0.61983E+02 
  53522.9234     0.61516E+02 
  53555.1856     0.61051E+02 
  53587.4478     0.60588E+02 
  53619.7099     0.60128E+02 
  53651.9721     0.59669E+02 
  53684.2342     0.59212E+02 
  53716.4964     0.58757E+02 
  53748.7586     0.58305E+02 
  53781.0207     0.57854E+02 
  53813.2829     0.57405E+02 
  53845.5450     0.56959E+02 
  53877.8072     0.56514E+02 
  53910.0694     0.56071E+02 
  53942.3315     0.55631E+02 
  53974.5937     0.55192E+02 
  54006.8558     0.54756E+02 
  54039.1180     0.54321E+02 
  54071.3802     0.53889E+02 
  54103.6423     0.53458E+02 
  54135.9045     0.53030E+02 
  54168.1666     0.52603E+02 
  54200.4288     0.52179E+02 
  54232.6910     0.51757E+02 
  54264.9531     0.51336E+02 
  54297.2153     0.50918E+02 
  54329.4774     0.50502E+02 
  54361.7396     0.50088E+02 
  54394.0018     0.49675E+02 
  54426.2639     0.49265E+02 
  54458.5261     0.48857E+02 
  54490.7882     0.48451E+02 
  54523.0504     0.48047E+02 
  54555.3126     0.47645E+02 
  54587.5747     0.47245E+02 
  54619.8369     0.46847E+02 
  54652.0990     0.46451E+02 
  54684.3612     0.46057E+02 
  54716.6234     0.45665E+02 
  54748.8855     0.45275E+02 
  54781.1477     0.44886E+02 
  54813.4098     0.44500E+02 
  54845.6720     0.44117E+02 
  54877.9342     0.43735E+02 
  54910.1963     0.43355E+02 
  54942.4585     0.42977E+02 
  54974.7206     0.42601E+02 
  55006.9828     0.42227E+02 
  55039.2450     0.41854E+02 
  55071.5071     0.41484E+02 
  55103.7693     0.41116E+02 
  55136.0314     0.40750E+02 
  55168.2936     0.40386E+02 
  55200.5558     0.40024E+02 
  55232.8179     0.39664E+02 
  55265.0801     0.39306E+02 
  55297.3422     0.38950E+02 
  55329.6044     0.38595E+02 
  55361.8666     0.38243E+02 
  55394.1287     0.37893E+02 
  55426.3909     0.37544E+02 
  55458.6530     0.37198E+02 
  55490.9152     0.36853E+02 
  55523.1774     0.36511E+02 
  55555.4395     0.36170E+02 
  55587.7017     0.35832E+02 
  55619.9638     0.35495E+02 
  55652.2260     0.35160E+02 
  55684.4882     0.34827E+02 
  55716.7503     0.34496E+02 
  55749.0125     0.34167E+02 
  55781.2746     0.33840E+02 
  55813.5368     0.33515E+02 
  55845.7990     0.33191E+02 
  55878.0611     0.32870E+02 
  55910.3233     0.32550E+02 
  55942.5854     0.32232E+02 
  55974.8476     0.31917E+02 
  56007.1098     0.31603E+02 
  56039.3719     0.31291E+02 
  56071.6341     0.30980E+02 
  56103.8962     0.30672E+02 
  56136.1584     0.30366E+02 
  56168.4206     0.30061E+02 
  56200.6827     0.29758E+02 
  56232.9449     0.29457E+02 
  56265.2070     0.29158E+02 
  56297.4692     0.28861E+02 
  56329.7314     0.28566E+02 
  56361.9935     0.28272E+02 
  56394.2557     0.27980E+02 
  56426.5178     0.27690E+02 
  56458.7800     0.27402E+02 
  56491.0422     0.27116E+02 
  56523.3043     0.26831E+02 
  56555.5665     0.26548E+02 
  56587.8286     0.26267E+02 
  56620.0908     0.25988E+02 
  56652.3530     0.25711E+02 
  56684.6151     0.25435E+02 
  56716.8773     0.25161E+02 
  56749.1394     0.24889E+02 
  56781.4016     0.24619E+02 
  56813.6638     0.24350E+02 
  56845.9259     0.24083E+02 
  56878.1881     0.23818E+02 
  56910.4502     0.23555E+02 
  56942.7124     0.23293E+02 
  56974.9746     0.23033E+02 
  57007.2367     0.22775E+02 
  57039.4989     0.22519E+02 
  57071.7610     0.22264E+02 
  57104.0232     0.22011E+02 
  57136.2854     0.21760E+02 
  57168.5475     0.21510E+02 
  57200.8097     0.21262E+02 
  57233.0718     0.21016E+02 
  57265.3340     0.20771E+02 
  57297.5962     0.20528E+02 
  57329.8583     0.20287E+02 
  57362.1205     0.20047E+02 
  57394.3826     0.19809E+02 
  57426.6448     0.19573E+02 
  57458.9070     0.19338E+02 
  57491.1691     0.19105E+02 
  57523.4313     0.18874E+02 
  57555.6934     0.18644E+02 
  57587.9556     0.18416E+02 
  57620.2178     0.18189E+02 
  57652.4799     0.17964E+02 
  57684.7421     0.17741E+02 
  57717.0042     0.17519E+02 
  57749.2664     0.17299E+02 
  57781.5286     0.17081E+02 
  57813.7907     0.16864E+02 
  57846.0529     0.16649E+02 
  57878.3150     0.16435E+02 
  57910.5772     0.16223E+02 
  57942.8394     0.16012E+02 
  57975.1015     0.15803E+02 
  58007.3637     0.15595E+02 
  58039.6258     0.15389E+02 
  58071.8880     0.15185E+02 
  58104.1502     0.14982E+02 
  58136.4123     0.14781E+02 
  58168.6745     0.14581E+02 
  58200.9366     0.14383E+02 
  58233.1988     0.14186E+02 
  58265.4610     0.13991E+02 
  58297.7231     0.13797E+02 
  58329.9853     0.13605E+02 
  58362.2474     0.13414E+02 
  58394.5096     0.13225E+02 
  58426.7718     0.13037E+02 
  58459.0339     0.12851E+02 
  58491.2961     0.12666E+02 
  58523.5582     0.12483E+02 
  58555.8204     0.12301E+02 
  58588.0826     0.12120E+02 
  58620.3447     0.11942E+02 
  58652.6069     0.11764E+02 
  58684.8690     0.11588E+02 
  58717.1312     0.11414E+02 
  58749.3934     0.11241E+02 
  58781.6555     0.11069E+02 
  58813.9177     0.10899E+02 
  58846.1798     0.10730E+02 
  58878.4420     0.10563E+02 
  58910.7042     0.10397E+02 
  58942.9663     0.10233E+02 
  58975.2285     0.10070E+02 
  59007.4906     0.99079E+01 
  59039.7528     0.97477E+01 
  59072.0150     0.95890E+01 
  59104.2771     0.94316E+01 
  59136.5393     0.92757E+01 
  59168.8014     0.91211E+01 
  59201.0636     0.89680E+01 
  59233.3258     0.88162E+01 
  59265.5879     0.86658E+01 
  59297.8501     0.85169E+01 
  59330.1122     0.83693E+01 
  59362.3744     0.82231E+01 
  59394.6366     0.80783E+01 
  59426.8987     0.79348E+01 
  59459.1609     0.77928E+01 
  59491.4230     0.76521E+01 
  59523.6852     0.75128E+01 
  59555.9474     0.73748E+01 
  59588.2095     0.72383E+01 
  59620.4717     0.71031E+01 
  59652.7338     0.69692E+01 
  59684.9960     0.68367E+01 
  59717.2582     0.67056E+01 
  59749.5203     0.65759E+01 
  59781.7825     0.64475E+01 
  59814.0446     0.63204E+01 
  59846.3068     0.61947E+01 
  59878.5690     0.60704E+01 
  59910.8311     0.59474E+01 
  59943.0933     0.58258E+01 
  59975.3554     0.57055E+01 
  60007.6176     0.55866E+01 
  60039.8798     0.54691E+01 
  60072.1419     0.53529E+01 
  60104.4041     0.52380E+01 
  60136.6662     0.51245E+01 
  60168.9284     0.50123E+01 
  60201.1906     0.49015E+01 
  60233.4527     0.47921E+01 
  60265.7149     0.46840E+01 
  60297.9770     0.45772E+01 
  60330.2392     0.44718E+01 
  60362.5014     0.43678E+01 
  60394.7635     0.42651E+01 
  60427.0257     0.41637E+01 
  60459.2878     0.40638E+01 
  60491.5500     0.39652E+01 
  60523.8122     0.38679E+01 
  60556.0743     0.37720E+01 
  60588.3365     0.36775E+01 
  60620.5986     0.35844E+01 
  60652.8608     0.34926E+01 
  60685.1230     0.34022E+01 
  60717.3851     0.33132E+01 
  60749.6473     0.32256E+01 
  60781.9094     0.31393E+01 
  60814.1716     0.30544E+01 
  60846.4338     0.29709E+01 
  60878.6959     0.28889E+01 
  60910.9581     0.28082E+01 
  60943.2202     0.27289E+01 
  60975.4824     0.26510E+01 
  61007.7446     0.25745E+01 
  61040.0067     0.24995E+01 
  61072.2689     0.24259E+01 
  61104.5310     0.23537E+01 
  61136.7932     0.22829E+01 
  61169.0554     0.22136E+01 
  61201.3175     0.21457E+01 
  61233.5797     0.20793E+01 
  61265.8418     0.20143E+01 
  61298.1040     0.19508E+01 
  61330.3662     0.18888E+01 
  61362.6283     0.18282E+01 
  61394.8905     0.17692E+01 
  61427.1526     0.17116E+01 
  61459.4148     0.16555E+01 
  61491.6770     0.16010E+01 
  61523.9391     0.15480E+01 
  61556.2013     0.14965E+01 
  61588.4634     0.14465E+01 
  61620.7256     0.13981E+01 
  61652.9878     0.13512E+01 
  61685.2499     0.13060E+01 
  61717.5121     0.12623E+01 
  61749.7742     0.12201E+01 
  61782.0364     0.11796E+01 
  61814.2986     0.11407E+01 
  61846.5607     0.11035E+01 
  61878.8229     0.10678E+01 
  61911.0850     0.10338E+01 
  61943.3472     0.10015E+01 
  61975.6094     0.97088E+00 
  62007.8715     0.94193E+00 
  62040.1337     0.91468E+00 
  62072.3958     0.88916E+00 
  62104.6580     0.86536E+00 
  62136.9202     0.84331E+00 
  62169.1823     0.82303E+00 
  62201.4445     0.80453E+00 
  62233.7066     0.78782E+00 
  62265.9688     0.77293E+00 
  62298.2310     0.75987E+00 
  62330.4931     0.74866E+00 
  62362.7553     0.73931E+00 
  62395.0174     0.73185E+00 
  62427.2796     0.72629E+00 
  62459.5418     0.72265E+00 
  62491.8039     0.72096E+00 
  62524.0661     0.72123E+00 
  62556.3282     0.72349E+00 
  62588.5904     0.72775E+00 
  62620.8526     0.73404E+00 
  62653.1147     0.74238E+00 
  62685.3769     0.75279E+00 
  62717.6390     0.76529E+00 
  62749.9012     0.77992E+00 
  62782.1634     0.79669E+00 
  62814.4255     0.81563E+00 
  62846.6877     0.83676E+00 
  62878.9498     0.86011E+00 
  62911.2120     0.88571E+00 
  62943.4742     0.91359E+00 
  62975.7363     0.94376E+00 
  63007.9985     0.97627E+00 
  63040.2606     0.10111E+01 
  63072.5228     0.10484E+01 
  63104.7850     0.10880E+01 
  63137.0471     0.11302E+01 
  63169.3093     0.11748E+01 
  63201.5714     0.12219E+01 
  63233.8336     0.12715E+01 
  63266.0958     0.13238E+01 
  63298.3579     0.13786E+01 
  63330.6201     0.14361E+01 
  63362.8822     0.14963E+01 
  63395.1444     0.15592E+01 
  63427.4066     0.16248E+01 
  63459.6687     0.16932E+01 
  63491.9309     0.17645E+01 
  63524.1930     0.18386E+01 
  63556.4552     0.19157E+01 
  63588.7174     0.19957E+01 
  63620.9795     0.20787E+01 
  63653.2417     0.21647E+01 
  63685.5038     0.22538E+01 
  63717.7660     0.23460E+01 
  63750.0282     0.24413E+01 
  63782.2903     0.25399E+01 
  63814.5525     0.26417E+01 
  63846.8146     0.27469E+01 
  63879.0768     0.28554E+01 
  63911.3390     0.29672E+01 
  63943.6011     0.30825E+01 
  63975.8633     0.32014E+01 
  64008.1254     0.33237E+01 
  64040.3876     0.34497E+01 
  64072.6498     0.35793E+01 
  64104.9119     0.37126E+01 
  64137.1741     0.38497E+01 
  64169.4362     0.39906E+01 
  64201.6984     0.41353E+01 
  64233.9606     0.42840E+01 
  64266.2227     0.44367E+01 
  64298.4849     0.45934E+01 
  64330.7470     0.47543E+01 
  64363.0092     0.49193E+01 
  64395.2714     0.50885E+01 
  64427.5335     0.52621E+01 
  64459.7957     0.54400E+01 
  64492.0578     0.56223E+01 
  64524.3200     0.58092E+01 
  64556.5822     0.60005E+01 
  64588.8443     0.61966E+01 
  64621.1065     0.63973E+01 
  64653.3686     0.66028E+01 
  64685.6308     0.68131E+01 
  64717.8930     0.70284E+01 
  64750.1551     0.72487E+01 
  64782.4173     0.74740E+01 
  64814.6794     0.77045E+01 
  64846.9416     0.79402E+01 
  64879.2038     0.81812E+01 
  64911.4659     0.84276E+01 
  64943.7281     0.86795E+01 
  64975.9902     0.89369E+01 
  65008.2524     0.91999E+01 
  65040.5146     0.94687E+01 
  65072.7767     0.97433E+01 
  65105.0389     0.10024E+02 
  65137.3010     0.10310E+02 
  65169.5632     0.10603E+02 
  65201.8254     0.10902E+02 
  65234.0875     0.11207E+02 
  65266.3497     0.11518E+02 
  65298.6118     0.11836E+02 
  65330.8740     0.12160E+02 
  65363.1362     0.12491E+02 
  65395.3983     0.12829E+02 
  65427.6605     0.13174E+02 
  65459.9226     0.13525E+02 
  65492.1848     0.13884E+02 
  65524.4470     0.14250E+02 
  65556.7091     0.14623E+02 
  65588.9713     0.15003E+02 
  65621.2334     0.15391E+02 
  65653.4956     0.15787E+02 
  65685.7578     0.16190E+02 
  65718.0199     0.16601E+02 
  65750.2821     0.17021E+02 
  65782.5442     0.17448E+02 
  65814.8064     0.17883E+02 
  65847.0686     0.18327E+02 
  65879.3307     0.18779E+02 
  65911.5929     0.19240E+02 
  65943.8550     0.19709E+02 
  65976.1172     0.20188E+02 
  66008.3794     0.20675E+02 
  66040.6415     0.21171E+02 
  66072.9037     0.21677E+02 
  66105.1658     0.22191E+02 
  66137.4280     0.22716E+02 
  66169.6902     0.23250E+02 
  66201.9523     0.23794E+02 
  66234.2145     0.24347E+02 
  66266.4766     0.24911E+02 
  66298.7388     0.25485E+02 
  66331.0010     0.26069E+02 
  66363.2631     0.26664E+02 
  66395.5253     0.27269E+02 
  66427.7874     0.27885E+02 
  66460.0496     0.28513E+02 
  66492.3118     0.29151E+02 
  66524.5739     0.29800E+02 
  66556.8361     0.30461E+02 
  66589.0982     0.31134E+02 
  66621.3604     0.31818E+02 
  66653.6226     0.32514E+02 
  66685.8847     0.33222E+02 
  66718.1469     0.33942E+02 
  66750.4090     0.34675E+02 
  66782.6712     0.35421E+02 
  66814.9334     0.36179E+02 
  66847.1955     0.36950E+02 
  66879.4577     0.37734E+02 
  66911.7198     0.38532E+02 
  66943.9820     0.39342E+02 
  66976.2442     0.40167E+02 
  67008.5063     0.41005E+02 
  67040.7685     0.41858E+02 
  67073.0306     0.42724E+02 
  67105.2928     0.43605E+02 
  67137.5550     0.44501E+02 
  67169.8171     0.45411E+02 
  67202.0793     0.46337E+02 
  67234.3414     0.47277E+02 
  67266.6036     0.48233E+02 
  67298.8658     0.49205E+02 
  67331.1279     0.50192E+02 
  67363.3901     0.51195E+02 
  67395.6522     0.52214E+02 
  67427.9144     0.53250E+02 
  67460.1766     0.54302E+02 
  67492.4387     0.55372E+02 
  67524.7009     0.56458E+02 
  67556.9630     0.57561E+02 
  67589.2252     0.58682E+02 
  67621.4874     0.59821E+02 
  67653.7495     0.60977E+02 
  67686.0117     0.62152E+02 
  67718.2738     0.63345E+02 
  67750.5360     0.64556E+02 
  67782.7982     0.65787E+02 
  67815.0603     0.67036E+02 
  67847.3225     0.68305E+02 
  67879.5846     0.69593E+02 
  67911.8468     0.70901E+02 
  67944.1090     0.72228E+02 
  67976.3711     0.73577E+02 
  68008.6333     0.74945E+02 
  68040.8954     0.76334E+02 
  68073.1576     0.77744E+02 
  68105.4198     0.79176E+02 
  68137.6819     0.80628E+02 
  68169.9441     0.82103E+02 
  68202.2062     0.83599E+02 
  68234.4684     0.85118E+02 
  68266.7306     0.86659E+02 
  68298.9927     0.88222E+02 
  68331.2549     0.89809E+02 
  68363.5170     0.91419E+02 
  68395.7792     0.93052E+02 
  68428.0414     0.94709E+02 
  68460.3035     0.96390E+02 
  68492.5657     0.98095E+02 
  68524.8278     0.99825E+02 
  68557.0900     0.10158E+03 
  68589.3522     0.10336E+03 
  68621.6143     0.10516E+03 
  68653.8765     0.10699E+03 
  68686.1386     0.10885E+03 
  68718.4008     0.11073E+03 
  68750.6630     0.11264E+03 
  68782.9251     0.11458E+03 
  68815.1873     0.11654E+03 
  68847.4494     0.11853E+03 
  68879.7116     0.12055E+03 
  68911.9738     0.12259E+03 
  68944.2359     0.12467E+03 
  68976.4981     0.12677E+03 
  69008.7602     0.12890E+03 
  69041.0224     0.13106E+03 
  69073.2846     0.13325E+03 
  69105.5467     0.13547E+03 
  69137.8089     0.13771E+03 
  69170.0710     0.13999E+03 
  69202.3332     0.14230E+03 
  69234.5954     0.14464E+03 
  69266.8575     0.14701E+03 
  69299.1197     0.14941E+03 
  69331.3818     0.15184E+03 
  69363.6440     0.15431E+03 
  69395.9062     0.15681E+03 
  69428.1683     0.15934E+03 
  69460.4305     0.16190E+03 
  69492.6926     0.16449E+03 
  69524.9548     0.16712E+03 
  69557.2170     0.16979E+03 
  69589.4791     0.17248E+03 
  69621.7413     0.17521E+03 
  69654.0034     0.17798E+03 
  69686.2656     0.18078E+03 
  69718.5278     0.18361E+03 
  69750.7899     0.18648E+03 
  69783.0521     0.18939E+03 
  69815.3142     0.19233E+03 
  69847.5764     0.19531E+03 
  69879.8386     0.19833E+03 
  69912.1007     0.20138E+03 
  69944.3629     0.20447E+03 
  69976.6250     0.20760E+03 
  70008.8872     0.21076E+03 
  70041.1494     0.21397E+03 
  70073.4115     0.21721E+03 
  70105.6737     0.22049E+03 
  70137.9358     0.22381E+03 
  70170.1980     0.22717E+03 
  70202.4602     0.23057E+03 
  70234.7223     0.23400E+03 
  70266.9845     0.23748E+03 
  70299.2466     0.24100E+03 
  70331.5088     0.24456E+03 
  70363.7710     0.24816E+03 
  70396.0331     0.25181E+03 
  70428.2953     0.25549E+03 
  70460.5574     0.25922E+03 
  70492.8196     0.26299E+03 
  70525.0818     0.26680E+03 
  70557.3439     0.27065E+03 
  70589.6061     0.27455E+03 
  70621.8682     0.27849E+03 
  70654.1304     0.28248E+03 
  70686.3926     0.28650E+03 
  70718.6547     0.29058E+03 
  70750.9169     0.29470E+03 
  70783.1790     0.29886E+03 
  70815.4412     0.30307E+03 
  70847.7034     0.30732E+03 
  70879.9655     0.31162E+03 
  70912.2277     0.31596E+03 
  70944.4898     0.32035E+03 
  70976.7520     0.32479E+03 
  71009.0142     0.32928E+03 
  71041.2763     0.33381E+03 
  71073.5385     0.33839E+03 
  71105.8006     0.34301E+03 
  71138.0628     0.34769E+03 
  71170.3250     0.35241E+03 
  71202.5871     0.35718E+03 
  71234.8493     0.36200E+03 
  71267.1114     0.36687E+03 
  71299.3736     0.37178E+03 
  71331.6358     0.37675E+03 
  71363.8979     0.38177E+03 
  71396.1601     0.38683E+03 
  71428.4222     0.39195E+03 
  71460.6844     0.39711E+03 
  71492.9466     0.40233E+03 
  71525.2087     0.40760E+03 
  71557.4709     0.41291E+03 
  71589.7330     0.41828E+03 
  71621.9952     0.42370E+03 
  71654.2574     0.42918E+03 
  71686.5195     0.43470E+03 
  71718.7817     0.44028E+03 
  71751.0438     0.44590E+03 
  71783.3060     0.45159E+03 
  71815.5682     0.45732E+03 
  71847.8303     0.46310E+03 
  71880.0925     0.46894E+03 
  71912.3546     0.47484E+03 
  71944.6168     0.48078E+03 
  71976.8790     0.48678E+03 
  72009.1411     0.49283E+03 
  72041.4033     0.49894E+03 
  72073.6654     0.50510E+03 
  72105.9276     0.51131E+03 
  72138.1898     0.51758E+03 
  72170.4519     0.52391E+03 
  72202.7141     0.53028E+03 
  72234.9762     0.53672E+03 
  72267.2384     0.54320E+03 
  72299.5006     0.54975E+03 
  72331.7627     0.55634E+03 
  72364.0249     0.56300E+03 
  72396.2870     0.56970E+03 
  72428.5492     0.57647E+03 
  72460.8114     0.58329E+03 
  72493.0735     0.59016E+03 
  72525.3357     0.59709E+03 
  72557.5978     0.60408E+03 
  72589.8600     0.61112E+03 
