  32262.1600     0.11874E+03 
  32294.4222     0.12008E+03 
  32326.6843     0.12144E+03 
  32358.9465     0.12281E+03 
  32391.2086     0.12419E+03 
  32423.4708     0.12558E+03 
  32455.7330     0.12698E+03 
  32487.9951     0.12839E+03 
  32520.2573     0.12981E+03 
  32552.5194     0.13124E+03 
  32584.7816     0.13269E+03 
  32617.0438     0.13414E+03 
  32649.3059     0.13560E+03 
  32681.5681     0.13708E+03 
  32713.8302     0.13856E+03 
  32746.0924     0.14006E+03 
  32778.3546     0.14156E+03 
  32810.6167     0.14308E+03 
  32842.8789     0.14460E+03 
  32875.1410     0.14614E+03 
  32907.4032     0.14769E+03 
  32939.6654     0.14925E+03 
  32971.9275     0.15081E+03 
  33004.1897     0.15239E+03 
  33036.4518     0.15398E+03 
  33068.7140     0.15558E+03 
  33100.9762     0.15719E+03 
  33133.2383     0.15881E+03 
  33165.5005     0.16044E+03 
  33197.7626     0.16209E+03 
  33230.0248     0.16374E+03 
  33262.2870     0.16540E+03 
  33294.5491     0.16707E+03 
  33326.8113     0.16876E+03 
  33359.0734     0.17045E+03 
  33391.3356     0.17215E+03 
  33423.5978     0.17387E+03 
  33455.8599     0.17559E+03 
  33488.1221     0.17732E+03 
  33520.3842     0.17907E+03 
  33552.6464     0.18082E+03 
  33584.9086     0.18259E+03 
  33617.1707     0.18436E+03 
  33649.4329     0.18615E+03 
  33681.6950     0.18794E+03 
  33713.9572     0.18975E+03 
  33746.2194     0.19156E+03 
  33778.4815     0.19339E+03 
  33810.7437     0.19522E+03 
  33843.0058     0.19707E+03 
  33875.2680     0.19892E+03 
  33907.5302     0.20079E+03 
  33939.7923     0.20266E+03 
  33972.0545     0.20454E+03 
  34004.3166     0.20644E+03 
  34036.5788     0.20834E+03 
  34068.8410     0.21025E+03 
  34101.1031     0.21217E+03 
  34133.3653     0.21411E+03 
  34165.6274     0.21605E+03 
  34197.8896     0.21800E+03 
  34230.1518     0.21996E+03 
  34262.4139     0.22192E+03 
  34294.6761     0.22390E+03 
  34326.9382     0.22589E+03 
  34359.2004     0.22788E+03 
  34391.4626     0.22989E+03 
  34423.7247     0.23190E+03 
  34455.9869     0.23393E+03 
  34488.2490     0.23596E+03 
  34520.5112     0.23800E+03 
  34552.7734     0.24005E+03 
  34585.0355     0.24210E+03 
  34617.2977     0.24417E+03 
  34649.5598     0.24624E+03 
  34681.8220     0.24833E+03 
  34714.0842     0.25042E+03 
  34746.3463     0.25252E+03 
  34778.6085     0.25463E+03 
  34810.8706     0.25674E+03 
  34843.1328     0.25886E+03 
  34875.3950     0.26100E+03 
  34907.6571     0.26313E+03 
  34939.9193     0.26528E+03 
  34972.1814     0.26744E+03 
  35004.4436     0.26960E+03 
  35036.7058     0.27177E+03 
  35068.9679     0.27395E+03 
  35101.2301     0.27613E+03 
  35133.4922     0.27832E+03 
  35165.7544     0.28052E+03 
  35198.0166     0.28273E+03 
  35230.2787     0.28494E+03 
  35262.5409     0.28716E+03 
  35294.8030     0.28938E+03 
  35327.0652     0.29162E+03 
  35359.3274     0.29386E+03 
  35391.5895     0.29610E+03 
  35423.8517     0.29835E+03 
  35456.1138     0.30061E+03 
  35488.3760     0.30288E+03 
  35520.6382     0.30515E+03 
  35552.9003     0.30742E+03 
  35585.1625     0.30971E+03 
  35617.4246     0.31199E+03 
  35649.6868     0.31429E+03 
  35681.9490     0.31659E+03 
  35714.2111     0.31889E+03 
  35746.4733     0.32120E+03 
  35778.7354     0.32352E+03 
  35810.9976     0.32583E+03 
  35843.2598     0.32816E+03 
  35875.5219     0.33049E+03 
  35907.7841     0.33282E+03 
  35940.0462     0.33516E+03 
  35972.3084     0.33750E+03 
  36004.5706     0.33985E+03 
  36036.8327     0.34220E+03 
  36069.0949     0.34456E+03 
  36101.3570     0.34692E+03 
  36133.6192     0.34928E+03 
  36165.8814     0.35165E+03 
  36198.1435     0.35402E+03 
  36230.4057     0.35639E+03 
  36262.6678     0.35877E+03 
  36294.9300     0.36115E+03 
  36327.1922     0.36353E+03 
  36359.4543     0.36592E+03 
  36391.7165     0.36831E+03 
  36423.9786     0.37070E+03 
  36456.2408     0.37310E+03 
  36488.5030     0.37549E+03 
  36520.7651     0.37789E+03 
  36553.0273     0.38029E+03 
  36585.2894     0.38269E+03 
  36617.5516     0.38510E+03 
  36649.8138     0.38750E+03 
  36682.0759     0.38991E+03 
  36714.3381     0.39232E+03 
  36746.6002     0.39473E+03 
  36778.8624     0.39714E+03 
  36811.1246     0.39956E+03 
  36843.3867     0.40197E+03 
  36875.6489     0.40438E+03 
  36907.9110     0.40680E+03 
  36940.1732     0.40921E+03 
  36972.4354     0.41163E+03 
  37004.6975     0.41404E+03 
  37036.9597     0.41646E+03 
  37069.2218     0.41887E+03 
  37101.4840     0.42129E+03 
  37133.7462     0.42370E+03 
  37166.0083     0.42611E+03 
  37198.2705     0.42852E+03 
  37230.5326     0.43094E+03 
  37262.7948     0.43335E+03 
  37295.0570     0.43576E+03 
  37327.3191     0.43816E+03 
  37359.5813     0.44057E+03 
  37391.8434     0.44297E+03 
  37424.1056     0.44537E+03 
  37456.3678     0.44778E+03 
  37488.6299     0.45017E+03 
  37520.8921     0.45257E+03 
  37553.1542     0.45496E+03 
  37585.4164     0.45735E+03 
  37617.6786     0.45974E+03 
  37649.9407     0.46213E+03 
  37682.2029     0.46451E+03 
  37714.4650     0.46689E+03 
  37746.7272     0.46926E+03 
  37778.9894     0.47163E+03 
  37811.2515     0.47400E+03 
  37843.5137     0.47636E+03 
  37875.7758     0.47872E+03 
  37908.0380     0.48108E+03 
  37940.3002     0.48343E+03 
  37972.5623     0.48578E+03 
  38004.8245     0.48812E+03 
  38037.0866     0.49045E+03 
  38069.3488     0.49279E+03 
  38101.6110     0.49511E+03 
  38133.8731     0.49743E+03 
  38166.1353     0.49975E+03 
  38198.3974     0.50206E+03 
  38230.6596     0.50437E+03 
  38262.9218     0.50666E+03 
  38295.1839     0.50896E+03 
  38327.4461     0.51124E+03 
  38359.7082     0.51352E+03 
  38391.9704     0.51580E+03 
  38424.2326     0.51806E+03 
  38456.4947     0.52032E+03 
  38488.7569     0.52258E+03 
  38521.0190     0.52482E+03 
  38553.2812     0.52706E+03 
  38585.5434     0.52929E+03 
  38617.8055     0.53151E+03 
  38650.0677     0.53373E+03 
  38682.3298     0.53594E+03 
  38714.5920     0.53814E+03 
  38746.8542     0.54033E+03 
  38779.1163     0.54251E+03 
  38811.3785     0.54468E+03 
  38843.6406     0.54685E+03 
  38875.9028     0.54901E+03 
  38908.1650     0.55115E+03 
  38940.4271     0.55329E+03 
  38972.6893     0.55542E+03 
  39004.9514     0.55754E+03 
  39037.2136     0.55965E+03 
  39069.4758     0.56175E+03 
  39101.7379     0.56384E+03 
  39134.0001     0.56592E+03 
  39166.2622     0.56799E+03 
  39198.5244     0.57005E+03 
  39230.7866     0.57210E+03 
  39263.0487     0.57414E+03 
  39295.3109     0.57617E+03 
  39327.5730     0.57819E+03 
  39359.8352     0.58019E+03 
  39392.0974     0.58219E+03 
  39424.3595     0.58417E+03 
  39456.6217     0.58614E+03 
  39488.8838     0.58811E+03 
  39521.1460     0.59005E+03 
  39553.4082     0.59199E+03 
  39585.6703     0.59392E+03 
  39617.9325     0.59583E+03 
  39650.1946     0.59773E+03 
  39682.4568     0.59962E+03 
  39714.7190     0.60150E+03 
  39746.9811     0.60336E+03 
  39779.2433     0.60521E+03 
  39811.5054     0.60705E+03 
  39843.7676     0.60887E+03 
  39876.0298     0.61068E+03 
  39908.2919     0.61248E+03 
  39940.5541     0.61427E+03 
  39972.8162     0.61604E+03 
  40005.0784     0.61780E+03 
  40037.3406     0.61954E+03 
  40069.6027     0.62127E+03 
  40101.8649     0.62299E+03 
  40134.1270     0.62469E+03 
  40166.3892     0.62638E+03 
  40198.6514     0.62805E+03 
  40230.9135     0.62971E+03 
  40263.1757     0.63135E+03 
  40295.4378     0.63298E+03 
  40327.7000     0.63460E+03 
  40359.9622     0.63620E+03 
  40392.2243     0.63778E+03 
  40424.4865     0.63935E+03 
  40456.7486     0.64091E+03 
  40489.0108     0.64245E+03 
  40521.2730     0.64397E+03 
  40553.5351     0.64548E+03 
  40585.7973     0.64697E+03 
  40618.0594     0.64845E+03 
  40650.3216     0.64991E+03 
  40682.5838     0.65136E+03 
  40714.8459     0.65279E+03 
  40747.1081     0.65420E+03 
  40779.3702     0.65560E+03 
  40811.6324     0.65698E+03 
  40843.8946     0.65834E+03 
  40876.1567     0.65969E+03 
  40908.4189     0.66102E+03 
  40940.6810     0.66234E+03 
  40972.9432     0.66363E+03 
  41005.2054     0.66492E+03 
  41037.4675     0.66618E+03 
  41069.7297     0.66743E+03 
  41101.9918     0.66866E+03 
  41134.2540     0.66987E+03 
  41166.5162     0.67107E+03 
  41198.7783     0.67225E+03 
  41231.0405     0.67341E+03 
  41263.3026     0.67455E+03 
  41295.5648     0.67568E+03 
  41327.8270     0.67679E+03 
  41360.0891     0.67788E+03 
  41392.3513     0.67895E+03 
  41424.6134     0.68001E+03 
  41456.8756     0.68105E+03 
  41489.1378     0.68207E+03 
  41521.3999     0.68307E+03 
  41553.6621     0.68405E+03 
  41585.9242     0.68502E+03 
  41618.1864     0.68597E+03 
  41650.4486     0.68690E+03 
  41682.7107     0.68781E+03 
  41714.9729     0.68871E+03 
  41747.2350     0.68958E+03 
  41779.4972     0.69044E+03 
  41811.7594     0.69128E+03 
  41844.0215     0.69210E+03 
  41876.2837     0.69290E+03 
  41908.5458     0.69368E+03 
  41940.8080     0.69445E+03 
  41973.0702     0.69520E+03 
  42005.3323     0.69592E+03 
  42037.5945     0.69663E+03 
  42069.8566     0.69732E+03 
  42102.1188     0.69800E+03 
  42134.3810     0.69865E+03 
  42166.6431     0.69928E+03 
  42198.9053     0.69990E+03 
  42231.1674     0.70050E+03 
  42263.4296     0.70108E+03 
  42295.6918     0.70164E+03 
  42327.9539     0.70218E+03 
  42360.2161     0.70270E+03 
  42392.4782     0.70320E+03 
  42424.7404     0.70368E+03 
  42457.0026     0.70415E+03 
  42489.2647     0.70460E+03 
  42521.5269     0.70502E+03 
  42553.7890     0.70543E+03 
  42586.0512     0.70582E+03 
  42618.3134     0.70619E+03 
  42650.5755     0.70654E+03 
  42682.8377     0.70687E+03 
  42715.0998     0.70719E+03 
  42747.3620     0.70748E+03 
  42779.6242     0.70776E+03 
  42811.8863     0.70801E+03 
  42844.1485     0.70825E+03 
  42876.4106     0.70847E+03 
  42908.6728     0.70867E+03 
  42940.9350     0.70885E+03 
  42973.1971     0.70901E+03 
  43005.4593     0.70915E+03 
  43037.7214     0.70928E+03 
  43069.9836     0.70938E+03 
  43102.2458     0.70947E+03 
  43134.5079     0.70954E+03 
  43166.7701     0.70958E+03 
  43199.0322     0.70961E+03 
  43231.2944     0.70963E+03 
  43263.5566     0.70962E+03 
  43295.8187     0.70959E+03 
  43328.0809     0.70955E+03 
  43360.3430     0.70948E+03 
  43392.6052     0.70940E+03 
  43424.8674     0.70930E+03 
  43457.1295     0.70918E+03 
  43489.3917     0.70904E+03 
  43521.6538     0.70888E+03 
  43553.9160     0.70871E+03 
  43586.1782     0.70852E+03 
  43618.4403     0.70830E+03 
  43650.7025     0.70807E+03 
  43682.9646     0.70783E+03 
  43715.2268     0.70756E+03 
  43747.4890     0.70727E+03 
  43779.7511     0.70697E+03 
  43812.0133     0.70665E+03 
  43844.2754     0.70631E+03 
  43876.5376     0.70595E+03 
  43908.7998     0.70558E+03 
  43941.0619     0.70518E+03 
  43973.3241     0.70477E+03 
  44005.5862     0.70434E+03 
  44037.8484     0.70390E+03 
  44070.1106     0.70343E+03 
  44102.3727     0.70295E+03 
  44134.6349     0.70245E+03 
  44166.8970     0.70193E+03 
  44199.1592     0.70140E+03 
  44231.4214     0.70085E+03 
  44263.6835     0.70028E+03 
  44295.9457     0.69969E+03 
  44328.2078     0.69909E+03 
  44360.4700     0.69847E+03 
  44392.7322     0.69783E+03 
  44424.9943     0.69718E+03 
  44457.2565     0.69651E+03 
  44489.5186     0.69582E+03 
  44521.7808     0.69511E+03 
  44554.0430     0.69439E+03 
  44586.3051     0.69365E+03 
  44618.5673     0.69290E+03 
  44650.8294     0.69213E+03 
  44683.0916     0.69134E+03 
  44715.3538     0.69053E+03 
  44747.6159     0.68971E+03 
  44779.8781     0.68888E+03 
  44812.1402     0.68803E+03 
  44844.4024     0.68716E+03 
  44876.6646     0.68627E+03 
  44908.9267     0.68537E+03 
  44941.1889     0.68446E+03 
  44973.4510     0.68353E+03 
  45005.7132     0.68258E+03 
  45037.9754     0.68162E+03 
  45070.2375     0.68064E+03 
  45102.4997     0.67965E+03 
  45134.7618     0.67864E+03 
  45167.0240     0.67762E+03 
  45199.2862     0.67658E+03 
  45231.5483     0.67553E+03 
  45263.8105     0.67446E+03 
  45296.0726     0.67338E+03 
  45328.3348     0.67228E+03 
  45360.5970     0.67117E+03 
  45392.8591     0.67004E+03 
  45425.1213     0.66890E+03 
  45457.3834     0.66775E+03 
  45489.6456     0.66658E+03 
  45521.9078     0.66540E+03 
  45554.1699     0.66420E+03 
  45586.4321     0.66299E+03 
  45618.6942     0.66177E+03 
  45650.9564     0.66053E+03 
  45683.2186     0.65928E+03 
  45715.4807     0.65802E+03 
  45747.7429     0.65674E+03 
  45780.0050     0.65545E+03 
  45812.2672     0.65415E+03 
  45844.5294     0.65283E+03 
  45876.7915     0.65150E+03 
  45909.0537     0.65016E+03 
  45941.3158     0.64881E+03 
  45973.5780     0.64744E+03 
  46005.8402     0.64606E+03 
  46038.1023     0.64467E+03 
  46070.3645     0.64326E+03 
  46102.6266     0.64185E+03 
  46134.8888     0.64042E+03 
  46167.1510     0.63898E+03 
  46199.4131     0.63753E+03 
  46231.6753     0.63607E+03 
  46263.9374     0.63459E+03 
  46296.1996     0.63310E+03 
  46328.4618     0.63161E+03 
  46360.7239     0.63010E+03 
  46392.9861     0.62858E+03 
  46425.2482     0.62705E+03 
  46457.5104     0.62551E+03 
  46489.7726     0.62396E+03 
  46522.0347     0.62239E+03 
  46554.2969     0.62082E+03 
  46586.5590     0.61924E+03 
  46618.8212     0.61764E+03 
  46651.0834     0.61604E+03 
  46683.3455     0.61442E+03 
  46715.6077     0.61280E+03 
  46747.8698     0.61117E+03 
  46780.1320     0.60952E+03 
  46812.3942     0.60787E+03 
  46844.6563     0.60621E+03 
  46876.9185     0.60454E+03 
  46909.1806     0.60285E+03 
  46941.4428     0.60116E+03 
  46973.7050     0.59947E+03 
  47005.9671     0.59776E+03 
  47038.2293     0.59604E+03 
  47070.4914     0.59432E+03 
  47102.7536     0.59258E+03 
  47135.0158     0.59084E+03 
  47167.2779     0.58909E+03 
  47199.5401     0.58733E+03 
  47231.8022     0.58557E+03 
  47264.0644     0.58379E+03 
  47296.3266     0.58201E+03 
  47328.5887     0.58022E+03 
  47360.8509     0.57842E+03 
  47393.1130     0.57662E+03 
  47425.3752     0.57480E+03 
  47457.6374     0.57298E+03 
  47489.8995     0.57116E+03 
  47522.1617     0.56932E+03 
  47554.4238     0.56748E+03 
  47586.6860     0.56564E+03 
  47618.9482     0.56378E+03 
  47651.2103     0.56192E+03 
  47683.4725     0.56006E+03 
  47715.7346     0.55818E+03 
  47747.9968     0.55630E+03 
  47780.2590     0.55442E+03 
  47812.5211     0.55253E+03 
  47844.7833     0.55063E+03 
  47877.0454     0.54873E+03 
  47909.3076     0.54682E+03 
  47941.5698     0.54491E+03 
  47973.8319     0.54299E+03 
  48006.0941     0.54106E+03 
  48038.3562     0.53913E+03 
  48070.6184     0.53720E+03 
  48102.8806     0.53526E+03 
  48135.1427     0.53332E+03 
  48167.4049     0.53137E+03 
  48199.6670     0.52941E+03 
  48231.9292     0.52746E+03 
  48264.1914     0.52549E+03 
  48296.4535     0.52353E+03 
  48328.7157     0.52156E+03 
  48360.9778     0.51958E+03 
  48393.2400     0.51760E+03 
  48425.5022     0.51562E+03 
  48457.7643     0.51364E+03 
  48490.0265     0.51165E+03 
  48522.2886     0.50965E+03 
  48554.5508     0.50766E+03 
  48586.8130     0.50566E+03 
  48619.0751     0.50365E+03 
  48651.3373     0.50165E+03 
  48683.5994     0.49964E+03 
  48715.8616     0.49763E+03 
  48748.1238     0.49561E+03 
  48780.3859     0.49360E+03 
  48812.6481     0.49158E+03 
  48844.9102     0.48956E+03 
  48877.1724     0.48753E+03 
  48909.4346     0.48551E+03 
  48941.6967     0.48348E+03 
  48973.9589     0.48145E+03 
  49006.2210     0.47942E+03 
  49038.4832     0.47738E+03 
  49070.7454     0.47535E+03 
  49103.0075     0.47331E+03 
  49135.2697     0.47127E+03 
  49167.5318     0.46923E+03 
  49199.7940     0.46719E+03 
  49232.0562     0.46515E+03 
  49264.3183     0.46310E+03 
  49296.5805     0.46106E+03 
  49328.8426     0.45901E+03 
  49361.1048     0.45697E+03 
  49393.3670     0.45492E+03 
  49425.6291     0.45287E+03 
  49457.8913     0.45082E+03 
  49490.1534     0.44877E+03 
  49522.4156     0.44672E+03 
  49554.6778     0.44468E+03 
  49586.9399     0.44263E+03 
  49619.2021     0.44058E+03 
  49651.4642     0.43853E+03 
  49683.7264     0.43648E+03 
  49715.9886     0.43443E+03 
  49748.2507     0.43238E+03 
  49780.5129     0.43033E+03 
  49812.7750     0.42828E+03 
  49845.0372     0.42624E+03 
  49877.2994     0.42419E+03 
  49909.5615     0.42214E+03 
  49941.8237     0.42010E+03 
  49974.0858     0.41805E+03 
  50006.3480     0.41601E+03 
  50038.6102     0.41397E+03 
  50070.8723     0.41193E+03 
  50103.1345     0.40989E+03 
  50135.3966     0.40785E+03 
  50167.6588     0.40581E+03 
  50199.9210     0.40378E+03 
  50232.1831     0.40174E+03 
  50264.4453     0.39971E+03 
  50296.7074     0.39768E+03 
  50328.9696     0.39565E+03 
  50361.2318     0.39363E+03 
  50393.4939     0.39160E+03 
  50425.7561     0.38958E+03 
  50458.0182     0.38756E+03 
  50490.2804     0.38554E+03 
  50522.5426     0.38352E+03 
  50554.8047     0.38151E+03 
  50587.0669     0.37950E+03 
  50619.3290     0.37749E+03 
  50651.5912     0.37548E+03 
  50683.8534     0.37348E+03 
  50716.1155     0.37147E+03 
  50748.3777     0.36948E+03 
  50780.6398     0.36748E+03 
  50812.9020     0.36549E+03 
  50845.1642     0.36350E+03 
  50877.4263     0.36151E+03 
  50909.6885     0.35953E+03 
  50941.9506     0.35755E+03 
  50974.2128     0.35557E+03 
  51006.4750     0.35359E+03 
  51038.7371     0.35162E+03 
  51070.9993     0.34965E+03 
  51103.2614     0.34769E+03 
  51135.5236     0.34573E+03 
  51167.7858     0.34377E+03 
  51200.0479     0.34182E+03 
  51232.3101     0.33987E+03 
  51264.5722     0.33792E+03 
  51296.8344     0.33598E+03 
  51329.0966     0.33404E+03 
  51361.3587     0.33211E+03 
  51393.6209     0.33018E+03 
  51425.8830     0.32825E+03 
  51458.1452     0.32633E+03 
  51490.4074     0.32441E+03 
  51522.6695     0.32250E+03 
  51554.9317     0.32059E+03 
  51587.1938     0.31868E+03 
  51619.4560     0.31678E+03 
  51651.7182     0.31488E+03 
  51683.9803     0.31299E+03 
  51716.2425     0.31110E+03 
  51748.5046     0.30922E+03 
  51780.7668     0.30734E+03 
  51813.0290     0.30547E+03 
  51845.2911     0.30360E+03 
  51877.5533     0.30173E+03 
  51909.8154     0.29987E+03 
  51942.0776     0.29802E+03 
  51974.3398     0.29617E+03 
  52006.6019     0.29432E+03 
  52038.8641     0.29248E+03 
  52071.1262     0.29065E+03 
  52103.3884     0.28882E+03 
  52135.6506     0.28699E+03 
  52167.9127     0.28517E+03 
  52200.1749     0.28336E+03 
  52232.4370     0.28155E+03 
  52264.6992     0.27974E+03 
  52296.9614     0.27794E+03 
  52329.2235     0.27615E+03 
  52361.4857     0.27436E+03 
  52393.7478     0.27258E+03 
  52426.0100     0.27080E+03 
  52458.2722     0.26903E+03 
  52490.5343     0.26726E+03 
  52522.7965     0.26550E+03 
  52555.0586     0.26374E+03 
  52587.3208     0.26199E+03 
  52619.5830     0.26025E+03 
  52651.8451     0.25851E+03 
  52684.1073     0.25677E+03 
  52716.3694     0.25504E+03 
  52748.6316     0.25332E+03 
  52780.8938     0.25160E+03 
  52813.1559     0.24989E+03 
  52845.4181     0.24819E+03 
  52877.6802     0.24649E+03 
  52909.9424     0.24480E+03 
  52942.2046     0.24311E+03 
  52974.4667     0.24143E+03 
  53006.7289     0.23975E+03 
  53038.9910     0.23808E+03 
  53071.2532     0.23642E+03 
  53103.5154     0.23476E+03 
  53135.7775     0.23311E+03 
  53168.0397     0.23146E+03 
  53200.3018     0.22982E+03 
  53232.5640     0.22819E+03 
  53264.8262     0.22656E+03 
  53297.0883     0.22494E+03 
  53329.3505     0.22332E+03 
  53361.6126     0.22171E+03 
  53393.8748     0.22011E+03 
  53426.1370     0.21851E+03 
  53458.3991     0.21692E+03 
  53490.6613     0.21534E+03 
  53522.9234     0.21376E+03 
  53555.1856     0.21219E+03 
  53587.4478     0.21062E+03 
  53619.7099     0.20906E+03 
  53651.9721     0.20751E+03 
  53684.2342     0.20596E+03 
  53716.4964     0.20442E+03 
  53748.7586     0.20288E+03 
  53781.0207     0.20135E+03 
  53813.2829     0.19983E+03 
  53845.5450     0.19832E+03 
  53877.8072     0.19681E+03 
  53910.0694     0.19530E+03 
  53942.3315     0.19381E+03 
  53974.5937     0.19232E+03 
  54006.8558     0.19083E+03 
  54039.1180     0.18936E+03 
  54071.3802     0.18789E+03 
  54103.6423     0.18642E+03 
  54135.9045     0.18496E+03 
  54168.1666     0.18351E+03 
  54200.4288     0.18207E+03 
  54232.6910     0.18063E+03 
  54264.9531     0.17919E+03 
  54297.2153     0.17777E+03 
  54329.4774     0.17635E+03 
  54361.7396     0.17493E+03 
  54394.0018     0.17353E+03 
  54426.2639     0.17213E+03 
  54458.5261     0.17073E+03 
  54490.7882     0.16935E+03 
  54523.0504     0.16797E+03 
  54555.3126     0.16659E+03 
  54587.5747     0.16522E+03 
  54619.8369     0.16386E+03 
  54652.0990     0.16251E+03 
  54684.3612     0.16116E+03 
  54716.6234     0.15982E+03 
  54748.8855     0.15848E+03 
  54781.1477     0.15715E+03 
  54813.4098     0.15583E+03 
  54845.6720     0.15451E+03 
  54877.9342     0.15320E+03 
  54910.1963     0.15190E+03 
  54942.4585     0.15060E+03 
  54974.7206     0.14931E+03 
  55006.9828     0.14803E+03 
  55039.2450     0.14675E+03 
  55071.5071     0.14548E+03 
  55103.7693     0.14421E+03 
  55136.0314     0.14295E+03 
  55168.2936     0.14170E+03 
  55200.5558     0.14046E+03 
  55232.8179     0.13922E+03 
  55265.0801     0.13798E+03 
  55297.3422     0.13676E+03 
  55329.6044     0.13554E+03 
  55361.8666     0.13432E+03 
  55394.1287     0.13312E+03 
  55426.3909     0.13192E+03 
  55458.6530     0.13072E+03 
  55490.9152     0.12953E+03 
  55523.1774     0.12835E+03 
  55555.4395     0.12718E+03 
  55587.7017     0.12601E+03 
  55619.9638     0.12484E+03 
  55652.2260     0.12369E+03 
  55684.4882     0.12254E+03 
  55716.7503     0.12139E+03 
  55749.0125     0.12026E+03 
  55781.2746     0.11912E+03 
  55813.5368     0.11800E+03 
  55845.7990     0.11688E+03 
  55878.0611     0.11577E+03 
  55910.3233     0.11466E+03 
  55942.5854     0.11356E+03 
  55974.8476     0.11247E+03 
  56007.1098     0.11138E+03 
  56039.3719     0.11030E+03 
  56071.6341     0.10922E+03 
  56103.8962     0.10815E+03 
  56136.1584     0.10709E+03 
  56168.4206     0.10603E+03 
  56200.6827     0.10498E+03 
  56232.9449     0.10394E+03 
  56265.2070     0.10290E+03 
  56297.4692     0.10187E+03 
  56329.7314     0.10084E+03 
  56361.9935     0.99818E+02 
  56394.2557     0.98804E+02 
  56426.5178     0.97796E+02 
  56458.7800     0.96793E+02 
  56491.0422     0.95797E+02 
  56523.3043     0.94806E+02 
  56555.5665     0.93822E+02 
  56587.8286     0.92843E+02 
  56620.0908     0.91871E+02 
  56652.3530     0.90904E+02 
  56684.6151     0.89944E+02 
  56716.8773     0.88989E+02 
  56749.1394     0.88040E+02 
  56781.4016     0.87097E+02 
  56813.6638     0.86160E+02 
  56845.9259     0.85229E+02 
  56878.1881     0.84303E+02 
  56910.4502     0.83384E+02 
  56942.7124     0.82470E+02 
  56974.9746     0.81562E+02 
  57007.2367     0.80660E+02 
  57039.4989     0.79763E+02 
  57071.7610     0.78873E+02 
  57104.0232     0.77988E+02 
  57136.2854     0.77109E+02 
  57168.5475     0.76235E+02 
  57200.8097     0.75367E+02 
  57233.0718     0.74505E+02 
  57265.3340     0.73648E+02 
  57297.5962     0.72797E+02 
  57329.8583     0.71952E+02 
  57362.1205     0.71113E+02 
  57394.3826     0.70279E+02 
  57426.6448     0.69450E+02 
  57458.9070     0.68627E+02 
  57491.1691     0.67810E+02 
  57523.4313     0.66998E+02 
  57555.6934     0.66192E+02 
  57587.9556     0.65391E+02 
  57620.2178     0.64595E+02 
  57652.4799     0.63806E+02 
  57684.7421     0.63021E+02 
  57717.0042     0.62242E+02 
  57749.2664     0.61469E+02 
  57781.5286     0.60701E+02 
  57813.7907     0.59938E+02 
  57846.0529     0.59181E+02 
  57878.3150     0.58429E+02 
  57910.5772     0.57682E+02 
  57942.8394     0.56941E+02 
  57975.1015     0.56205E+02 
  58007.3637     0.55475E+02 
  58039.6258     0.54749E+02 
  58071.8880     0.54029E+02 
  58104.1502     0.53315E+02 
  58136.4123     0.52605E+02 
  58168.6745     0.51901E+02 
  58200.9366     0.51202E+02 
  58233.1988     0.50508E+02 
  58265.4610     0.49820E+02 
  58297.7231     0.49136E+02 
  58329.9853     0.48458E+02 
  58362.2474     0.47785E+02 
  58394.5096     0.47117E+02 
  58426.7718     0.46454E+02 
  58459.0339     0.45797E+02 
  58491.2961     0.45144E+02 
  58523.5582     0.44497E+02 
  58555.8204     0.43854E+02 
  58588.0826     0.43217E+02 
  58620.3447     0.42585E+02 
  58652.6069     0.41958E+02 
  58684.8690     0.41336E+02 
  58717.1312     0.40719E+02 
  58749.3934     0.40107E+02 
  58781.6555     0.39500E+02 
  58813.9177     0.38898E+02 
  58846.1798     0.38300E+02 
  58878.4420     0.37708E+02 
  58910.7042     0.37121E+02 
  58942.9663     0.36539E+02 
  58975.2285     0.35962E+02 
  59007.4906     0.35390E+02 
  59039.7528     0.34822E+02 
  59072.0150     0.34260E+02 
  59104.2771     0.33702E+02 
  59136.5393     0.33150E+02 
  59168.8014     0.32602E+02 
  59201.0636     0.32059E+02 
  59233.3258     0.31521E+02 
  59265.5879     0.30988E+02 
  59297.8501     0.30460E+02 
  59330.1122     0.29937E+02 
  59362.3744     0.29418E+02 
  59394.6366     0.28905E+02 
  59426.8987     0.28396E+02 
  59459.1609     0.27892E+02 
  59491.4230     0.27393E+02 
  59523.6852     0.26899E+02 
  59555.9474     0.26409E+02 
  59588.2095     0.25925E+02 
  59620.4717     0.25445E+02 
  59652.7338     0.24970E+02 
  59684.9960     0.24500E+02 
  59717.2582     0.24034E+02 
  59749.5203     0.23574E+02 
  59781.7825     0.23118E+02 
  59814.0446     0.22667E+02 
  59846.3068     0.22221E+02 
  59878.5690     0.21780E+02 
  59910.8311     0.21343E+02 
  59943.0933     0.20912E+02 
  59975.3554     0.20485E+02 
  60007.6176     0.20063E+02 
  60039.8798     0.19646E+02 
  60072.1419     0.19233E+02 
  60104.4041     0.18826E+02 
  60136.6662     0.18423E+02 
  60168.9284     0.18025E+02 
  60201.1906     0.17632E+02 
  60233.4527     0.17243E+02 
  60265.7149     0.16860E+02 
  60297.9770     0.16481E+02 
  60330.2392     0.16108E+02 
  60362.5014     0.15739E+02 
  60394.7635     0.15375E+02 
  60427.0257     0.15016E+02 
  60459.2878     0.14662E+02 
  60491.5500     0.14312E+02 
  60523.8122     0.13968E+02 
  60556.0743     0.13628E+02 
  60588.3365     0.13294E+02 
  60620.5986     0.12964E+02 
  60652.8608     0.12640E+02 
  60685.1230     0.12320E+02 
  60717.3851     0.12005E+02 
  60749.6473     0.11696E+02 
  60781.9094     0.11391E+02 
  60814.1716     0.11091E+02 
  60846.4338     0.10797E+02 
  60878.6959     0.10507E+02 
  60910.9581     0.10223E+02 
  60943.2202     0.99437E+01 
  60975.4824     0.96696E+01 
  61007.7446     0.94006E+01 
  61040.0067     0.91368E+01 
  61072.2689     0.88782E+01 
  61104.5310     0.86248E+01 
  61136.7932     0.83767E+01 
  61169.0554     0.81338E+01 
  61201.3175     0.78962E+01 
  61233.5797     0.76640E+01 
  61265.8418     0.74371E+01 
  61298.1040     0.72155E+01 
  61330.3662     0.69994E+01 
  61362.6283     0.67888E+01 
  61394.8905     0.65836E+01 
  61427.1526     0.63839E+01 
  61459.4148     0.61897E+01 
  61491.6770     0.60011E+01 
  61523.9391     0.58182E+01 
  61556.2013     0.56409E+01 
  61588.4634     0.54692E+01 
  61620.7256     0.53033E+01 
  61652.9878     0.51432E+01 
  61685.2499     0.49888E+01 
  61717.5121     0.48403E+01 
  61749.7742     0.46977E+01 
  61782.0364     0.45611E+01 
  61814.2986     0.44304E+01 
  61846.5607     0.43057E+01 
  61878.8229     0.41871E+01 
  61911.0850     0.40747E+01 
  61943.3472     0.39684E+01 
  61975.6094     0.38683E+01 
  62007.8715     0.37745E+01 
  62040.1337     0.36871E+01 
  62072.3958     0.36060E+01 
  62104.6580     0.35314E+01 
  62136.9202     0.34633E+01 
  62169.1823     0.34017E+01 
  62201.4445     0.33468E+01 
  62233.7066     0.32986E+01 
  62265.9688     0.32571E+01 
  62298.2310     0.32224E+01 
  62330.4931     0.31946E+01 
  62362.7553     0.31738E+01 
  62395.0174     0.31600E+01 
  62427.2796     0.31533E+01 
  62459.5418     0.31537E+01 
  62491.8039     0.31614E+01 
  62524.0661     0.31764E+01 
  62556.3282     0.31988E+01 
  62588.5904     0.32286E+01 
  62620.8526     0.32660E+01 
  62653.1147     0.33111E+01 
  62685.3769     0.33638E+01 
  62717.6390     0.34244E+01 
  62749.9012     0.34929E+01 
  62782.1634     0.35693E+01 
  62814.4255     0.36538E+01 
  62846.6877     0.37465E+01 
  62878.9498     0.38475E+01 
  62911.2120     0.39568E+01 
  62943.4742     0.40745E+01 
  62975.7363     0.42009E+01 
  63007.9985     0.43358E+01 
  63040.2606     0.44796E+01 
  63072.5228     0.46322E+01 
  63104.7850     0.47938E+01 
  63137.0471     0.49645E+01 
  63169.3093     0.51444E+01 
  63201.5714     0.53336E+01 
  63233.8336     0.55322E+01 
  63266.0958     0.57404E+01 
  63298.3579     0.59583E+01 
  63330.6201     0.61860E+01 
  63362.8822     0.64236E+01 
  63395.1444     0.66712E+01 
  63427.4066     0.69291E+01 
  63459.6687     0.71972E+01 
  63491.9309     0.74758E+01 
  63524.1930     0.77650E+01 
  63556.4552     0.80649E+01 
  63588.7174     0.83756E+01 
  63620.9795     0.86974E+01 
  63653.2417     0.90304E+01 
  63685.5038     0.93746E+01 
  63717.7660     0.97303E+01 
  63750.0282     0.10098E+02 
  63782.2903     0.10477E+02 
  63814.5525     0.10868E+02 
  63846.8146     0.11271E+02 
  63879.0768     0.11686E+02 
  63911.3390     0.12114E+02 
  63943.6011     0.12555E+02 
  63975.8633     0.13008E+02 
  64008.1254     0.13474E+02 
  64040.3876     0.13953E+02 
  64072.6498     0.14446E+02 
  64104.9119     0.14952E+02 
  64137.1741     0.15471E+02 
  64169.4362     0.16005E+02 
  64201.6984     0.16553E+02 
  64233.9606     0.17115E+02 
  64266.2227     0.17691E+02 
  64298.4849     0.18282E+02 
  64330.7470     0.18888E+02 
  64363.0092     0.19509E+02 
  64395.2714     0.20145E+02 
  64427.5335     0.20797E+02 
  64459.7957     0.21464E+02 
  64492.0578     0.22148E+02 
  64524.3200     0.22848E+02 
  64556.5822     0.23564E+02 
  64588.8443     0.24296E+02 
  64621.1065     0.25046E+02 
  64653.3686     0.25812E+02 
  64685.6308     0.26596E+02 
  64717.8930     0.27398E+02 
  64750.1551     0.28217E+02 
  64782.4173     0.29055E+02 
  64814.6794     0.29910E+02 
  64846.9416     0.30785E+02 
  64879.2038     0.31678E+02 
  64911.4659     0.32590E+02 
  64943.7281     0.33522E+02 
  64975.9902     0.34474E+02 
  65008.2524     0.35445E+02 
  65040.5146     0.36437E+02 
  65072.7767     0.37449E+02 
  65105.0389     0.38482E+02 
  65137.3010     0.39536E+02 
  65169.5632     0.40612E+02 
  65201.8254     0.41709E+02 
  65234.0875     0.42828E+02 
  65266.3497     0.43970E+02 
  65298.6118     0.45134E+02 
  65330.8740     0.46321E+02 
  65363.1362     0.47532E+02 
  65395.3983     0.48766E+02 
  65427.6605     0.50024E+02 
  65459.9226     0.51306E+02 
  65492.1848     0.52613E+02 
  65524.4470     0.53944E+02 
  65556.7091     0.55301E+02 
  65588.9713     0.56684E+02 
  65621.2334     0.58093E+02 
  65653.4956     0.59528E+02 
  65685.7578     0.60989E+02 
  65718.0199     0.62478E+02 
  65750.2821     0.63994E+02 
  65782.5442     0.65538E+02 
  65814.8064     0.67111E+02 
  65847.0686     0.68711E+02 
  65879.3307     0.70341E+02 
  65911.5929     0.72000E+02 
  65943.8550     0.73689E+02 
  65976.1172     0.75409E+02 
  66008.3794     0.77158E+02 
  66040.6415     0.78939E+02 
  66072.9037     0.80751E+02 
  66105.1658     0.82595E+02 
  66137.4280     0.84471E+02 
  66169.6902     0.86380E+02 
  66201.9523     0.88322E+02 
  66234.2145     0.90298E+02 
  66266.4766     0.92308E+02 
  66298.7388     0.94352E+02 
  66331.0010     0.96431E+02 
  66363.2631     0.98545E+02 
  66395.5253     0.10070E+03 
  66427.7874     0.10288E+03 
  66460.0496     0.10511E+03 
  66492.3118     0.10737E+03 
  66524.5739     0.10966E+03 
  66556.8361     0.11200E+03 
  66589.0982     0.11438E+03 
  66621.3604     0.11679E+03 
  66653.6226     0.11925E+03 
  66685.8847     0.12174E+03 
  66718.1469     0.12428E+03 
  66750.4090     0.12685E+03 
  66782.6712     0.12947E+03 
  66814.9334     0.13213E+03 
  66847.1955     0.13483E+03 
  66879.4577     0.13758E+03 
  66911.7198     0.14037E+03 
  66943.9820     0.14321E+03 
  66976.2442     0.14609E+03 
  67008.5063     0.14901E+03 
  67040.7685     0.15199E+03 
  67073.0306     0.15501E+03 
  67105.2928     0.15807E+03 
  67137.5550     0.16119E+03 
  67169.8171     0.16435E+03 
  67202.0793     0.16756E+03 
  67234.3414     0.17082E+03 
  67266.6036     0.17413E+03 
  67298.8658     0.17749E+03 
  67331.1279     0.18091E+03 
  67363.3901     0.18437E+03 
  67395.6522     0.18789E+03 
  67427.9144     0.19146E+03 
  67460.1766     0.19509E+03 
  67492.4387     0.19877E+03 
  67524.7009     0.20250E+03 
  67556.9630     0.20630E+03 
  67589.2252     0.21014E+03 
  67621.4874     0.21405E+03 
  67653.7495     0.21801E+03 
  67686.0117     0.22203E+03 
  67718.2738     0.22611E+03 
  67750.5360     0.23025E+03 
  67782.7982     0.23445E+03 
  67815.0603     0.23871E+03 
  67847.3225     0.24303E+03 
  67879.5846     0.24742E+03 
  67911.8468     0.25187E+03 
  67944.1090     0.25638E+03 
  67976.3711     0.26096E+03 
  68008.6333     0.26560E+03 
  68040.8954     0.27031E+03 
  68073.1576     0.27508E+03 
  68105.4198     0.27992E+03 
  68137.6819     0.28483E+03 
  68169.9441     0.28981E+03 
  68202.2062     0.29486E+03 
  68234.4684     0.29998E+03 
  68266.7306     0.30517E+03 
  68298.9927     0.31043E+03 
  68331.2549     0.31576E+03 
  68363.5170     0.32117E+03 
  68395.7792     0.32665E+03 
  68428.0414     0.33221E+03 
  68460.3035     0.33784E+03 
  68492.5657     0.34355E+03 
  68524.8278     0.34933E+03 
  68557.0900     0.35520E+03 
  68589.3522     0.36114E+03 
  68621.6143     0.36716E+03 
  68653.8765     0.37326E+03 
  68686.1386     0.37944E+03 
  68718.4008     0.38571E+03 
  68750.6630     0.39205E+03 
  68782.9251     0.39848E+03 
  68815.1873     0.40500E+03 
  68847.4494     0.41159E+03 
  68879.7116     0.41828E+03 
  68911.9738     0.42505E+03 
  68944.2359     0.43191E+03 
  68976.4981     0.43885E+03 
  69008.7602     0.44589E+03 
  69041.0224     0.45301E+03 
  69073.2846     0.46023E+03 
  69105.5467     0.46754E+03 
  69137.8089     0.47494E+03 
  69170.0710     0.48243E+03 
  69202.3332     0.49001E+03 
  69234.5954     0.49769E+03 
  69266.8575     0.50547E+03 
  69299.1197     0.51334E+03 
  69331.3818     0.52131E+03 
  69363.6440     0.52938E+03 
  69395.9062     0.53755E+03 
  69428.1683     0.54581E+03 
  69460.4305     0.55418E+03 
  69492.6926     0.56265E+03 
  69524.9548     0.57122E+03 
  69557.2170     0.57989E+03 
  69589.4791     0.58867E+03 
  69621.7413     0.59755E+03 
  69654.0034     0.60654E+03 
  69686.2656     0.61563E+03 
  69718.5278     0.62484E+03 
  69750.7899     0.63414E+03 
  69783.0521     0.64356E+03 
  69815.3142     0.65309E+03 
  69847.5764     0.66273E+03 
  69879.8386     0.67248E+03 
  69912.1007     0.68234E+03 
  69944.3629     0.69232E+03 
  69976.6250     0.70241E+03 
  70008.8872     0.71261E+03 
  70041.1494     0.72293E+03 
  70073.4115     0.73337E+03 
  70105.6737     0.74392E+03 
  70137.9358     0.75459E+03 
  70170.1980     0.76538E+03 
  70202.4602     0.77629E+03 
  70234.7223     0.78733E+03 
  70266.9845     0.79848E+03 
  70299.2466     0.80975E+03 
  70331.5088     0.82115E+03 
  70363.7710     0.83267E+03 
  70396.0331     0.84432E+03 
  70428.2953     0.85609E+03 
  70460.5574     0.86799E+03 
  70492.8196     0.88002E+03 
  70525.0818     0.89217E+03 
  70557.3439     0.90445E+03 
  70589.6061     0.91687E+03 
  70621.8682     0.92941E+03 
  70654.1304     0.94208E+03 
  70686.3926     0.95489E+03 
  70718.6547     0.96783E+03 
  70750.9169     0.98090E+03 
  70783.1790     0.99410E+03 
  70815.4412     0.10074E+04 
  70847.7034     0.10209E+04 
  70879.9655     0.10345E+04 
  70912.2277     0.10483E+04 
  70944.4898     0.10622E+04 
  70976.7520     0.10762E+04 
  71009.0142     0.10904E+04 
  71041.2763     0.11047E+04 
  71073.5385     0.11191E+04 
  71105.8006     0.11337E+04 
  71138.0628     0.11484E+04 
  71170.3250     0.11633E+04 
  71202.5871     0.11783E+04 
  71234.8493     0.11935E+04 
  71267.1114     0.12088E+04 
  71299.3736     0.12243E+04 
  71331.6358     0.12399E+04 
  71363.8979     0.12556E+04 
  71396.1601     0.12715E+04 
  71428.4222     0.12876E+04 
  71460.6844     0.13037E+04 
  71492.9466     0.13201E+04 
  71525.2087     0.13366E+04 
  71557.4709     0.13532E+04 
  71589.7330     0.13700E+04 
  71621.9952     0.13870E+04 
  71654.2574     0.14041E+04 
  71686.5195     0.14213E+04 
  71718.7817     0.14387E+04 
  71751.0438     0.14563E+04 
  71783.3060     0.14740E+04 
  71815.5682     0.14919E+04 
  71847.8303     0.15099E+04 
  71880.0925     0.15281E+04 
  71912.3546     0.15464E+04 
  71944.6168     0.15649E+04 
  71976.8790     0.15836E+04 
  72009.1411     0.16024E+04 
  72041.4033     0.16214E+04 
  72073.6654     0.16405E+04 
  72105.9276     0.16598E+04 
  72138.1898     0.16793E+04 
  72170.4519     0.16989E+04 
  72202.7141     0.17186E+04 
  72234.9762     0.17386E+04 
  72267.2384     0.17587E+04 
  72299.5006     0.17789E+04 
  72331.7627     0.17994E+04 
  72364.0249     0.18199E+04 
  72396.2870     0.18407E+04 
  72428.5492     0.18616E+04 
  72460.8114     0.18827E+04 
  72493.0735     0.19039E+04 
  72525.3357     0.19253E+04 
  72557.5978     0.19469E+04 
  72589.8600     0.19686E+04 
