  32262.1600     0.29179E+00 
  32294.4222     0.29493E+00 
  32326.6843     0.29809E+00 
  32358.9465     0.30128E+00 
  32391.2086     0.30449E+00 
  32423.4708     0.30771E+00 
  32455.7330     0.31096E+00 
  32487.9951     0.31424E+00 
  32520.2573     0.31753E+00 
  32552.5194     0.32084E+00 
  32584.7816     0.32418E+00 
  32617.0438     0.32754E+00 
  32649.3059     0.33092E+00 
  32681.5681     0.33432E+00 
  32713.8302     0.33774E+00 
  32746.0924     0.34118E+00 
  32778.3546     0.34464E+00 
  32810.6167     0.34813E+00 
  32842.8789     0.35163E+00 
  32875.1410     0.35516E+00 
  32907.4032     0.35871E+00 
  32939.6654     0.36228E+00 
  32971.9275     0.36587E+00 
  33004.1897     0.36948E+00 
  33036.4518     0.37311E+00 
  33068.7140     0.37676E+00 
  33100.9762     0.38043E+00 
  33133.2383     0.38413E+00 
  33165.5005     0.38784E+00 
  33197.7626     0.39157E+00 
  33230.0248     0.39533E+00 
  33262.2870     0.39910E+00 
  33294.5491     0.40290E+00 
  33326.8113     0.40671E+00 
  33359.0734     0.41055E+00 
  33391.3356     0.41440E+00 
  33423.5978     0.41828E+00 
  33455.8599     0.42217E+00 
  33488.1221     0.42608E+00 
  33520.3842     0.43002E+00 
  33552.6464     0.43397E+00 
  33584.9086     0.43794E+00 
  33617.1707     0.44193E+00 
  33649.4329     0.44594E+00 
  33681.6950     0.44997E+00 
  33713.9572     0.45402E+00 
  33746.2194     0.45809E+00 
  33778.4815     0.46217E+00 
  33810.7437     0.46628E+00 
  33843.0058     0.47040E+00 
  33875.2680     0.47454E+00 
  33907.5302     0.47870E+00 
  33939.7923     0.48288E+00 
  33972.0545     0.48707E+00 
  34004.3166     0.49129E+00 
  34036.5788     0.49552E+00 
  34068.8410     0.49976E+00 
  34101.1031     0.50403E+00 
  34133.3653     0.50831E+00 
  34165.6274     0.51261E+00 
  34197.8896     0.51693E+00 
  34230.1518     0.52126E+00 
  34262.4139     0.52561E+00 
  34294.6761     0.52997E+00 
  34326.9382     0.53436E+00 
  34359.2004     0.53875E+00 
  34391.4626     0.54317E+00 
  34423.7247     0.54760E+00 
  34455.9869     0.55204E+00 
  34488.2490     0.55650E+00 
  34520.5112     0.56098E+00 
  34552.7734     0.56547E+00 
  34585.0355     0.56997E+00 
  34617.2977     0.57449E+00 
  34649.5598     0.57903E+00 
  34681.8220     0.58358E+00 
  34714.0842     0.58814E+00 
  34746.3463     0.59272E+00 
  34778.6085     0.59731E+00 
  34810.8706     0.60191E+00 
  34843.1328     0.60653E+00 
  34875.3950     0.61116E+00 
  34907.6571     0.61580E+00 
  34939.9193     0.62046E+00 
  34972.1814     0.62513E+00 
  35004.4436     0.62981E+00 
  35036.7058     0.63450E+00 
  35068.9679     0.63921E+00 
  35101.2301     0.64393E+00 
  35133.4922     0.64865E+00 
  35165.7544     0.65339E+00 
  35198.0166     0.65814E+00 
  35230.2787     0.66290E+00 
  35262.5409     0.66768E+00 
  35294.8030     0.67246E+00 
  35327.0652     0.67725E+00 
  35359.3274     0.68205E+00 
  35391.5895     0.68686E+00 
  35423.8517     0.69168E+00 
  35456.1138     0.69651E+00 
  35488.3760     0.70135E+00 
  35520.6382     0.70620E+00 
  35552.9003     0.71106E+00 
  35585.1625     0.71592E+00 
  35617.4246     0.72079E+00 
  35649.6868     0.72567E+00 
  35681.9490     0.73056E+00 
  35714.2111     0.73545E+00 
  35746.4733     0.74035E+00 
  35778.7354     0.74526E+00 
  35810.9976     0.75018E+00 
  35843.2598     0.75510E+00 
  35875.5219     0.76002E+00 
  35907.7841     0.76495E+00 
  35940.0462     0.76989E+00 
  35972.3084     0.77483E+00 
  36004.5706     0.77978E+00 
  36036.8327     0.78473E+00 
  36069.0949     0.78969E+00 
  36101.3570     0.79465E+00 
  36133.6192     0.79961E+00 
  36165.8814     0.80458E+00 
  36198.1435     0.80955E+00 
  36230.4057     0.81452E+00 
  36262.6678     0.81949E+00 
  36294.9300     0.82447E+00 
  36327.1922     0.82945E+00 
  36359.4543     0.83443E+00 
  36391.7165     0.83942E+00 
  36423.9786     0.84440E+00 
  36456.2408     0.84939E+00 
  36488.5030     0.85437E+00 
  36520.7651     0.85936E+00 
  36553.0273     0.86435E+00 
  36585.2894     0.86933E+00 
  36617.5516     0.87432E+00 
  36649.8138     0.87930E+00 
  36682.0759     0.88429E+00 
  36714.3381     0.88927E+00 
  36746.6002     0.89425E+00 
  36778.8624     0.89923E+00 
  36811.1246     0.90421E+00 
  36843.3867     0.90918E+00 
  36875.6489     0.91415E+00 
  36907.9110     0.91912E+00 
  36940.1732     0.92409E+00 
  36972.4354     0.92905E+00 
  37004.6975     0.93401E+00 
  37036.9597     0.93896E+00 
  37069.2218     0.94391E+00 
  37101.4840     0.94885E+00 
  37133.7462     0.95379E+00 
  37166.0083     0.95872E+00 
  37198.2705     0.96365E+00 
  37230.5326     0.96857E+00 
  37262.7948     0.97348E+00 
  37295.0570     0.97839E+00 
  37327.3191     0.98329E+00 
  37359.5813     0.98818E+00 
  37391.8434     0.99307E+00 
  37424.1056     0.99795E+00 
  37456.3678     0.10028E+01 
  37488.6299     0.10077E+01 
  37520.8921     0.10125E+01 
  37553.1542     0.10174E+01 
  37585.4164     0.10222E+01 
  37617.6786     0.10270E+01 
  37649.9407     0.10318E+01 
  37682.2029     0.10366E+01 
  37714.4650     0.10414E+01 
  37746.7272     0.10462E+01 
  37778.9894     0.10510E+01 
  37811.2515     0.10558E+01 
  37843.5137     0.10605E+01 
  37875.7758     0.10652E+01 
  37908.0380     0.10700E+01 
  37940.3002     0.10747E+01 
  37972.5623     0.10794E+01 
  38004.8245     0.10841E+01 
  38037.0866     0.10887E+01 
  38069.3488     0.10934E+01 
  38101.6110     0.10980E+01 
  38133.8731     0.11026E+01 
  38166.1353     0.11073E+01 
  38198.3974     0.11119E+01 
  38230.6596     0.11164E+01 
  38262.9218     0.11210E+01 
  38295.1839     0.11256E+01 
  38327.4461     0.11301E+01 
  38359.7082     0.11346E+01 
  38391.9704     0.11391E+01 
  38424.2326     0.11436E+01 
  38456.4947     0.11481E+01 
  38488.7569     0.11525E+01 
  38521.0190     0.11570E+01 
  38553.2812     0.11614E+01 
  38585.5434     0.11658E+01 
  38617.8055     0.11701E+01 
  38650.0677     0.11745E+01 
  38682.3298     0.11788E+01 
  38714.5920     0.11832E+01 
  38746.8542     0.11875E+01 
  38779.1163     0.11917E+01 
  38811.3785     0.11960E+01 
  38843.6406     0.12002E+01 
  38875.9028     0.12044E+01 
  38908.1650     0.12086E+01 
  38940.4271     0.12128E+01 
  38972.6893     0.12170E+01 
  39004.9514     0.12211E+01 
  39037.2136     0.12252E+01 
  39069.4758     0.12293E+01 
  39101.7379     0.12333E+01 
  39134.0001     0.12374E+01 
  39166.2622     0.12414E+01 
  39198.5244     0.12454E+01 
  39230.7866     0.12494E+01 
  39263.0487     0.12533E+01 
  39295.3109     0.12572E+01 
  39327.5730     0.12611E+01 
  39359.8352     0.12650E+01 
  39392.0974     0.12688E+01 
  39424.3595     0.12727E+01 
  39456.6217     0.12765E+01 
  39488.8838     0.12802E+01 
  39521.1460     0.12840E+01 
  39553.4082     0.12877E+01 
  39585.6703     0.12914E+01 
  39617.9325     0.12951E+01 
  39650.1946     0.12987E+01 
  39682.4568     0.13023E+01 
  39714.7190     0.13059E+01 
  39746.9811     0.13094E+01 
  39779.2433     0.13130E+01 
  39811.5054     0.13165E+01 
  39843.7676     0.13199E+01 
  39876.0298     0.13234E+01 
  39908.2919     0.13268E+01 
  39940.5541     0.13302E+01 
  39972.8162     0.13335E+01 
  40005.0784     0.13369E+01 
  40037.3406     0.13402E+01 
  40069.6027     0.13434E+01 
  40101.8649     0.13467E+01 
  40134.1270     0.13499E+01 
  40166.3892     0.13531E+01 
  40198.6514     0.13562E+01 
  40230.9135     0.13593E+01 
  40263.1757     0.13624E+01 
  40295.4378     0.13655E+01 
  40327.7000     0.13685E+01 
  40359.9622     0.13715E+01 
  40392.2243     0.13745E+01 
  40424.4865     0.13774E+01 
  40456.7486     0.13803E+01 
  40489.0108     0.13832E+01 
  40521.2730     0.13860E+01 
  40553.5351     0.13888E+01 
  40585.7973     0.13916E+01 
  40618.0594     0.13943E+01 
  40650.3216     0.13970E+01 
  40682.5838     0.13997E+01 
  40714.8459     0.14023E+01 
  40747.1081     0.14049E+01 
  40779.3702     0.14075E+01 
  40811.6324     0.14100E+01 
  40843.8946     0.14125E+01 
  40876.1567     0.14150E+01 
  40908.4189     0.14174E+01 
  40940.6810     0.14198E+01 
  40972.9432     0.14222E+01 
  41005.2054     0.14246E+01 
  41037.4675     0.14269E+01 
  41069.7297     0.14291E+01 
  41101.9918     0.14314E+01 
  41134.2540     0.14336E+01 
  41166.5162     0.14357E+01 
  41198.7783     0.14378E+01 
  41231.0405     0.14399E+01 
  41263.3026     0.14420E+01 
  41295.5648     0.14440E+01 
  41327.8270     0.14460E+01 
  41360.0891     0.14479E+01 
  41392.3513     0.14499E+01 
  41424.6134     0.14517E+01 
  41456.8756     0.14536E+01 
  41489.1378     0.14554E+01 
  41521.3999     0.14572E+01 
  41553.6621     0.14589E+01 
  41585.9242     0.14606E+01 
  41618.1864     0.14623E+01 
  41650.4486     0.14639E+01 
  41682.7107     0.14655E+01 
  41714.9729     0.14670E+01 
  41747.2350     0.14686E+01 
  41779.4972     0.14701E+01 
  41811.7594     0.14715E+01 
  41844.0215     0.14729E+01 
  41876.2837     0.14743E+01 
  41908.5458     0.14756E+01 
  41940.8080     0.14769E+01 
  41973.0702     0.14782E+01 
  42005.3323     0.14794E+01 
  42037.5945     0.14806E+01 
  42069.8566     0.14818E+01 
  42102.1188     0.14829E+01 
  42134.3810     0.14840E+01 
  42166.6431     0.14850E+01 
  42198.9053     0.14860E+01 
  42231.1674     0.14870E+01 
  42263.4296     0.14879E+01 
  42295.6918     0.14888E+01 
  42327.9539     0.14897E+01 
  42360.2161     0.14905E+01 
  42392.4782     0.14913E+01 
  42424.7404     0.14920E+01 
  42457.0026     0.14927E+01 
  42489.2647     0.14934E+01 
  42521.5269     0.14940E+01 
  42553.7890     0.14946E+01 
  42586.0512     0.14952E+01 
  42618.3134     0.14957E+01 
  42650.5755     0.14962E+01 
  42682.8377     0.14967E+01 
  42715.0998     0.14971E+01 
  42747.3620     0.14975E+01 
  42779.6242     0.14978E+01 
  42811.8863     0.14981E+01 
  42844.1485     0.14984E+01 
  42876.4106     0.14986E+01 
  42908.6728     0.14988E+01 
  42940.9350     0.14990E+01 
  42973.1971     0.14991E+01 
  43005.4593     0.14992E+01 
  43037.7214     0.14992E+01 
  43069.9836     0.14992E+01 
  43102.2458     0.14992E+01 
  43134.5079     0.14992E+01 
  43166.7701     0.14991E+01 
  43199.0322     0.14989E+01 
  43231.2944     0.14988E+01 
  43263.5566     0.14986E+01 
  43295.8187     0.14983E+01 
  43328.0809     0.14980E+01 
  43360.3430     0.14977E+01 
  43392.6052     0.14974E+01 
  43424.8674     0.14970E+01 
  43457.1295     0.14966E+01 
  43489.3917     0.14961E+01 
  43521.6538     0.14956E+01 
  43553.9160     0.14951E+01 
  43586.1782     0.14945E+01 
  43618.4403     0.14939E+01 
  43650.7025     0.14933E+01 
  43682.9646     0.14926E+01 
  43715.2268     0.14919E+01 
  43747.4890     0.14912E+01 
  43779.7511     0.14904E+01 
  43812.0133     0.14896E+01 
  43844.2754     0.14888E+01 
  43876.5376     0.14879E+01 
  43908.7998     0.14870E+01 
  43941.0619     0.14861E+01 
  43973.3241     0.14851E+01 
  44005.5862     0.14841E+01 
  44037.8484     0.14830E+01 
  44070.1106     0.14820E+01 
  44102.3727     0.14808E+01 
  44134.6349     0.14797E+01 
  44166.8970     0.14785E+01 
  44199.1592     0.14773E+01 
  44231.4214     0.14761E+01 
  44263.6835     0.14748E+01 
  44295.9457     0.14735E+01 
  44328.2078     0.14721E+01 
  44360.4700     0.14708E+01 
  44392.7322     0.14694E+01 
  44424.9943     0.14679E+01 
  44457.2565     0.14664E+01 
  44489.5186     0.14649E+01 
  44521.7808     0.14634E+01 
  44554.0430     0.14618E+01 
  44586.3051     0.14602E+01 
  44618.5673     0.14586E+01 
  44650.8294     0.14569E+01 
  44683.0916     0.14553E+01 
  44715.3538     0.14535E+01 
  44747.6159     0.14518E+01 
  44779.8781     0.14500E+01 
  44812.1402     0.14482E+01 
  44844.4024     0.14463E+01 
  44876.6646     0.14445E+01 
  44908.9267     0.14426E+01 
  44941.1889     0.14406E+01 
  44973.4510     0.14387E+01 
  45005.7132     0.14367E+01 
  45037.9754     0.14346E+01 
  45070.2375     0.14326E+01 
  45102.4997     0.14305E+01 
  45134.7618     0.14284E+01 
  45167.0240     0.14263E+01 
  45199.2862     0.14241E+01 
  45231.5483     0.14219E+01 
  45263.8105     0.14197E+01 
  45296.0726     0.14174E+01 
  45328.3348     0.14151E+01 
  45360.5970     0.14128E+01 
  45392.8591     0.14105E+01 
  45425.1213     0.14081E+01 
  45457.3834     0.14058E+01 
  45489.6456     0.14033E+01 
  45521.9078     0.14009E+01 
  45554.1699     0.13984E+01 
  45586.4321     0.13959E+01 
  45618.6942     0.13934E+01 
  45650.9564     0.13909E+01 
  45683.2186     0.13883E+01 
  45715.4807     0.13857E+01 
  45747.7429     0.13831E+01 
  45780.0050     0.13805E+01 
  45812.2672     0.13778E+01 
  45844.5294     0.13751E+01 
  45876.7915     0.13724E+01 
  45909.0537     0.13696E+01 
  45941.3158     0.13669E+01 
  45973.5780     0.13641E+01 
  46005.8402     0.13613E+01 
  46038.1023     0.13584E+01 
  46070.3645     0.13556E+01 
  46102.6266     0.13527E+01 
  46134.8888     0.13498E+01 
  46167.1510     0.13468E+01 
  46199.4131     0.13439E+01 
  46231.6753     0.13409E+01 
  46263.9374     0.13379E+01 
  46296.1996     0.13349E+01 
  46328.4618     0.13319E+01 
  46360.7239     0.13288E+01 
  46392.9861     0.13257E+01 
  46425.2482     0.13226E+01 
  46457.5104     0.13195E+01 
  46489.7726     0.13164E+01 
  46522.0347     0.13132E+01 
  46554.2969     0.13100E+01 
  46586.5590     0.13068E+01 
  46618.8212     0.13036E+01 
  46651.0834     0.13004E+01 
  46683.3455     0.12971E+01 
  46715.6077     0.12938E+01 
  46747.8698     0.12905E+01 
  46780.1320     0.12872E+01 
  46812.3942     0.12839E+01 
  46844.6563     0.12805E+01 
  46876.9185     0.12771E+01 
  46909.1806     0.12738E+01 
  46941.4428     0.12703E+01 
  46973.7050     0.12669E+01 
  47005.9671     0.12635E+01 
  47038.2293     0.12600E+01 
  47070.4914     0.12566E+01 
  47102.7536     0.12531E+01 
  47135.0158     0.12496E+01 
  47167.2779     0.12460E+01 
  47199.5401     0.12425E+01 
  47231.8022     0.12389E+01 
  47264.0644     0.12354E+01 
  47296.3266     0.12318E+01 
  47328.5887     0.12282E+01 
  47360.8509     0.12246E+01 
  47393.1130     0.12209E+01 
  47425.3752     0.12173E+01 
  47457.6374     0.12136E+01 
  47489.8995     0.12100E+01 
  47522.1617     0.12063E+01 
  47554.4238     0.12026E+01 
  47586.6860     0.11989E+01 
  47618.9482     0.11952E+01 
  47651.2103     0.11914E+01 
  47683.4725     0.11877E+01 
  47715.7346     0.11839E+01 
  47747.9968     0.11801E+01 
  47780.2590     0.11764E+01 
  47812.5211     0.11726E+01 
  47844.7833     0.11688E+01 
  47877.0454     0.11649E+01 
  47909.3076     0.11611E+01 
  47941.5698     0.11573E+01 
  47973.8319     0.11534E+01 
  48006.0941     0.11495E+01 
  48038.3562     0.11457E+01 
  48070.6184     0.11418E+01 
  48102.8806     0.11379E+01 
  48135.1427     0.11340E+01 
  48167.4049     0.11301E+01 
  48199.6670     0.11262E+01 
  48231.9292     0.11222E+01 
  48264.1914     0.11183E+01 
  48296.4535     0.11143E+01 
  48328.7157     0.11104E+01 
  48360.9778     0.11064E+01 
  48393.2400     0.11025E+01 
  48425.5022     0.10985E+01 
  48457.7643     0.10945E+01 
  48490.0265     0.10905E+01 
  48522.2886     0.10865E+01 
  48554.5508     0.10825E+01 
  48586.8130     0.10785E+01 
  48619.0751     0.10744E+01 
  48651.3373     0.10704E+01 
  48683.5994     0.10664E+01 
  48715.8616     0.10623E+01 
  48748.1238     0.10583E+01 
  48780.3859     0.10542E+01 
  48812.6481     0.10502E+01 
  48844.9102     0.10461E+01 
  48877.1724     0.10421E+01 
  48909.4346     0.10380E+01 
  48941.6967     0.10339E+01 
  48973.9589     0.10298E+01 
  49006.2210     0.10257E+01 
  49038.4832     0.10216E+01 
  49070.7454     0.10175E+01 
  49103.0075     0.10134E+01 
  49135.2697     0.10093E+01 
  49167.5318     0.10052E+01 
  49199.7940     0.10011E+01 
  49232.0562     0.99702E+00 
  49264.3183     0.99291E+00 
  49296.5805     0.98879E+00 
  49328.8426     0.98467E+00 
  49361.1048     0.98055E+00 
  49393.3670     0.97642E+00 
  49425.6291     0.97229E+00 
  49457.8913     0.96817E+00 
  49490.1534     0.96404E+00 
  49522.4156     0.95991E+00 
  49554.6778     0.95577E+00 
  49586.9399     0.95164E+00 
  49619.2021     0.94751E+00 
  49651.4642     0.94337E+00 
  49683.7264     0.93923E+00 
  49715.9886     0.93510E+00 
  49748.2507     0.93096E+00 
  49780.5129     0.92682E+00 
  49812.7750     0.92269E+00 
  49845.0372     0.91855E+00 
  49877.2994     0.91442E+00 
  49909.5615     0.91028E+00 
  49941.8237     0.90614E+00 
  49974.0858     0.90201E+00 
  50006.3480     0.89788E+00 
  50038.6102     0.89375E+00 
  50070.8723     0.88962E+00 
  50103.1345     0.88549E+00 
  50135.3966     0.88136E+00 
  50167.6588     0.87723E+00 
  50199.9210     0.87311E+00 
  50232.1831     0.86899E+00 
  50264.4453     0.86487E+00 
  50296.7074     0.86075E+00 
  50328.9696     0.85664E+00 
  50361.2318     0.85252E+00 
  50393.4939     0.84842E+00 
  50425.7561     0.84431E+00 
  50458.0182     0.84021E+00 
  50490.2804     0.83611E+00 
  50522.5426     0.83201E+00 
  50554.8047     0.82792E+00 
  50587.0669     0.82383E+00 
  50619.3290     0.81974E+00 
  50651.5912     0.81566E+00 
  50683.8534     0.81158E+00 
  50716.1155     0.80751E+00 
  50748.3777     0.80344E+00 
  50780.6398     0.79938E+00 
  50812.9020     0.79532E+00 
  50845.1642     0.79126E+00 
  50877.4263     0.78721E+00 
  50909.6885     0.78316E+00 
  50941.9506     0.77912E+00 
  50974.2128     0.77509E+00 
  51006.4750     0.77106E+00 
  51038.7371     0.76703E+00 
  51070.9993     0.76301E+00 
  51103.2614     0.75900E+00 
  51135.5236     0.75499E+00 
  51167.7858     0.75099E+00 
  51200.0479     0.74700E+00 
  51232.3101     0.74301E+00 
  51264.5722     0.73902E+00 
  51296.8344     0.73505E+00 
  51329.0966     0.73108E+00 
  51361.3587     0.72711E+00 
  51393.6209     0.72315E+00 
  51425.8830     0.71920E+00 
  51458.1452     0.71526E+00 
  51490.4074     0.71132E+00 
  51522.6695     0.70739E+00 
  51554.9317     0.70347E+00 
  51587.1938     0.69956E+00 
  51619.4560     0.69565E+00 
  51651.7182     0.69175E+00 
  51683.9803     0.68786E+00 
  51716.2425     0.68397E+00 
  51748.5046     0.68010E+00 
  51780.7668     0.67623E+00 
  51813.0290     0.67237E+00 
  51845.2911     0.66851E+00 
  51877.5533     0.66467E+00 
  51909.8154     0.66083E+00 
  51942.0776     0.65700E+00 
  51974.3398     0.65318E+00 
  52006.6019     0.64937E+00 
  52038.8641     0.64557E+00 
  52071.1262     0.64178E+00 
  52103.3884     0.63799E+00 
  52135.6506     0.63421E+00 
  52167.9127     0.63045E+00 
  52200.1749     0.62669E+00 
  52232.4370     0.62294E+00 
  52264.6992     0.61920E+00 
  52296.9614     0.61547E+00 
  52329.2235     0.61175E+00 
  52361.4857     0.60803E+00 
  52393.7478     0.60433E+00 
  52426.0100     0.60064E+00 
  52458.2722     0.59695E+00 
  52490.5343     0.59328E+00 
  52522.7965     0.58962E+00 
  52555.0586     0.58596E+00 
  52587.3208     0.58232E+00 
  52619.5830     0.57868E+00 
  52651.8451     0.57506E+00 
  52684.1073     0.57145E+00 
  52716.3694     0.56784E+00 
  52748.6316     0.56425E+00 
  52780.8938     0.56066E+00 
  52813.1559     0.55709E+00 
  52845.4181     0.55353E+00 
  52877.6802     0.54997E+00 
  52909.9424     0.54643E+00 
  52942.2046     0.54290E+00 
  52974.4667     0.53938E+00 
  53006.7289     0.53587E+00 
  53038.9910     0.53237E+00 
  53071.2532     0.52888E+00 
  53103.5154     0.52540E+00 
  53135.7775     0.52194E+00 
  53168.0397     0.51848E+00 
  53200.3018     0.51504E+00 
  53232.5640     0.51160E+00 
  53264.8262     0.50818E+00 
  53297.0883     0.50477E+00 
  53329.3505     0.50137E+00 
  53361.6126     0.49798E+00 
  53393.8748     0.49460E+00 
  53426.1370     0.49123E+00 
  53458.3991     0.48787E+00 
  53490.6613     0.48453E+00 
  53522.9234     0.48120E+00 
  53555.1856     0.47788E+00 
  53587.4478     0.47457E+00 
  53619.7099     0.47127E+00 
  53651.9721     0.46798E+00 
  53684.2342     0.46470E+00 
  53716.4964     0.46144E+00 
  53748.7586     0.45819E+00 
  53781.0207     0.45495E+00 
  53813.2829     0.45172E+00 
  53845.5450     0.44850E+00 
  53877.8072     0.44530E+00 
  53910.0694     0.44210E+00 
  53942.3315     0.43892E+00 
  53974.5937     0.43575E+00 
  54006.8558     0.43259E+00 
  54039.1180     0.42944E+00 
  54071.3802     0.42631E+00 
  54103.6423     0.42319E+00 
  54135.9045     0.42008E+00 
  54168.1666     0.41698E+00 
  54200.4288     0.41389E+00 
  54232.6910     0.41082E+00 
  54264.9531     0.40776E+00 
  54297.2153     0.40470E+00 
  54329.4774     0.40167E+00 
  54361.7396     0.39864E+00 
  54394.0018     0.39563E+00 
  54426.2639     0.39262E+00 
  54458.5261     0.38963E+00 
  54490.7882     0.38666E+00 
  54523.0504     0.38369E+00 
  54555.3126     0.38074E+00 
  54587.5747     0.37780E+00 
  54619.8369     0.37487E+00 
  54652.0990     0.37195E+00 
  54684.3612     0.36905E+00 
  54716.6234     0.36615E+00 
  54748.8855     0.36327E+00 
  54781.1477     0.36040E+00 
  54813.4098     0.35755E+00 
  54845.6720     0.35471E+00 
  54877.9342     0.35187E+00 
  54910.1963     0.34906E+00 
  54942.4585     0.34625E+00 
  54974.7206     0.34346E+00 
  55006.9828     0.34067E+00 
  55039.2450     0.33790E+00 
  55071.5071     0.33515E+00 
  55103.7693     0.33240E+00 
  55136.0314     0.32967E+00 
  55168.2936     0.32695E+00 
  55200.5558     0.32424E+00 
  55232.8179     0.32154E+00 
  55265.0801     0.31886E+00 
  55297.3422     0.31619E+00 
  55329.6044     0.31353E+00 
  55361.8666     0.31088E+00 
  55394.1287     0.30825E+00 
  55426.3909     0.30563E+00 
  55458.6530     0.30302E+00 
  55490.9152     0.30042E+00 
  55523.1774     0.29783E+00 
  55555.4395     0.29526E+00 
  55587.7017     0.29270E+00 
  55619.9638     0.29015E+00 
  55652.2260     0.28761E+00 
  55684.4882     0.28509E+00 
  55716.7503     0.28258E+00 
  55749.0125     0.28008E+00 
  55781.2746     0.27759E+00 
  55813.5368     0.27512E+00 
  55845.7990     0.27265E+00 
  55878.0611     0.27020E+00 
  55910.3233     0.26776E+00 
  55942.5854     0.26534E+00 
  55974.8476     0.26292E+00 
  56007.1098     0.26052E+00 
  56039.3719     0.25813E+00 
  56071.6341     0.25575E+00 
  56103.8962     0.25339E+00 
  56136.1584     0.25103E+00 
  56168.4206     0.24869E+00 
  56200.6827     0.24636E+00 
  56232.9449     0.24405E+00 
  56265.2070     0.24174E+00 
  56297.4692     0.23945E+00 
  56329.7314     0.23716E+00 
  56361.9935     0.23490E+00 
  56394.2557     0.23264E+00 
  56426.5178     0.23039E+00 
  56458.7800     0.22816E+00 
  56491.0422     0.22594E+00 
  56523.3043     0.22373E+00 
  56555.5665     0.22153E+00 
  56587.8286     0.21934E+00 
  56620.0908     0.21717E+00 
  56652.3530     0.21501E+00 
  56684.6151     0.21286E+00 
  56716.8773     0.21072E+00 
  56749.1394     0.20859E+00 
  56781.4016     0.20648E+00 
  56813.6638     0.20438E+00 
  56845.9259     0.20228E+00 
  56878.1881     0.20020E+00 
  56910.4502     0.19814E+00 
  56942.7124     0.19608E+00 
  56974.9746     0.19404E+00 
  57007.2367     0.19200E+00 
  57039.4989     0.18998E+00 
  57071.7610     0.18797E+00 
  57104.0232     0.18597E+00 
  57136.2854     0.18399E+00 
  57168.5475     0.18201E+00 
  57200.8097     0.18005E+00 
  57233.0718     0.17810E+00 
  57265.3340     0.17616E+00 
  57297.5962     0.17423E+00 
  57329.8583     0.17231E+00 
  57362.1205     0.17041E+00 
  57394.3826     0.16851E+00 
  57426.6448     0.16663E+00 
  57458.9070     0.16476E+00 
  57491.1691     0.16290E+00 
  57523.4313     0.16105E+00 
  57555.6934     0.15921E+00 
  57587.9556     0.15738E+00 
  57620.2178     0.15557E+00 
  57652.4799     0.15377E+00 
  57684.7421     0.15197E+00 
  57717.0042     0.15019E+00 
  57749.2664     0.14842E+00 
  57781.5286     0.14666E+00 
  57813.7907     0.14492E+00 
  57846.0529     0.14318E+00 
  57878.3150     0.14145E+00 
  57910.5772     0.13974E+00 
  57942.8394     0.13804E+00 
  57975.1015     0.13635E+00 
  58007.3637     0.13466E+00 
  58039.6258     0.13299E+00 
  58071.8880     0.13134E+00 
  58104.1502     0.12969E+00 
  58136.4123     0.12805E+00 
  58168.6745     0.12643E+00 
  58200.9366     0.12481E+00 
  58233.1988     0.12321E+00 
  58265.4610     0.12161E+00 
  58297.7231     0.12003E+00 
  58329.9853     0.11846E+00 
  58362.2474     0.11690E+00 
  58394.5096     0.11535E+00 
  58426.7718     0.11381E+00 
  58459.0339     0.11229E+00 
  58491.2961     0.11077E+00 
  58523.5582     0.10926E+00 
  58555.8204     0.10777E+00 
  58588.0826     0.10628E+00 
  58620.3447     0.10481E+00 
  58652.6069     0.10335E+00 
  58684.8690     0.10190E+00 
  58717.1312     0.10045E+00 
  58749.3934     0.99024E-01 
  58781.6555     0.97605E-01 
  58813.9177     0.96196E-01 
  58846.1798     0.94797E-01 
  58878.4420     0.93410E-01 
  58910.7042     0.92033E-01 
  58942.9663     0.90667E-01 
  58975.2285     0.89311E-01 
  59007.4906     0.87966E-01 
  59039.7528     0.86632E-01 
  59072.0150     0.85308E-01 
  59104.2771     0.83995E-01 
  59136.5393     0.82693E-01 
  59168.8014     0.81402E-01 
  59201.0636     0.80121E-01 
  59233.3258     0.78850E-01 
  59265.5879     0.77591E-01 
  59297.8501     0.76342E-01 
  59330.1122     0.75103E-01 
  59362.3744     0.73876E-01 
  59394.6366     0.72659E-01 
  59426.8987     0.71452E-01 
  59459.1609     0.70256E-01 
  59491.4230     0.69071E-01 
  59523.6852     0.67897E-01 
  59555.9474     0.66733E-01 
  59588.2095     0.65580E-01 
  59620.4717     0.64437E-01 
  59652.7338     0.63306E-01 
  59684.9960     0.62185E-01 
  59717.2582     0.61074E-01 
  59749.5203     0.59975E-01 
  59781.7825     0.58886E-01 
  59814.0446     0.57808E-01 
  59846.3068     0.56740E-01 
  59878.5690     0.55684E-01 
  59910.8311     0.54638E-01 
  59943.0933     0.53603E-01 
  59975.3554     0.52579E-01 
  60007.6176     0.51565E-01 
  60039.8798     0.50563E-01 
  60072.1419     0.49571E-01 
  60104.4041     0.48591E-01 
  60136.6662     0.47621E-01 
  60168.9284     0.46662E-01 
  60201.1906     0.45714E-01 
  60233.4527     0.44778E-01 
  60265.7149     0.43852E-01 
  60297.9770     0.42937E-01 
  60330.2392     0.42034E-01 
  60362.5014     0.41142E-01 
  60394.7635     0.40260E-01 
  60427.0257     0.39390E-01 
  60459.2878     0.38532E-01 
  60491.5500     0.37684E-01 
  60523.8122     0.36848E-01 
  60556.0743     0.36024E-01 
  60588.3365     0.35210E-01 
  60620.5986     0.34409E-01 
  60652.8608     0.33618E-01 
  60685.1230     0.32840E-01 
  60717.3851     0.32073E-01 
  60749.6473     0.31317E-01 
  60781.9094     0.30574E-01 
  60814.1716     0.29842E-01 
  60846.4338     0.29122E-01 
  60878.6959     0.28414E-01 
  60910.9581     0.27717E-01 
  60943.2202     0.27033E-01 
  60975.4824     0.26361E-01 
  61007.7446     0.25701E-01 
  61040.0067     0.25054E-01 
  61072.2689     0.24419E-01 
  61104.5310     0.23796E-01 
  61136.7932     0.23185E-01 
  61169.0554     0.22587E-01 
  61201.3175     0.22002E-01 
  61233.5797     0.21430E-01 
  61265.8418     0.20870E-01 
  61298.1040     0.20323E-01 
  61330.3662     0.19789E-01 
  61362.6283     0.19268E-01 
  61394.8905     0.18761E-01 
  61427.1526     0.18266E-01 
  61459.4148     0.17785E-01 
  61491.6770     0.17317E-01 
  61523.9391     0.16863E-01 
  61556.2013     0.16423E-01 
  61588.4634     0.15997E-01 
  61620.7256     0.15584E-01 
  61652.9878     0.15185E-01 
  61685.2499     0.14801E-01 
  61717.5121     0.14431E-01 
  61749.7742     0.14075E-01 
  61782.0364     0.13734E-01 
  61814.2986     0.13407E-01 
  61846.5607     0.13095E-01 
  61878.8229     0.12798E-01 
  61911.0850     0.12517E-01 
  61943.3472     0.12250E-01 
  61975.6094     0.11999E-01 
  62007.8715     0.11763E-01 
  62040.1337     0.11543E-01 
  62072.3958     0.11339E-01 
  62104.6580     0.11151E-01 
  62136.9202     0.10979E-01 
  62169.1823     0.10823E-01 
  62201.4445     0.10684E-01 
  62233.7066     0.10561E-01 
  62265.9688     0.10455E-01 
  62298.2310     0.10367E-01 
  62330.4931     0.10295E-01 
  62362.7553     0.10241E-01 
  62395.0174     0.10205E-01 
  62427.2796     0.10186E-01 
  62459.5418     0.10186E-01 
  62491.8039     0.10204E-01 
  62524.0661     0.10240E-01 
  62556.3282     0.10295E-01 
  62588.5904     0.10368E-01 
  62620.8526     0.10461E-01 
  62653.1147     0.10573E-01 
  62685.3769     0.10705E-01 
  62717.6390     0.10856E-01 
  62749.9012     0.11028E-01 
  62782.1634     0.11220E-01 
  62814.4255     0.11432E-01 
  62846.6877     0.11666E-01 
  62878.9498     0.11920E-01 
  62911.2120     0.12196E-01 
  62943.4742     0.12493E-01 
  62975.7363     0.12812E-01 
  63007.9985     0.13154E-01 
  63040.2606     0.13518E-01 
  63072.5228     0.13904E-01 
  63104.7850     0.14314E-01 
  63137.0471     0.14747E-01 
  63169.3093     0.15204E-01 
  63201.5714     0.15685E-01 
  63233.8336     0.16190E-01 
  63266.0958     0.16720E-01 
  63298.3579     0.17275E-01 
  63330.6201     0.17855E-01 
  63362.8822     0.18461E-01 
  63395.1444     0.19093E-01 
  63427.4066     0.19751E-01 
  63459.6687     0.20436E-01 
  63491.9309     0.21148E-01 
  63524.1930     0.21888E-01 
  63556.4552     0.22655E-01 
  63588.7174     0.23451E-01 
  63620.9795     0.24275E-01 
  63653.2417     0.25129E-01 
  63685.5038     0.26012E-01 
  63717.7660     0.26925E-01 
  63750.0282     0.27868E-01 
  63782.2903     0.28842E-01 
  63814.5525     0.29847E-01 
  63846.8146     0.30884E-01 
  63879.0768     0.31952E-01 
  63911.3390     0.33054E-01 
  63943.6011     0.34188E-01 
  63975.8633     0.35356E-01 
  64008.1254     0.36558E-01 
  64040.3876     0.37794E-01 
  64072.6498     0.39065E-01 
  64104.9119     0.40371E-01 
  64137.1741     0.41714E-01 
  64169.4362     0.43093E-01 
  64201.6984     0.44509E-01 
  64233.9606     0.45962E-01 
  64266.2227     0.47454E-01 
  64298.4849     0.48984E-01 
  64330.7470     0.50553E-01 
  64363.0092     0.52162E-01 
  64395.2714     0.53812E-01 
  64427.5335     0.55502E-01 
  64459.7957     0.57234E-01 
  64492.0578     0.59008E-01 
  64524.3200     0.60824E-01 
  64556.5822     0.62684E-01 
  64588.8443     0.64588E-01 
  64621.1065     0.66536E-01 
  64653.3686     0.68530E-01 
  64685.6308     0.70569E-01 
  64717.8930     0.72655E-01 
  64750.1551     0.74789E-01 
  64782.4173     0.76970E-01 
  64814.6794     0.79199E-01 
  64846.9416     0.81478E-01 
  64879.2038     0.83807E-01 
  64911.4659     0.86187E-01 
  64943.7281     0.88618E-01 
  64975.9902     0.91101E-01 
  65008.2524     0.93637E-01 
  65040.5146     0.96227E-01 
  65072.7767     0.98871E-01 
  65105.0389     0.10157E+00 
  65137.3010     0.10433E+00 
  65169.5632     0.10714E+00 
  65201.8254     0.11001E+00 
  65234.0875     0.11294E+00 
  65266.3497     0.11592E+00 
  65298.6118     0.11897E+00 
  65330.8740     0.12208E+00 
  65363.1362     0.12525E+00 
  65395.3983     0.12848E+00 
  65427.6605     0.13178E+00 
  65459.9226     0.13514E+00 
  65492.1848     0.13856E+00 
  65524.4470     0.14206E+00 
  65556.7091     0.14562E+00 
  65588.9713     0.14924E+00 
  65621.2334     0.15294E+00 
  65653.4956     0.15671E+00 
  65685.7578     0.16054E+00 
  65718.0199     0.16445E+00 
  65750.2821     0.16843E+00 
  65782.5442     0.17249E+00 
  65814.8064     0.17662E+00 
  65847.0686     0.18083E+00 
  65879.3307     0.18511E+00 
  65911.5929     0.18947E+00 
  65943.8550     0.19391E+00 
  65976.1172     0.19843E+00 
  66008.3794     0.20303E+00 
  66040.6415     0.20771E+00 
  66072.9037     0.21248E+00 
  66105.1658     0.21733E+00 
  66137.4280     0.22227E+00 
  66169.6902     0.22729E+00 
  66201.9523     0.23240E+00 
  66234.2145     0.23760E+00 
  66266.4766     0.24289E+00 
  66298.7388     0.24827E+00 
  66331.0010     0.25375E+00 
  66363.2631     0.25931E+00 
  66395.5253     0.26497E+00 
  66427.7874     0.27073E+00 
  66460.0496     0.27659E+00 
  66492.3118     0.28254E+00 
  66524.5739     0.28859E+00 
  66556.8361     0.29475E+00 
  66589.0982     0.30100E+00 
  66621.3604     0.30736E+00 
  66653.6226     0.31383E+00 
  66685.8847     0.32040E+00 
  66718.1469     0.32708E+00 
  66750.4090     0.33387E+00 
  66782.6712     0.34076E+00 
  66814.9334     0.34777E+00 
  66847.1955     0.35489E+00 
  66879.4577     0.36213E+00 
  66911.7198     0.36948E+00 
  66943.9820     0.37695E+00 
  66976.2442     0.38453E+00 
  67008.5063     0.39224E+00 
  67040.7685     0.40007E+00 
  67073.0306     0.40802E+00 
  67105.2928     0.41609E+00 
  67137.5550     0.42429E+00 
  67169.8171     0.43262E+00 
  67202.0793     0.44107E+00 
  67234.3414     0.44966E+00 
  67266.6036     0.45838E+00 
  67298.8658     0.46723E+00 
  67331.1279     0.47621E+00 
  67363.3901     0.48533E+00 
  67395.6522     0.49459E+00 
  67427.9144     0.50398E+00 
  67460.1766     0.51352E+00 
  67492.4387     0.52320E+00 
  67524.7009     0.53302E+00 
  67556.9630     0.54299E+00 
  67589.2252     0.55311E+00 
  67621.4874     0.56337E+00 
  67653.7495     0.57378E+00 
  67686.0117     0.58435E+00 
  67718.2738     0.59507E+00 
  67750.5360     0.60594E+00 
  67782.7982     0.61697E+00 
  67815.0603     0.62816E+00 
  67847.3225     0.63951E+00 
  67879.5846     0.65102E+00 
  67911.8468     0.66270E+00 
  67944.1090     0.67454E+00 
  67976.3711     0.68654E+00 
  68008.6333     0.69872E+00 
  68040.8954     0.71106E+00 
  68073.1576     0.72358E+00 
  68105.4198     0.73627E+00 
  68137.6819     0.74913E+00 
  68169.9441     0.76217E+00 
  68202.2062     0.77540E+00 
  68234.4684     0.78880E+00 
  68266.7306     0.80238E+00 
  68298.9927     0.81615E+00 
  68331.2549     0.83010E+00 
  68363.5170     0.84424E+00 
  68395.7792     0.85857E+00 
  68428.0414     0.87309E+00 
  68460.3035     0.88781E+00 
  68492.5657     0.90272E+00 
  68524.8278     0.91782E+00 
  68557.0900     0.93313E+00 
  68589.3522     0.94863E+00 
  68621.6143     0.96434E+00 
  68653.8765     0.98024E+00 
  68686.1386     0.99636E+00 
  68718.4008     0.10127E+01 
  68750.6630     0.10292E+01 
  68782.9251     0.10460E+01 
  68815.1873     0.10629E+01 
  68847.4494     0.10801E+01 
  68879.7116     0.10975E+01 
  68911.9738     0.11151E+01 
  68944.2359     0.11329E+01 
  68976.4981     0.11509E+01 
  69008.7602     0.11692E+01 
  69041.0224     0.11877E+01 
  69073.2846     0.12064E+01 
  69105.5467     0.12254E+01 
  69137.8089     0.12446E+01 
  69170.0710     0.12640E+01 
  69202.3332     0.12836E+01 
  69234.5954     0.13035E+01 
  69266.8575     0.13237E+01 
  69299.1197     0.13440E+01 
  69331.3818     0.13646E+01 
  69363.6440     0.13855E+01 
  69395.9062     0.14066E+01 
  69428.1683     0.14279E+01 
  69460.4305     0.14495E+01 
  69492.6926     0.14714E+01 
  69524.9548     0.14935E+01 
  69557.2170     0.15158E+01 
  69589.4791     0.15384E+01 
  69621.7413     0.15613E+01 
  69654.0034     0.15844E+01 
  69686.2656     0.16078E+01 
  69718.5278     0.16315E+01 
  69750.7899     0.16554E+01 
  69783.0521     0.16796E+01 
  69815.3142     0.17040E+01 
  69847.5764     0.17288E+01 
  69879.8386     0.17538E+01 
  69912.1007     0.17790E+01 
  69944.3629     0.18046E+01 
  69976.6250     0.18304E+01 
  70008.8872     0.18565E+01 
  70041.1494     0.18829E+01 
  70073.4115     0.19096E+01 
  70105.6737     0.19366E+01 
  70137.9358     0.19638E+01 
  70170.1980     0.19913E+01 
  70202.4602     0.20191E+01 
  70234.7223     0.20473E+01 
  70266.9845     0.20757E+01 
  70299.2466     0.21044E+01 
  70331.5088     0.21333E+01 
  70363.7710     0.21626E+01 
  70396.0331     0.21922E+01 
  70428.2953     0.22221E+01 
  70460.5574     0.22523E+01 
  70492.8196     0.22828E+01 
  70525.0818     0.23136E+01 
  70557.3439     0.23447E+01 
  70589.6061     0.23761E+01 
  70621.8682     0.24079E+01 
  70654.1304     0.24399E+01 
  70686.3926     0.24722E+01 
  70718.6547     0.25049E+01 
  70750.9169     0.25379E+01 
  70783.1790     0.25712E+01 
  70815.4412     0.26048E+01 
  70847.7034     0.26387E+01 
  70879.9655     0.26730E+01 
  70912.2277     0.27076E+01 
  70944.4898     0.27425E+01 
  70976.7520     0.27777E+01 
  71009.0142     0.28132E+01 
  71041.2763     0.28491E+01 
  71073.5385     0.28853E+01 
  71105.8006     0.29218E+01 
  71138.0628     0.29587E+01 
  71170.3250     0.29959E+01 
  71202.5871     0.30334E+01 
  71234.8493     0.30713E+01 
  71267.1114     0.31095E+01 
  71299.3736     0.31480E+01 
  71331.6358     0.31869E+01 
  71363.8979     0.32261E+01 
  71396.1601     0.32657E+01 
  71428.4222     0.33055E+01 
  71460.6844     0.33458E+01 
  71492.9466     0.33863E+01 
  71525.2087     0.34272E+01 
  71557.4709     0.34685E+01 
  71589.7330     0.35101E+01 
  71621.9952     0.35520E+01 
  71654.2574     0.35943E+01 
  71686.5195     0.36370E+01 
  71718.7817     0.36800E+01 
  71751.0438     0.37233E+01 
  71783.3060     0.37670E+01 
  71815.5682     0.38110E+01 
  71847.8303     0.38554E+01 
  71880.0925     0.39001E+01 
  71912.3546     0.39452E+01 
  71944.6168     0.39906E+01 
  71976.8790     0.40364E+01 
  72009.1411     0.40825E+01 
  72041.4033     0.41290E+01 
  72073.6654     0.41758E+01 
  72105.9276     0.42230E+01 
  72138.1898     0.42706E+01 
  72170.4519     0.43185E+01 
  72202.7141     0.43667E+01 
  72234.9762     0.44153E+01 
  72267.2384     0.44643E+01 
  72299.5006     0.45136E+01 
  72331.7627     0.45632E+01 
  72364.0249     0.46133E+01 
  72396.2870     0.46636E+01 
  72428.5492     0.47144E+01 
  72460.8114     0.47654E+01 
  72493.0735     0.48169E+01 
  72525.3357     0.48687E+01 
  72557.5978     0.49208E+01 
  72589.8600     0.49733E+01 
