  32262.1600     0.84648E+02 
  32294.4222     0.85706E+02 
  32326.6843     0.86774E+02 
  32358.9465     0.87850E+02 
  32391.2086     0.88936E+02 
  32423.4708     0.90031E+02 
  32455.7330     0.91135E+02 
  32487.9951     0.92248E+02 
  32520.2573     0.93370E+02 
  32552.5194     0.94502E+02 
  32584.7816     0.95642E+02 
  32617.0438     0.96792E+02 
  32649.3059     0.97951E+02 
  32681.5681     0.99119E+02 
  32713.8302     0.10030E+03 
  32746.0924     0.10148E+03 
  32778.3546     0.10268E+03 
  32810.6167     0.10388E+03 
  32842.8789     0.10510E+03 
  32875.1410     0.10632E+03 
  32907.4032     0.10755E+03 
  32939.6654     0.10879E+03 
  32971.9275     0.11004E+03 
  33004.1897     0.11130E+03 
  33036.4518     0.11257E+03 
  33068.7140     0.11385E+03 
  33100.9762     0.11514E+03 
  33133.2383     0.11643E+03 
  33165.5005     0.11774E+03 
  33197.7626     0.11905E+03 
  33230.0248     0.12037E+03 
  33262.2870     0.12171E+03 
  33294.5491     0.12305E+03 
  33326.8113     0.12440E+03 
  33359.0734     0.12576E+03 
  33391.3356     0.12713E+03 
  33423.5978     0.12850E+03 
  33455.8599     0.12989E+03 
  33488.1221     0.13128E+03 
  33520.3842     0.13269E+03 
  33552.6464     0.13410E+03 
  33584.9086     0.13552E+03 
  33617.1707     0.13695E+03 
  33649.4329     0.13839E+03 
  33681.6950     0.13983E+03 
  33713.9572     0.14129E+03 
  33746.2194     0.14275E+03 
  33778.4815     0.14423E+03 
  33810.7437     0.14571E+03 
  33843.0058     0.14720E+03 
  33875.2680     0.14870E+03 
  33907.5302     0.15020E+03 
  33939.7923     0.15172E+03 
  33972.0545     0.15324E+03 
  34004.3166     0.15477E+03 
  34036.5788     0.15631E+03 
  34068.8410     0.15786E+03 
  34101.1031     0.15942E+03 
  34133.3653     0.16098E+03 
  34165.6274     0.16255E+03 
  34197.8896     0.16413E+03 
  34230.1518     0.16572E+03 
  34262.4139     0.16731E+03 
  34294.6761     0.16892E+03 
  34326.9382     0.17053E+03 
  34359.2004     0.17215E+03 
  34391.4626     0.17377E+03 
  34423.7247     0.17541E+03 
  34455.9869     0.17705E+03 
  34488.2490     0.17870E+03 
  34520.5112     0.18035E+03 
  34552.7734     0.18201E+03 
  34585.0355     0.18368E+03 
  34617.2977     0.18536E+03 
  34649.5598     0.18704E+03 
  34681.8220     0.18874E+03 
  34714.0842     0.19043E+03 
  34746.3463     0.19214E+03 
  34778.6085     0.19385E+03 
  34810.8706     0.19557E+03 
  34843.1328     0.19729E+03 
  34875.3950     0.19902E+03 
  34907.6571     0.20076E+03 
  34939.9193     0.20250E+03 
  34972.1814     0.20425E+03 
  35004.4436     0.20600E+03 
  35036.7058     0.20777E+03 
  35068.9679     0.20953E+03 
  35101.2301     0.21131E+03 
  35133.4922     0.21308E+03 
  35165.7544     0.21487E+03 
  35198.0166     0.21666E+03 
  35230.2787     0.21845E+03 
  35262.5409     0.22025E+03 
  35294.8030     0.22206E+03 
  35327.0652     0.22387E+03 
  35359.3274     0.22569E+03 
  35391.5895     0.22751E+03 
  35423.8517     0.22933E+03 
  35456.1138     0.23116E+03 
  35488.3760     0.23300E+03 
  35520.6382     0.23484E+03 
  35552.9003     0.23668E+03 
  35585.1625     0.23853E+03 
  35617.4246     0.24038E+03 
  35649.6868     0.24224E+03 
  35681.9490     0.24410E+03 
  35714.2111     0.24596E+03 
  35746.4733     0.24783E+03 
  35778.7354     0.24970E+03 
  35810.9976     0.25157E+03 
  35843.2598     0.25345E+03 
  35875.5219     0.25533E+03 
  35907.7841     0.25722E+03 
  35940.0462     0.25910E+03 
  35972.3084     0.26099E+03 
  36004.5706     0.26289E+03 
  36036.8327     0.26478E+03 
  36069.0949     0.26668E+03 
  36101.3570     0.26858E+03 
  36133.6192     0.27048E+03 
  36165.8814     0.27239E+03 
  36198.1435     0.27429E+03 
  36230.4057     0.27620E+03 
  36262.6678     0.27811E+03 
  36294.9300     0.28002E+03 
  36327.1922     0.28194E+03 
  36359.4543     0.28385E+03 
  36391.7165     0.28577E+03 
  36423.9786     0.28768E+03 
  36456.2408     0.28960E+03 
  36488.5030     0.29152E+03 
  36520.7651     0.29344E+03 
  36553.0273     0.29536E+03 
  36585.2894     0.29728E+03 
  36617.5516     0.29920E+03 
  36649.8138     0.30112E+03 
  36682.0759     0.30304E+03 
  36714.3381     0.30496E+03 
  36746.6002     0.30688E+03 
  36778.8624     0.30880E+03 
  36811.1246     0.31072E+03 
  36843.3867     0.31264E+03 
  36875.6489     0.31456E+03 
  36907.9110     0.31647E+03 
  36940.1732     0.31839E+03 
  36972.4354     0.32030E+03 
  37004.6975     0.32222E+03 
  37036.9597     0.32413E+03 
  37069.2218     0.32604E+03 
  37101.4840     0.32795E+03 
  37133.7462     0.32985E+03 
  37166.0083     0.33175E+03 
  37198.2705     0.33366E+03 
  37230.5326     0.33556E+03 
  37262.7948     0.33745E+03 
  37295.0570     0.33935E+03 
  37327.3191     0.34124E+03 
  37359.5813     0.34312E+03 
  37391.8434     0.34501E+03 
  37424.1056     0.34689E+03 
  37456.3678     0.34877E+03 
  37488.6299     0.35064E+03 
  37520.8921     0.35252E+03 
  37553.1542     0.35438E+03 
  37585.4164     0.35625E+03 
  37617.6786     0.35811E+03 
  37649.9407     0.35996E+03 
  37682.2029     0.36181E+03 
  37714.4650     0.36366E+03 
  37746.7272     0.36550E+03 
  37778.9894     0.36733E+03 
  37811.2515     0.36917E+03 
  37843.5137     0.37099E+03 
  37875.7758     0.37281E+03 
  37908.0380     0.37463E+03 
  37940.3002     0.37644E+03 
  37972.5623     0.37824E+03 
  38004.8245     0.38004E+03 
  38037.0866     0.38183E+03 
  38069.3488     0.38362E+03 
  38101.6110     0.38540E+03 
  38133.8731     0.38718E+03 
  38166.1353     0.38894E+03 
  38198.3974     0.39070E+03 
  38230.6596     0.39246E+03 
  38262.9218     0.39420E+03 
  38295.1839     0.39594E+03 
  38327.4461     0.39768E+03 
  38359.7082     0.39940E+03 
  38391.9704     0.40112E+03 
  38424.2326     0.40283E+03 
  38456.4947     0.40453E+03 
  38488.7569     0.40623E+03 
  38521.0190     0.40791E+03 
  38553.2812     0.40959E+03 
  38585.5434     0.41126E+03 
  38617.8055     0.41293E+03 
  38650.0677     0.41458E+03 
  38682.3298     0.41622E+03 
  38714.5920     0.41786E+03 
  38746.8542     0.41949E+03 
  38779.1163     0.42110E+03 
  38811.3785     0.42271E+03 
  38843.6406     0.42431E+03 
  38875.9028     0.42590E+03 
  38908.1650     0.42748E+03 
  38940.4271     0.42905E+03 
  38972.6893     0.43061E+03 
  39004.9514     0.43216E+03 
  39037.2136     0.43371E+03 
  39069.4758     0.43524E+03 
  39101.7379     0.43676E+03 
  39134.0001     0.43827E+03 
  39166.2622     0.43977E+03 
  39198.5244     0.44125E+03 
  39230.7866     0.44273E+03 
  39263.0487     0.44420E+03 
  39295.3109     0.44566E+03 
  39327.5730     0.44710E+03 
  39359.8352     0.44854E+03 
  39392.0974     0.44996E+03 
  39424.3595     0.45137E+03 
  39456.6217     0.45277E+03 
  39488.8838     0.45416E+03 
  39521.1460     0.45553E+03 
  39553.4082     0.45690E+03 
  39585.6703     0.45825E+03 
  39617.9325     0.45959E+03 
  39650.1946     0.46092E+03 
  39682.4568     0.46224E+03 
  39714.7190     0.46354E+03 
  39746.9811     0.46483E+03 
  39779.2433     0.46611E+03 
  39811.5054     0.46738E+03 
  39843.7676     0.46863E+03 
  39876.0298     0.46987E+03 
  39908.2919     0.47110E+03 
  39940.5541     0.47231E+03 
  39972.8162     0.47352E+03 
  40005.0784     0.47470E+03 
  40037.3406     0.47588E+03 
  40069.6027     0.47704E+03 
  40101.8649     0.47819E+03 
  40134.1270     0.47933E+03 
  40166.3892     0.48045E+03 
  40198.6514     0.48155E+03 
  40230.9135     0.48265E+03 
  40263.1757     0.48373E+03 
  40295.4378     0.48480E+03 
  40327.7000     0.48585E+03 
  40359.9622     0.48689E+03 
  40392.2243     0.48791E+03 
  40424.4865     0.48892E+03 
  40456.7486     0.48992E+03 
  40489.0108     0.49090E+03 
  40521.2730     0.49187E+03 
  40553.5351     0.49282E+03 
  40585.7973     0.49376E+03 
  40618.0594     0.49468E+03 
  40650.3216     0.49559E+03 
  40682.5838     0.49649E+03 
  40714.8459     0.49736E+03 
  40747.1081     0.49823E+03 
  40779.3702     0.49908E+03 
  40811.6324     0.49992E+03 
  40843.8946     0.50074E+03 
  40876.1567     0.50154E+03 
  40908.4189     0.50233E+03 
  40940.6810     0.50311E+03 
  40972.9432     0.50387E+03 
  41005.2054     0.50461E+03 
  41037.4675     0.50534E+03 
  41069.7297     0.50606E+03 
  41101.9918     0.50676E+03 
  41134.2540     0.50744E+03 
  41166.5162     0.50811E+03 
  41198.7783     0.50876E+03 
  41231.0405     0.50940E+03 
  41263.3026     0.51002E+03 
  41295.5648     0.51063E+03 
  41327.8270     0.51122E+03 
  41360.0891     0.51180E+03 
  41392.3513     0.51236E+03 
  41424.6134     0.51290E+03 
  41456.8756     0.51343E+03 
  41489.1378     0.51395E+03 
  41521.3999     0.51444E+03 
  41553.6621     0.51493E+03 
  41585.9242     0.51539E+03 
  41618.1864     0.51584E+03 
  41650.4486     0.51628E+03 
  41682.7107     0.51670E+03 
  41714.9729     0.51710E+03 
  41747.2350     0.51749E+03 
  41779.4972     0.51786E+03 
  41811.7594     0.51822E+03 
  41844.0215     0.51856E+03 
  41876.2837     0.51889E+03 
  41908.5458     0.51920E+03 
  41940.8080     0.51949E+03 
  41973.0702     0.51977E+03 
  42005.3323     0.52003E+03 
  42037.5945     0.52028E+03 
  42069.8566     0.52051E+03 
  42102.1188     0.52072E+03 
  42134.3810     0.52092E+03 
  42166.6431     0.52110E+03 
  42198.9053     0.52127E+03 
  42231.1674     0.52142E+03 
  42263.4296     0.52156E+03 
  42295.6918     0.52168E+03 
  42327.9539     0.52179E+03 
  42360.2161     0.52188E+03 
  42392.4782     0.52195E+03 
  42424.7404     0.52201E+03 
  42457.0026     0.52205E+03 
  42489.2647     0.52208E+03 
  42521.5269     0.52209E+03 
  42553.7890     0.52209E+03 
  42586.0512     0.52207E+03 
  42618.3134     0.52204E+03 
  42650.5755     0.52199E+03 
  42682.8377     0.52192E+03 
  42715.0998     0.52184E+03 
  42747.3620     0.52175E+03 
  42779.6242     0.52164E+03 
  42811.8863     0.52151E+03 
  42844.1485     0.52137E+03 
  42876.4106     0.52121E+03 
  42908.6728     0.52104E+03 
  42940.9350     0.52085E+03 
  42973.1971     0.52065E+03 
  43005.4593     0.52044E+03 
  43037.7214     0.52021E+03 
  43069.9836     0.51996E+03 
  43102.2458     0.51970E+03 
  43134.5079     0.51942E+03 
  43166.7701     0.51913E+03 
  43199.0322     0.51883E+03 
  43231.2944     0.51851E+03 
  43263.5566     0.51817E+03 
  43295.8187     0.51782E+03 
  43328.0809     0.51746E+03 
  43360.3430     0.51708E+03 
  43392.6052     0.51669E+03 
  43424.8674     0.51629E+03 
  43457.1295     0.51586E+03 
  43489.3917     0.51543E+03 
  43521.6538     0.51498E+03 
  43553.9160     0.51452E+03 
  43586.1782     0.51404E+03 
  43618.4403     0.51355E+03 
  43650.7025     0.51305E+03 
  43682.9646     0.51253E+03 
  43715.2268     0.51200E+03 
  43747.4890     0.51145E+03 
  43779.7511     0.51089E+03 
  43812.0133     0.51032E+03 
  43844.2754     0.50973E+03 
  43876.5376     0.50914E+03 
  43908.7998     0.50852E+03 
  43941.0619     0.50790E+03 
  43973.3241     0.50726E+03 
  44005.5862     0.50661E+03 
  44037.8484     0.50594E+03 
  44070.1106     0.50526E+03 
  44102.3727     0.50457E+03 
  44134.6349     0.50387E+03 
  44166.8970     0.50315E+03 
  44199.1592     0.50243E+03 
  44231.4214     0.50168E+03 
  44263.6835     0.50093E+03 
  44295.9457     0.50017E+03 
  44328.2078     0.49939E+03 
  44360.4700     0.49860E+03 
  44392.7322     0.49780E+03 
  44424.9943     0.49698E+03 
  44457.2565     0.49615E+03 
  44489.5186     0.49532E+03 
  44521.7808     0.49447E+03 
  44554.0430     0.49361E+03 
  44586.3051     0.49273E+03 
  44618.5673     0.49185E+03 
  44650.8294     0.49095E+03 
  44683.0916     0.49005E+03 
  44715.3538     0.48913E+03 
  44747.6159     0.48820E+03 
  44779.8781     0.48726E+03 
  44812.1402     0.48631E+03 
  44844.4024     0.48535E+03 
  44876.6646     0.48437E+03 
  44908.9267     0.48339E+03 
  44941.1889     0.48239E+03 
  44973.4510     0.48139E+03 
  45005.7132     0.48038E+03 
  45037.9754     0.47935E+03 
  45070.2375     0.47832E+03 
  45102.4997     0.47727E+03 
  45134.7618     0.47621E+03 
  45167.0240     0.47515E+03 
  45199.2862     0.47407E+03 
  45231.5483     0.47299E+03 
  45263.8105     0.47190E+03 
  45296.0726     0.47079E+03 
  45328.3348     0.46968E+03 
  45360.5970     0.46856E+03 
  45392.8591     0.46743E+03 
  45425.1213     0.46628E+03 
  45457.3834     0.46514E+03 
  45489.6456     0.46398E+03 
  45521.9078     0.46281E+03 
  45554.1699     0.46163E+03 
  45586.4321     0.46045E+03 
  45618.6942     0.45926E+03 
  45650.9564     0.45805E+03 
  45683.2186     0.45684E+03 
  45715.4807     0.45563E+03 
  45747.7429     0.45440E+03 
  45780.0050     0.45317E+03 
  45812.2672     0.45192E+03 
  45844.5294     0.45068E+03 
  45876.7915     0.44942E+03 
  45909.0537     0.44815E+03 
  45941.3158     0.44688E+03 
  45973.5780     0.44560E+03 
  46005.8402     0.44431E+03 
  46038.1023     0.44302E+03 
  46070.3645     0.44172E+03 
  46102.6266     0.44041E+03 
  46134.8888     0.43909E+03 
  46167.1510     0.43777E+03 
  46199.4131     0.43644E+03 
  46231.6753     0.43511E+03 
  46263.9374     0.43377E+03 
  46296.1996     0.43242E+03 
  46328.4618     0.43107E+03 
  46360.7239     0.42970E+03 
  46392.9861     0.42834E+03 
  46425.2482     0.42697E+03 
  46457.5104     0.42559E+03 
  46489.7726     0.42420E+03 
  46522.0347     0.42281E+03 
  46554.2969     0.42142E+03 
  46586.5590     0.42002E+03 
  46618.8212     0.41861E+03 
  46651.0834     0.41720E+03 
  46683.3455     0.41578E+03 
  46715.6077     0.41436E+03 
  46747.8698     0.41294E+03 
  46780.1320     0.41150E+03 
  46812.3942     0.41007E+03 
  46844.6563     0.40863E+03 
  46876.9185     0.40718E+03 
  46909.1806     0.40573E+03 
  46941.4428     0.40428E+03 
  46973.7050     0.40282E+03 
  47005.9671     0.40136E+03 
  47038.2293     0.39989E+03 
  47070.4914     0.39842E+03 
  47102.7536     0.39695E+03 
  47135.0158     0.39547E+03 
  47167.2779     0.39398E+03 
  47199.5401     0.39250E+03 
  47231.8022     0.39101E+03 
  47264.0644     0.38952E+03 
  47296.3266     0.38802E+03 
  47328.5887     0.38652E+03 
  47360.8509     0.38502E+03 
  47393.1130     0.38352E+03 
  47425.3752     0.38201E+03 
  47457.6374     0.38050E+03 
  47489.8995     0.37898E+03 
  47522.1617     0.37747E+03 
  47554.4238     0.37595E+03 
  47586.6860     0.37443E+03 
  47618.9482     0.37290E+03 
  47651.2103     0.37138E+03 
  47683.4725     0.36985E+03 
  47715.7346     0.36832E+03 
  47747.9968     0.36679E+03 
  47780.2590     0.36525E+03 
  47812.5211     0.36372E+03 
  47844.7833     0.36218E+03 
  47877.0454     0.36064E+03 
  47909.3076     0.35910E+03 
  47941.5698     0.35755E+03 
  47973.8319     0.35601E+03 
  48006.0941     0.35446E+03 
  48038.3562     0.35292E+03 
  48070.6184     0.35137E+03 
  48102.8806     0.34982E+03 
  48135.1427     0.34827E+03 
  48167.4049     0.34672E+03 
  48199.6670     0.34517E+03 
  48231.9292     0.34362E+03 
  48264.1914     0.34206E+03 
  48296.4535     0.34051E+03 
  48328.7157     0.33896E+03 
  48360.9778     0.33740E+03 
  48393.2400     0.33585E+03 
  48425.5022     0.33429E+03 
  48457.7643     0.33274E+03 
  48490.0265     0.33118E+03 
  48522.2886     0.32963E+03 
  48554.5508     0.32807E+03 
  48586.8130     0.32652E+03 
  48619.0751     0.32496E+03 
  48651.3373     0.32341E+03 
  48683.5994     0.32185E+03 
  48715.8616     0.32030E+03 
  48748.1238     0.31874E+03 
  48780.3859     0.31719E+03 
  48812.6481     0.31564E+03 
  48844.9102     0.31409E+03 
  48877.1724     0.31254E+03 
  48909.4346     0.31099E+03 
  48941.6967     0.30944E+03 
  48973.9589     0.30789E+03 
  49006.2210     0.30634E+03 
  49038.4832     0.30480E+03 
  49070.7454     0.30325E+03 
  49103.0075     0.30171E+03 
  49135.2697     0.30017E+03 
  49167.5318     0.29863E+03 
  49199.7940     0.29709E+03 
  49232.0562     0.29555E+03 
  49264.3183     0.29401E+03 
  49296.5805     0.29248E+03 
  49328.8426     0.29095E+03 
  49361.1048     0.28942E+03 
  49393.3670     0.28789E+03 
  49425.6291     0.28636E+03 
  49457.8913     0.28483E+03 
  49490.1534     0.28331E+03 
  49522.4156     0.28179E+03 
  49554.6778     0.28027E+03 
  49586.9399     0.27875E+03 
  49619.2021     0.27724E+03 
  49651.4642     0.27573E+03 
  49683.7264     0.27422E+03 
  49715.9886     0.27271E+03 
  49748.2507     0.27120E+03 
  49780.5129     0.26970E+03 
  49812.7750     0.26820E+03 
  49845.0372     0.26670E+03 
  49877.2994     0.26521E+03 
  49909.5615     0.26372E+03 
  49941.8237     0.26223E+03 
  49974.0858     0.26074E+03 
  50006.3480     0.25926E+03 
  50038.6102     0.25778E+03 
  50070.8723     0.25630E+03 
  50103.1345     0.25483E+03 
  50135.3966     0.25336E+03 
  50167.6588     0.25189E+03 
  50199.9210     0.25042E+03 
  50232.1831     0.24896E+03 
  50264.4453     0.24750E+03 
  50296.7074     0.24605E+03 
  50328.9696     0.24459E+03 
  50361.2318     0.24314E+03 
  50393.4939     0.24170E+03 
  50425.7561     0.24026E+03 
  50458.0182     0.23882E+03 
  50490.2804     0.23738E+03 
  50522.5426     0.23595E+03 
  50554.8047     0.23453E+03 
  50587.0669     0.23310E+03 
  50619.3290     0.23168E+03 
  50651.5912     0.23027E+03 
  50683.8534     0.22885E+03 
  50716.1155     0.22744E+03 
  50748.3777     0.22604E+03 
  50780.6398     0.22464E+03 
  50812.9020     0.22324E+03 
  50845.1642     0.22185E+03 
  50877.4263     0.22046E+03 
  50909.6885     0.21907E+03 
  50941.9506     0.21769E+03 
  50974.2128     0.21632E+03 
  51006.4750     0.21494E+03 
  51038.7371     0.21357E+03 
  51070.9993     0.21221E+03 
  51103.2614     0.21085E+03 
  51135.5236     0.20949E+03 
  51167.7858     0.20814E+03 
  51200.0479     0.20679E+03 
  51232.3101     0.20545E+03 
  51264.5722     0.20411E+03 
  51296.8344     0.20278E+03 
  51329.0966     0.20145E+03 
  51361.3587     0.20012E+03 
  51393.6209     0.19880E+03 
  51425.8830     0.19748E+03 
  51458.1452     0.19617E+03 
  51490.4074     0.19486E+03 
  51522.6695     0.19356E+03 
  51554.9317     0.19226E+03 
  51587.1938     0.19097E+03 
  51619.4560     0.18968E+03 
  51651.7182     0.18839E+03 
  51683.9803     0.18711E+03 
  51716.2425     0.18584E+03 
  51748.5046     0.18457E+03 
  51780.7668     0.18330E+03 
  51813.0290     0.18204E+03 
  51845.2911     0.18079E+03 
  51877.5533     0.17953E+03 
  51909.8154     0.17829E+03 
  51942.0776     0.17704E+03 
  51974.3398     0.17581E+03 
  52006.6019     0.17457E+03 
  52038.8641     0.17335E+03 
  52071.1262     0.17212E+03 
  52103.3884     0.17091E+03 
  52135.6506     0.16969E+03 
  52167.9127     0.16849E+03 
  52200.1749     0.16728E+03 
  52232.4370     0.16608E+03 
  52264.6992     0.16489E+03 
  52296.9614     0.16370E+03 
  52329.2235     0.16252E+03 
  52361.4857     0.16134E+03 
  52393.7478     0.16017E+03 
  52426.0100     0.15900E+03 
  52458.2722     0.15783E+03 
  52490.5343     0.15668E+03 
  52522.7965     0.15552E+03 
  52555.0586     0.15437E+03 
  52587.3208     0.15323E+03 
  52619.5830     0.15209E+03 
  52651.8451     0.15096E+03 
  52684.1073     0.14983E+03 
  52716.3694     0.14871E+03 
  52748.6316     0.14759E+03 
  52780.8938     0.14648E+03 
  52813.1559     0.14537E+03 
  52845.4181     0.14427E+03 
  52877.6802     0.14317E+03 
  52909.9424     0.14207E+03 
  52942.2046     0.14099E+03 
  52974.4667     0.13990E+03 
  53006.7289     0.13883E+03 
  53038.9910     0.13775E+03 
  53071.2532     0.13669E+03 
  53103.5154     0.13562E+03 
  53135.7775     0.13457E+03 
  53168.0397     0.13352E+03 
  53200.3018     0.13247E+03 
  53232.5640     0.13143E+03 
  53264.8262     0.13039E+03 
  53297.0883     0.12936E+03 
  53329.3505     0.12833E+03 
  53361.6126     0.12731E+03 
  53393.8748     0.12629E+03 
  53426.1370     0.12528E+03 
  53458.3991     0.12428E+03 
  53490.6613     0.12327E+03 
  53522.9234     0.12228E+03 
  53555.1856     0.12129E+03 
  53587.4478     0.12030E+03 
  53619.7099     0.11932E+03 
  53651.9721     0.11835E+03 
  53684.2342     0.11737E+03 
  53716.4964     0.11641E+03 
  53748.7586     0.11545E+03 
  53781.0207     0.11449E+03 
  53813.2829     0.11354E+03 
  53845.5450     0.11260E+03 
  53877.8072     0.11166E+03 
  53910.0694     0.11072E+03 
  53942.3315     0.10979E+03 
  53974.5937     0.10887E+03 
  54006.8558     0.10795E+03 
  54039.1180     0.10703E+03 
  54071.3802     0.10612E+03 
  54103.6423     0.10522E+03 
  54135.9045     0.10431E+03 
  54168.1666     0.10342E+03 
  54200.4288     0.10253E+03 
  54232.6910     0.10164E+03 
  54264.9531     0.10076E+03 
  54297.2153     0.99888E+02 
  54329.4774     0.99017E+02 
  54361.7396     0.98151E+02 
  54394.0018     0.97291E+02 
  54426.2639     0.96435E+02 
  54458.5261     0.95584E+02 
  54490.7882     0.94738E+02 
  54523.0504     0.93897E+02 
  54555.3126     0.93060E+02 
  54587.5747     0.92229E+02 
  54619.8369     0.91402E+02 
  54652.0990     0.90580E+02 
  54684.3612     0.89763E+02 
  54716.6234     0.88951E+02 
  54748.8855     0.88144E+02 
  54781.1477     0.87341E+02 
  54813.4098     0.86543E+02 
  54845.6720     0.85750E+02 
  54877.9342     0.84962E+02 
  54910.1963     0.84178E+02 
  54942.4585     0.83399E+02 
  54974.7206     0.82625E+02 
  55006.9828     0.81855E+02 
  55039.2450     0.81091E+02 
  55071.5071     0.80330E+02 
  55103.7693     0.79575E+02 
  55136.0314     0.78824E+02 
  55168.2936     0.78078E+02 
  55200.5558     0.77336E+02 
  55232.8179     0.76599E+02 
  55265.0801     0.75867E+02 
  55297.3422     0.75139E+02 
  55329.6044     0.74416E+02 
  55361.8666     0.73697E+02 
  55394.1287     0.72983E+02 
  55426.3909     0.72273E+02 
  55458.6530     0.71568E+02 
  55490.9152     0.70867E+02 
  55523.1774     0.70171E+02 
  55555.4395     0.69479E+02 
  55587.7017     0.68792E+02 
  55619.9638     0.68109E+02 
  55652.2260     0.67431E+02 
  55684.4882     0.66757E+02 
  55716.7503     0.66087E+02 
  55749.0125     0.65422E+02 
  55781.2746     0.64761E+02 
  55813.5368     0.64104E+02 
  55845.7990     0.63452E+02 
  55878.0611     0.62804E+02 
  55910.3233     0.62160E+02 
  55942.5854     0.61521E+02 
  55974.8476     0.60885E+02 
  56007.1098     0.60255E+02 
  56039.3719     0.59628E+02 
  56071.6341     0.59005E+02 
  56103.8962     0.58387E+02 
  56136.1584     0.57773E+02 
  56168.4206     0.57163E+02 
  56200.6827     0.56557E+02 
  56232.9449     0.55956E+02 
  56265.2070     0.55358E+02 
  56297.4692     0.54765E+02 
  56329.7314     0.54176E+02 
  56361.9935     0.53590E+02 
  56394.2557     0.53009E+02 
  56426.5178     0.52432E+02 
  56458.7800     0.51859E+02 
  56491.0422     0.51290E+02 
  56523.3043     0.50724E+02 
  56555.5665     0.50163E+02 
  56587.8286     0.49606E+02 
  56620.0908     0.49053E+02 
  56652.3530     0.48503E+02 
  56684.6151     0.47958E+02 
  56716.8773     0.47416E+02 
  56749.1394     0.46879E+02 
  56781.4016     0.46345E+02 
  56813.6638     0.45815E+02 
  56845.9259     0.45289E+02 
  56878.1881     0.44766E+02 
  56910.4502     0.44248E+02 
  56942.7124     0.43733E+02 
  56974.9746     0.43222E+02 
  57007.2367     0.42715E+02 
  57039.4989     0.42211E+02 
  57071.7610     0.41711E+02 
  57104.0232     0.41215E+02 
  57136.2854     0.40723E+02 
  57168.5475     0.40234E+02 
  57200.8097     0.39749E+02 
  57233.0718     0.39267E+02 
  57265.3340     0.38790E+02 
  57297.5962     0.38315E+02 
  57329.8583     0.37845E+02 
  57362.1205     0.37377E+02 
  57394.3826     0.36914E+02 
  57426.6448     0.36454E+02 
  57458.9070     0.35997E+02 
  57491.1691     0.35544E+02 
  57523.4313     0.35095E+02 
  57555.6934     0.34649E+02 
  57587.9556     0.34206E+02 
  57620.2178     0.33767E+02 
  57652.4799     0.33331E+02 
  57684.7421     0.32899E+02 
  57717.0042     0.32470E+02 
  57749.2664     0.32045E+02 
  57781.5286     0.31622E+02 
  57813.7907     0.31204E+02 
  57846.0529     0.30788E+02 
  57878.3150     0.30376E+02 
  57910.5772     0.29967E+02 
  57942.8394     0.29562E+02 
  57975.1015     0.29159E+02 
  58007.3637     0.28760E+02 
  58039.6258     0.28365E+02 
  58071.8880     0.27972E+02 
  58104.1502     0.27583E+02 
  58136.4123     0.27197E+02 
  58168.6745     0.26814E+02 
  58200.9366     0.26434E+02 
  58233.1988     0.26058E+02 
  58265.4610     0.25684E+02 
  58297.7231     0.25314E+02 
  58329.9853     0.24947E+02 
  58362.2474     0.24583E+02 
  58394.5096     0.24222E+02 
  58426.7718     0.23864E+02 
  58459.0339     0.23509E+02 
  58491.2961     0.23158E+02 
  58523.5582     0.22809E+02 
  58555.8204     0.22463E+02 
  58588.0826     0.22121E+02 
  58620.3447     0.21781E+02 
  58652.6069     0.21445E+02 
  58684.8690     0.21111E+02 
  58717.1312     0.20780E+02 
  58749.3934     0.20453E+02 
  58781.6555     0.20128E+02 
  58813.9177     0.19806E+02 
  58846.1798     0.19487E+02 
  58878.4420     0.19171E+02 
  58910.7042     0.18858E+02 
  58942.9663     0.18548E+02 
  58975.2285     0.18241E+02 
  59007.4906     0.17936E+02 
  59039.7528     0.17635E+02 
  59072.0150     0.17336E+02 
  59104.2771     0.17040E+02 
  59136.5393     0.16747E+02 
  59168.8014     0.16457E+02 
  59201.0636     0.16170E+02 
  59233.3258     0.15885E+02 
  59265.5879     0.15603E+02 
  59297.8501     0.15324E+02 
  59330.1122     0.15048E+02 
  59362.3744     0.14774E+02 
  59394.6366     0.14503E+02 
  59426.8987     0.14235E+02 
  59459.1609     0.13970E+02 
  59491.4230     0.13707E+02 
  59523.6852     0.13447E+02 
  59555.9474     0.13190E+02 
  59588.2095     0.12936E+02 
  59620.4717     0.12684E+02 
  59652.7338     0.12435E+02 
  59684.9960     0.12189E+02 
  59717.2582     0.11945E+02 
  59749.5203     0.11704E+02 
  59781.7825     0.11465E+02 
  59814.0446     0.11230E+02 
  59846.3068     0.10996E+02 
  59878.5690     0.10766E+02 
  59910.8311     0.10538E+02 
  59943.0933     0.10313E+02 
  59975.3554     0.10090E+02 
  60007.6176     0.98703E+01 
  60039.8798     0.96530E+01 
  60072.1419     0.94382E+01 
  60104.4041     0.92261E+01 
  60136.6662     0.90165E+01 
  60168.9284     0.88096E+01 
  60201.1906     0.86052E+01 
  60233.4527     0.84035E+01 
  60265.7149     0.82043E+01 
  60297.9770     0.80078E+01 
  60330.2392     0.78138E+01 
  60362.5014     0.76223E+01 
  60394.7635     0.74335E+01 
  60427.0257     0.72473E+01 
  60459.2878     0.70636E+01 
  60491.5500     0.68825E+01 
  60523.8122     0.67040E+01 
  60556.0743     0.65280E+01 
  60588.3365     0.63547E+01 
  60620.5986     0.61839E+01 
  60652.8608     0.60156E+01 
  60685.1230     0.58500E+01 
  60717.3851     0.56869E+01 
  60749.6473     0.55265E+01 
  60781.9094     0.53686E+01 
  60814.1716     0.52133E+01 
  60846.4338     0.50605E+01 
  60878.6959     0.49104E+01 
  60910.9581     0.47629E+01 
  60943.2202     0.46179E+01 
  60975.4824     0.44756E+01 
  61007.7446     0.43359E+01 
  61040.0067     0.41988E+01 
  61072.2689     0.40643E+01 
  61104.5310     0.39324E+01 
  61136.7932     0.38032E+01 
  61169.0554     0.36766E+01 
  61201.3175     0.35526E+01 
  61233.5797     0.34313E+01 
  61265.8418     0.33126E+01 
  61298.1040     0.31967E+01 
  61330.3662     0.30833E+01 
  61362.6283     0.29727E+01 
  61394.8905     0.28648E+01 
  61427.1526     0.27596E+01 
  61459.4148     0.26571E+01 
  61491.6770     0.25573E+01 
  61523.9391     0.24602E+01 
  61556.2013     0.23660E+01 
  61588.4634     0.22744E+01 
  61620.7256     0.21857E+01 
  61652.9878     0.20997E+01 
  61685.2499     0.20166E+01 
  61717.5121     0.19362E+01 
  61749.7742     0.18587E+01 
  61782.0364     0.17841E+01 
  61814.2986     0.17123E+01 
  61846.5607     0.16434E+01 
  61878.8229     0.15774E+01 
  61911.0850     0.15143E+01 
  61943.3472     0.14542E+01 
  61975.6094     0.13970E+01 
  62007.8715     0.13428E+01 
  62040.1337     0.12917E+01 
  62072.3958     0.12435E+01 
  62104.6580     0.11984E+01 
  62136.9202     0.11563E+01 
  62169.1823     0.11173E+01 
  62201.4445     0.10815E+01 
  62233.7066     0.10488E+01 
  62265.9688     0.10192E+01 
  62298.2310     0.99289E+00 
  62330.4931     0.96976E+00 
  62362.7553     0.94988E+00 
  62395.0174     0.93328E+00 
  62427.2796     0.91998E+00 
  62459.5418     0.91002E+00 
  62491.8039     0.90343E+00 
  62524.0661     0.90025E+00 
  62556.3282     0.90049E+00 
  62588.5904     0.90421E+00 
  62620.8526     0.91143E+00 
  62653.1147     0.92218E+00 
  62685.3769     0.93651E+00 
  62717.6390     0.95446E+00 
  62749.9012     0.97606E+00 
  62782.1634     0.10013E+01 
  62814.4255     0.10304E+01 
  62846.6877     0.10632E+01 
  62878.9498     0.10998E+01 
  62911.2120     0.11402E+01 
  62943.4742     0.11846E+01 
  62975.7363     0.12329E+01 
  63007.9985     0.12852E+01 
  63040.2606     0.13416E+01 
  63072.5228     0.14021E+01 
  63104.7850     0.14667E+01 
  63137.0471     0.15354E+01 
  63169.3093     0.16085E+01 
  63201.5714     0.16858E+01 
  63233.8336     0.17675E+01 
  63266.0958     0.18536E+01 
  63298.3579     0.19442E+01 
  63330.6201     0.20393E+01 
  63362.8822     0.21390E+01 
  63395.1444     0.22434E+01 
  63427.4066     0.23524E+01 
  63459.6687     0.24662E+01 
  63491.9309     0.25849E+01 
  63524.1930     0.27085E+01 
  63556.4552     0.28371E+01 
  63588.7174     0.29707E+01 
  63620.9795     0.31094E+01 
  63653.2417     0.32533E+01 
  63685.5038     0.34025E+01 
  63717.7660     0.35571E+01 
  63750.0282     0.37170E+01 
  63782.2903     0.38824E+01 
  63814.5525     0.40535E+01 
  63846.8146     0.42302E+01 
  63879.0768     0.44126E+01 
  63911.3390     0.46009E+01 
  63943.6011     0.47951E+01 
  63975.8633     0.49953E+01 
  64008.1254     0.52016E+01 
  64040.3876     0.54141E+01 
  64072.6498     0.56328E+01 
  64104.9119     0.58580E+01 
  64137.1741     0.60897E+01 
  64169.4362     0.63279E+01 
  64201.6984     0.65728E+01 
  64233.9606     0.68245E+01 
  64266.2227     0.70832E+01 
  64298.4849     0.73488E+01 
  64330.7470     0.76215E+01 
  64363.0092     0.79015E+01 
  64395.2714     0.81889E+01 
  64427.5335     0.84837E+01 
  64459.7957     0.87860E+01 
  64492.0578     0.90961E+01 
  64524.3200     0.94140E+01 
  64556.5822     0.97399E+01 
  64588.8443     0.10074E+02 
  64621.1065     0.10416E+02 
  64653.3686     0.10767E+02 
  64685.6308     0.11126E+02 
  64717.8930     0.11493E+02 
  64750.1551     0.11870E+02 
  64782.4173     0.12255E+02 
  64814.6794     0.12649E+02 
  64846.9416     0.13053E+02 
  64879.2038     0.13466E+02 
  64911.4659     0.13888E+02 
  64943.7281     0.14321E+02 
  64975.9902     0.14763E+02 
  65008.2524     0.15214E+02 
  65040.5146     0.15677E+02 
  65072.7767     0.16149E+02 
  65105.0389     0.16632E+02 
  65137.3010     0.17126E+02 
  65169.5632     0.17630E+02 
  65201.8254     0.18146E+02 
  65234.0875     0.18672E+02 
  65266.3497     0.19210E+02 
  65298.6118     0.19760E+02 
  65330.8740     0.20322E+02 
  65363.1362     0.20895E+02 
  65395.3983     0.21481E+02 
  65427.6605     0.22079E+02 
  65459.9226     0.22689E+02 
  65492.1848     0.23313E+02 
  65524.4470     0.23949E+02 
  65556.7091     0.24599E+02 
  65588.9713     0.25262E+02 
  65621.2334     0.25939E+02 
  65653.4956     0.26630E+02 
  65685.7578     0.27335E+02 
  65718.0199     0.28054E+02 
  65750.2821     0.28788E+02 
  65782.5442     0.29536E+02 
  65814.8064     0.30300E+02 
  65847.0686     0.31079E+02 
  65879.3307     0.31874E+02 
  65911.5929     0.32684E+02 
  65943.8550     0.33511E+02 
  65976.1172     0.34354E+02 
  66008.3794     0.35214E+02 
  66040.6415     0.36091E+02 
  66072.9037     0.36984E+02 
  66105.1658     0.37896E+02 
  66137.4280     0.38825E+02 
  66169.6902     0.39772E+02 
  66201.9523     0.40738E+02 
  66234.2145     0.41722E+02 
  66266.4766     0.42725E+02 
  66298.7388     0.43747E+02 
  66331.0010     0.44789E+02 
  66363.2631     0.45851E+02 
  66395.5253     0.46933E+02 
  66427.7874     0.48036E+02 
  66460.0496     0.49159E+02 
  66492.3118     0.50304E+02 
  66524.5739     0.51471E+02 
  66556.8361     0.52659E+02 
  66589.0982     0.53869E+02 
  66621.3604     0.55102E+02 
  66653.6226     0.56358E+02 
  66685.8847     0.57637E+02 
  66718.1469     0.58941E+02 
  66750.4090     0.60268E+02 
  66782.6712     0.61619E+02 
  66814.9334     0.62995E+02 
  66847.1955     0.64397E+02 
  66879.4577     0.65824E+02 
  66911.7198     0.67277E+02 
  66943.9820     0.68757E+02 
  66976.2442     0.70263E+02 
  67008.5063     0.71797E+02 
  67040.7685     0.73358E+02 
  67073.0306     0.74948E+02 
  67105.2928     0.76566E+02 
  67137.5550     0.78212E+02 
  67169.8171     0.79889E+02 
  67202.0793     0.81595E+02 
  67234.3414     0.83331E+02 
  67266.6036     0.85098E+02 
  67298.8658     0.86896E+02 
  67331.1279     0.88726E+02 
  67363.3901     0.90588E+02 
  67395.6522     0.92483E+02 
  67427.9144     0.94411E+02 
  67460.1766     0.96372E+02 
  67492.4387     0.98367E+02 
  67524.7009     0.10040E+03 
  67556.9630     0.10246E+03 
  67589.2252     0.10456E+03 
  67621.4874     0.10670E+03 
  67653.7495     0.10887E+03 
  67686.0117     0.11108E+03 
  67718.2738     0.11333E+03 
  67750.5360     0.11562E+03 
  67782.7982     0.11794E+03 
  67815.0603     0.12031E+03 
  67847.3225     0.12271E+03 
  67879.5846     0.12516E+03 
  67911.8468     0.12765E+03 
  67944.1090     0.13017E+03 
  67976.3711     0.13274E+03 
  68008.6333     0.13536E+03 
  68040.8954     0.13801E+03 
  68073.1576     0.14071E+03 
  68105.4198     0.14346E+03 
  68137.6819     0.14625E+03 
  68169.9441     0.14908E+03 
  68202.2062     0.15196E+03 
  68234.4684     0.15489E+03 
  68266.7306     0.15787E+03 
  68298.9927     0.16089E+03 
  68331.2549     0.16397E+03 
  68363.5170     0.16709E+03 
  68395.7792     0.17026E+03 
  68428.0414     0.17349E+03 
  68460.3035     0.17676E+03 
  68492.5657     0.18009E+03 
  68524.8278     0.18347E+03 
  68557.0900     0.18691E+03 
  68589.3522     0.19040E+03 
  68621.6143     0.19394E+03 
  68653.8765     0.19754E+03 
  68686.1386     0.20120E+03 
  68718.4008     0.20491E+03 
  68750.6630     0.20868E+03 
  68782.9251     0.21251E+03 
  68815.1873     0.21640E+03 
  68847.4494     0.22034E+03 
  68879.7116     0.22435E+03 
  68911.9738     0.22842E+03 
  68944.2359     0.23255E+03 
  68976.4981     0.23675E+03 
  69008.7602     0.24101E+03 
  69041.0224     0.24533E+03 
  69073.2846     0.24972E+03 
  69105.5467     0.25417E+03 
  69137.8089     0.25869E+03 
  69170.0710     0.26328E+03 
  69202.3332     0.26794E+03 
  69234.5954     0.27266E+03 
  69266.8575     0.27746E+03 
  69299.1197     0.28232E+03 
  69331.3818     0.28726E+03 
  69363.6440     0.29227E+03 
  69395.9062     0.29735E+03 
  69428.1683     0.30250E+03 
  69460.4305     0.30773E+03 
  69492.6926     0.31304E+03 
  69524.9548     0.31842E+03 
  69557.2170     0.32388E+03 
  69589.4791     0.32942E+03 
  69621.7413     0.33503E+03 
  69654.0034     0.34073E+03 
  69686.2656     0.34650E+03 
  69718.5278     0.35236E+03 
  69750.7899     0.35829E+03 
  69783.0521     0.36431E+03 
  69815.3142     0.37042E+03 
  69847.5764     0.37661E+03 
  69879.8386     0.38288E+03 
  69912.1007     0.38924E+03 
  69944.3629     0.39569E+03 
  69976.6250     0.40222E+03 
  70008.8872     0.40885E+03 
  70041.1494     0.41556E+03 
  70073.4115     0.42237E+03 
  70105.6737     0.42926E+03 
  70137.9358     0.43625E+03 
  70170.1980     0.44333E+03 
  70202.4602     0.45050E+03 
  70234.7223     0.45777E+03 
  70266.9845     0.46514E+03 
  70299.2466     0.47260E+03 
  70331.5088     0.48016E+03 
  70363.7710     0.48781E+03 
  70396.0331     0.49557E+03 
  70428.2953     0.50342E+03 
  70460.5574     0.51138E+03 
  70492.8196     0.51944E+03 
  70525.0818     0.52760E+03 
  70557.3439     0.53586E+03 
  70589.6061     0.54423E+03 
  70621.8682     0.55270E+03 
  70654.1304     0.56128E+03 
  70686.3926     0.56997E+03 
  70718.6547     0.57876E+03 
  70750.9169     0.58767E+03 
  70783.1790     0.59668E+03 
  70815.4412     0.60580E+03 
  70847.7034     0.61503E+03 
  70879.9655     0.62438E+03 
  70912.2277     0.63383E+03 
  70944.4898     0.64341E+03 
  70976.7520     0.65309E+03 
  71009.0142     0.66289E+03 
  71041.2763     0.67281E+03 
  71073.5385     0.68284E+03 
  71105.8006     0.69299E+03 
  71138.0628     0.70326E+03 
  71170.3250     0.71365E+03 
  71202.5871     0.72416E+03 
  71234.8493     0.73479E+03 
  71267.1114     0.74554E+03 
  71299.3736     0.75642E+03 
  71331.6358     0.76742E+03 
  71363.8979     0.77854E+03 
  71396.1601     0.78979E+03 
  71428.4222     0.80116E+03 
  71460.6844     0.81266E+03 
  71492.9466     0.82428E+03 
  71525.2087     0.83604E+03 
  71557.4709     0.84792E+03 
  71589.7330     0.85993E+03 
  71621.9952     0.87207E+03 
  71654.2574     0.88435E+03 
  71686.5195     0.89675E+03 
  71718.7817     0.90929E+03 
  71751.0438     0.92196E+03 
  71783.3060     0.93476E+03 
  71815.5682     0.94770E+03 
  71847.8303     0.96077E+03 
  71880.0925     0.97398E+03 
  71912.3546     0.98732E+03 
  71944.6168     0.10008E+04 
  71976.8790     0.10144E+04 
  72009.1411     0.10282E+04 
  72041.4033     0.10421E+04 
  72073.6654     0.10561E+04 
  72105.9276     0.10703E+04 
  72138.1898     0.10846E+04 
  72170.4519     0.10991E+04 
  72202.7141     0.11137E+04 
  72234.9762     0.11284E+04 
  72267.2384     0.11433E+04 
  72299.5006     0.11583E+04 
  72331.7627     0.11735E+04 
  72364.0249     0.11888E+04 
  72396.2870     0.12042E+04 
  72428.5492     0.12199E+04 
  72460.8114     0.12356E+04 
  72493.0735     0.12515E+04 
  72525.3357     0.12675E+04 
  72557.5978     0.12837E+04 
  72589.8600     0.13001E+04 
