  32262.1600     0.26360E+02 
  32294.4222     0.26694E+02 
  32326.6843     0.27031E+02 
  32358.9465     0.27371E+02 
  32391.2086     0.27714E+02 
  32423.4708     0.28060E+02 
  32455.7330     0.28408E+02 
  32487.9951     0.28760E+02 
  32520.2573     0.29115E+02 
  32552.5194     0.29472E+02 
  32584.7816     0.29833E+02 
  32617.0438     0.30197E+02 
  32649.3059     0.30563E+02 
  32681.5681     0.30933E+02 
  32713.8302     0.31305E+02 
  32746.0924     0.31680E+02 
  32778.3546     0.32059E+02 
  32810.6167     0.32440E+02 
  32842.8789     0.32825E+02 
  32875.1410     0.33212E+02 
  32907.4032     0.33602E+02 
  32939.6654     0.33995E+02 
  32971.9275     0.34391E+02 
  33004.1897     0.34791E+02 
  33036.4518     0.35193E+02 
  33068.7140     0.35598E+02 
  33100.9762     0.36006E+02 
  33133.2383     0.36417E+02 
  33165.5005     0.36831E+02 
  33197.7626     0.37248E+02 
  33230.0248     0.37667E+02 
  33262.2870     0.38090E+02 
  33294.5491     0.38516E+02 
  33326.8113     0.38944E+02 
  33359.0734     0.39376E+02 
  33391.3356     0.39810E+02 
  33423.5978     0.40248E+02 
  33455.8599     0.40688E+02 
  33488.1221     0.41131E+02 
  33520.3842     0.41577E+02 
  33552.6464     0.42026E+02 
  33584.9086     0.42478E+02 
  33617.1707     0.42932E+02 
  33649.4329     0.43390E+02 
  33681.6950     0.43850E+02 
  33713.9572     0.44313E+02 
  33746.2194     0.44779E+02 
  33778.4815     0.45247E+02 
  33810.7437     0.45719E+02 
  33843.0058     0.46193E+02 
  33875.2680     0.46670E+02 
  33907.5302     0.47150E+02 
  33939.7923     0.47632E+02 
  33972.0545     0.48117E+02 
  34004.3166     0.48605E+02 
  34036.5788     0.49096E+02 
  34068.8410     0.49589E+02 
  34101.1031     0.50085E+02 
  34133.3653     0.50583E+02 
  34165.6274     0.51084E+02 
  34197.8896     0.51588E+02 
  34230.1518     0.52094E+02 
  34262.4139     0.52603E+02 
  34294.6761     0.53115E+02 
  34326.9382     0.53629E+02 
  34359.2004     0.54145E+02 
  34391.4626     0.54664E+02 
  34423.7247     0.55186E+02 
  34455.9869     0.55709E+02 
  34488.2490     0.56236E+02 
  34520.5112     0.56764E+02 
  34552.7734     0.57295E+02 
  34585.0355     0.57829E+02 
  34617.2977     0.58365E+02 
  34649.5598     0.58903E+02 
  34681.8220     0.59443E+02 
  34714.0842     0.59986E+02 
  34746.3463     0.60531E+02 
  34778.6085     0.61078E+02 
  34810.8706     0.61627E+02 
  34843.1328     0.62178E+02 
  34875.3950     0.62732E+02 
  34907.6571     0.63288E+02 
  34939.9193     0.63845E+02 
  34972.1814     0.64405E+02 
  35004.4436     0.64967E+02 
  35036.7058     0.65531E+02 
  35068.9679     0.66097E+02 
  35101.2301     0.66664E+02 
  35133.4922     0.67234E+02 
  35165.7544     0.67805E+02 
  35198.0166     0.68379E+02 
  35230.2787     0.68954E+02 
  35262.5409     0.69531E+02 
  35294.8030     0.70110E+02 
  35327.0652     0.70690E+02 
  35359.3274     0.71272E+02 
  35391.5895     0.71856E+02 
  35423.8517     0.72441E+02 
  35456.1138     0.73028E+02 
  35488.3760     0.73617E+02 
  35520.6382     0.74207E+02 
  35552.9003     0.74798E+02 
  35585.1625     0.75391E+02 
  35617.4246     0.75985E+02 
  35649.6868     0.76581E+02 
  35681.9490     0.77178E+02 
  35714.2111     0.77777E+02 
  35746.4733     0.78376E+02 
  35778.7354     0.78977E+02 
  35810.9976     0.79579E+02 
  35843.2598     0.80182E+02 
  35875.5219     0.80787E+02 
  35907.7841     0.81392E+02 
  35940.0462     0.81998E+02 
  35972.3084     0.82606E+02 
  36004.5706     0.83214E+02 
  36036.8327     0.83823E+02 
  36069.0949     0.84434E+02 
  36101.3570     0.85045E+02 
  36133.6192     0.85656E+02 
  36165.8814     0.86269E+02 
  36198.1435     0.86882E+02 
  36230.4057     0.87496E+02 
  36262.6678     0.88111E+02 
  36294.9300     0.88726E+02 
  36327.1922     0.89342E+02 
  36359.4543     0.89958E+02 
  36391.7165     0.90575E+02 
  36423.9786     0.91192E+02 
  36456.2408     0.91809E+02 
  36488.5030     0.92427E+02 
  36520.7651     0.93045E+02 
  36553.0273     0.93664E+02 
  36585.2894     0.94282E+02 
  36617.5516     0.94901E+02 
  36649.8138     0.95520E+02 
  36682.0759     0.96139E+02 
  36714.3381     0.96758E+02 
  36746.6002     0.97376E+02 
  36778.8624     0.97995E+02 
  36811.1246     0.98614E+02 
  36843.3867     0.99233E+02 
  36875.6489     0.99851E+02 
  36907.9110     0.10047E+03 
  36940.1732     0.10109E+03 
  36972.4354     0.10170E+03 
  37004.6975     0.10232E+03 
  37036.9597     0.10294E+03 
  37069.2218     0.10355E+03 
  37101.4840     0.10417E+03 
  37133.7462     0.10479E+03 
  37166.0083     0.10540E+03 
  37198.2705     0.10601E+03 
  37230.5326     0.10663E+03 
  37262.7948     0.10724E+03 
  37295.0570     0.10785E+03 
  37327.3191     0.10846E+03 
  37359.5813     0.10907E+03 
  37391.8434     0.10968E+03 
  37424.1056     0.11029E+03 
  37456.3678     0.11090E+03 
  37488.6299     0.11150E+03 
  37520.8921     0.11211E+03 
  37553.1542     0.11271E+03 
  37585.4164     0.11331E+03 
  37617.6786     0.11391E+03 
  37649.9407     0.11451E+03 
  37682.2029     0.11511E+03 
  37714.4650     0.11571E+03 
  37746.7272     0.11630E+03 
  37778.9894     0.11690E+03 
  37811.2515     0.11749E+03 
  37843.5137     0.11808E+03 
  37875.7758     0.11867E+03 
  37908.0380     0.11926E+03 
  37940.3002     0.11984E+03 
  37972.5623     0.12043E+03 
  38004.8245     0.12101E+03 
  38037.0866     0.12159E+03 
  38069.3488     0.12217E+03 
  38101.6110     0.12274E+03 
  38133.8731     0.12332E+03 
  38166.1353     0.12389E+03 
  38198.3974     0.12446E+03 
  38230.6596     0.12503E+03 
  38262.9218     0.12559E+03 
  38295.1839     0.12616E+03 
  38327.4461     0.12672E+03 
  38359.7082     0.12728E+03 
  38391.9704     0.12783E+03 
  38424.2326     0.12839E+03 
  38456.4947     0.12894E+03 
  38488.7569     0.12949E+03 
  38521.0190     0.13004E+03 
  38553.2812     0.13058E+03 
  38585.5434     0.13112E+03 
  38617.8055     0.13166E+03 
  38650.0677     0.13220E+03 
  38682.3298     0.13273E+03 
  38714.5920     0.13326E+03 
  38746.8542     0.13379E+03 
  38779.1163     0.13431E+03 
  38811.3785     0.13483E+03 
  38843.6406     0.13535E+03 
  38875.9028     0.13587E+03 
  38908.1650     0.13638E+03 
  38940.4271     0.13689E+03 
  38972.6893     0.13740E+03 
  39004.9514     0.13790E+03 
  39037.2136     0.13840E+03 
  39069.4758     0.13890E+03 
  39101.7379     0.13939E+03 
  39134.0001     0.13988E+03 
  39166.2622     0.14037E+03 
  39198.5244     0.14085E+03 
  39230.7866     0.14133E+03 
  39263.0487     0.14181E+03 
  39295.3109     0.14228E+03 
  39327.5730     0.14275E+03 
  39359.8352     0.14322E+03 
  39392.0974     0.14368E+03 
  39424.3595     0.14414E+03 
  39456.6217     0.14459E+03 
  39488.8838     0.14504E+03 
  39521.1460     0.14549E+03 
  39553.4082     0.14593E+03 
  39585.6703     0.14637E+03 
  39617.9325     0.14681E+03 
  39650.1946     0.14724E+03 
  39682.4568     0.14767E+03 
  39714.7190     0.14809E+03 
  39746.9811     0.14851E+03 
  39779.2433     0.14893E+03 
  39811.5054     0.14934E+03 
  39843.7676     0.14975E+03 
  39876.0298     0.15015E+03 
  39908.2919     0.15055E+03 
  39940.5541     0.15095E+03 
  39972.8162     0.15134E+03 
  40005.0784     0.15172E+03 
  40037.3406     0.15211E+03 
  40069.6027     0.15248E+03 
  40101.8649     0.15286E+03 
  40134.1270     0.15323E+03 
  40166.3892     0.15359E+03 
  40198.6514     0.15395E+03 
  40230.9135     0.15431E+03 
  40263.1757     0.15466E+03 
  40295.4378     0.15501E+03 
  40327.7000     0.15535E+03 
  40359.9622     0.15569E+03 
  40392.2243     0.15602E+03 
  40424.4865     0.15635E+03 
  40456.7486     0.15668E+03 
  40489.0108     0.15700E+03 
  40521.2730     0.15731E+03 
  40553.5351     0.15762E+03 
  40585.7973     0.15793E+03 
  40618.0594     0.15823E+03 
  40650.3216     0.15853E+03 
  40682.5838     0.15882E+03 
  40714.8459     0.15910E+03 
  40747.1081     0.15939E+03 
  40779.3702     0.15966E+03 
  40811.6324     0.15994E+03 
  40843.8946     0.16020E+03 
  40876.1567     0.16047E+03 
  40908.4189     0.16072E+03 
  40940.6810     0.16098E+03 
  40972.9432     0.16122E+03 
  41005.2054     0.16147E+03 
  41037.4675     0.16171E+03 
  41069.7297     0.16194E+03 
  41101.9918     0.16217E+03 
  41134.2540     0.16239E+03 
  41166.5162     0.16261E+03 
  41198.7783     0.16282E+03 
  41231.0405     0.16303E+03 
  41263.3026     0.16323E+03 
  41295.5648     0.16343E+03 
  41327.8270     0.16363E+03 
  41360.0891     0.16381E+03 
  41392.3513     0.16400E+03 
  41424.6134     0.16417E+03 
  41456.8756     0.16435E+03 
  41489.1378     0.16452E+03 
  41521.3999     0.16468E+03 
  41553.6621     0.16484E+03 
  41585.9242     0.16499E+03 
  41618.1864     0.16514E+03 
  41650.4486     0.16528E+03 
  41682.7107     0.16542E+03 
  41714.9729     0.16555E+03 
  41747.2350     0.16568E+03 
  41779.4972     0.16580E+03 
  41811.7594     0.16591E+03 
  41844.0215     0.16603E+03 
  41876.2837     0.16613E+03 
  41908.5458     0.16624E+03 
  41940.8080     0.16633E+03 
  41973.0702     0.16642E+03 
  42005.3323     0.16651E+03 
  42037.5945     0.16659E+03 
  42069.8566     0.16667E+03 
  42102.1188     0.16674E+03 
  42134.3810     0.16680E+03 
  42166.6431     0.16686E+03 
  42198.9053     0.16692E+03 
  42231.1674     0.16697E+03 
  42263.4296     0.16702E+03 
  42295.6918     0.16706E+03 
  42327.9539     0.16709E+03 
  42360.2161     0.16712E+03 
  42392.4782     0.16715E+03 
  42424.7404     0.16717E+03 
  42457.0026     0.16718E+03 
  42489.2647     0.16719E+03 
  42521.5269     0.16720E+03 
  42553.7890     0.16720E+03 
  42586.0512     0.16719E+03 
  42618.3134     0.16718E+03 
  42650.5755     0.16717E+03 
  42682.8377     0.16715E+03 
  42715.0998     0.16712E+03 
  42747.3620     0.16709E+03 
  42779.6242     0.16706E+03 
  42811.8863     0.16702E+03 
  42844.1485     0.16697E+03 
  42876.4106     0.16692E+03 
  42908.6728     0.16687E+03 
  42940.9350     0.16681E+03 
  42973.1971     0.16674E+03 
  43005.4593     0.16667E+03 
  43037.7214     0.16660E+03 
  43069.9836     0.16652E+03 
  43102.2458     0.16644E+03 
  43134.5079     0.16635E+03 
  43166.7701     0.16625E+03 
  43199.0322     0.16615E+03 
  43231.2944     0.16605E+03 
  43263.5566     0.16594E+03 
  43295.8187     0.16583E+03 
  43328.0809     0.16571E+03 
  43360.3430     0.16559E+03 
  43392.6052     0.16547E+03 
  43424.8674     0.16533E+03 
  43457.1295     0.16520E+03 
  43489.3917     0.16506E+03 
  43521.6538     0.16491E+03 
  43553.9160     0.16476E+03 
  43586.1782     0.16461E+03 
  43618.4403     0.16445E+03 
  43650.7025     0.16429E+03 
  43682.9646     0.16412E+03 
  43715.2268     0.16395E+03 
  43747.4890     0.16377E+03 
  43779.7511     0.16359E+03 
  43812.0133     0.16341E+03 
  43844.2754     0.16322E+03 
  43876.5376     0.16302E+03 
  43908.7998     0.16282E+03 
  43941.0619     0.16262E+03 
  43973.3241     0.16242E+03 
  44005.5862     0.16220E+03 
  44037.8484     0.16199E+03 
  44070.1106     0.16177E+03 
  44102.3727     0.16155E+03 
  44134.6349     0.16132E+03 
  44166.8970     0.16109E+03 
  44199.1592     0.16085E+03 
  44231.4214     0.16061E+03 
  44263.6835     0.16037E+03 
  44295.9457     0.16012E+03 
  44328.2078     0.15987E+03 
  44360.4700     0.15961E+03 
  44392.7322     0.15935E+03 
  44424.9943     0.15909E+03 
  44457.2565     0.15882E+03 
  44489.5186     0.15855E+03 
  44521.7808     0.15827E+03 
  44554.0430     0.15799E+03 
  44586.3051     0.15771E+03 
  44618.5673     0.15742E+03 
  44650.8294     0.15713E+03 
  44683.0916     0.15684E+03 
  44715.3538     0.15654E+03 
  44747.6159     0.15624E+03 
  44779.8781     0.15594E+03 
  44812.1402     0.15563E+03 
  44844.4024     0.15532E+03 
  44876.6646     0.15500E+03 
  44908.9267     0.15468E+03 
  44941.1889     0.15436E+03 
  44973.4510     0.15404E+03 
  45005.7132     0.15371E+03 
  45037.9754     0.15337E+03 
  45070.2375     0.15304E+03 
  45102.4997     0.15270E+03 
  45134.7618     0.15236E+03 
  45167.0240     0.15201E+03 
  45199.2862     0.15167E+03 
  45231.5483     0.15131E+03 
  45263.8105     0.15096E+03 
  45296.0726     0.15060E+03 
  45328.3348     0.15024E+03 
  45360.5970     0.14988E+03 
  45392.8591     0.14951E+03 
  45425.1213     0.14914E+03 
  45457.3834     0.14877E+03 
  45489.6456     0.14839E+03 
  45521.9078     0.14802E+03 
  45554.1699     0.14763E+03 
  45586.4321     0.14725E+03 
  45618.6942     0.14686E+03 
  45650.9564     0.14648E+03 
  45683.2186     0.14608E+03 
  45715.4807     0.14569E+03 
  45747.7429     0.14529E+03 
  45780.0050     0.14489E+03 
  45812.2672     0.14449E+03 
  45844.5294     0.14408E+03 
  45876.7915     0.14368E+03 
  45909.0537     0.14327E+03 
  45941.3158     0.14286E+03 
  45973.5780     0.14244E+03 
  46005.8402     0.14202E+03 
  46038.1023     0.14161E+03 
  46070.3645     0.14118E+03 
  46102.6266     0.14076E+03 
  46134.8888     0.14033E+03 
  46167.1510     0.13991E+03 
  46199.4131     0.13948E+03 
  46231.6753     0.13904E+03 
  46263.9374     0.13861E+03 
  46296.1996     0.13817E+03 
  46328.4618     0.13773E+03 
  46360.7239     0.13729E+03 
  46392.9861     0.13685E+03 
  46425.2482     0.13641E+03 
  46457.5104     0.13596E+03 
  46489.7726     0.13551E+03 
  46522.0347     0.13506E+03 
  46554.2969     0.13461E+03 
  46586.5590     0.13416E+03 
  46618.8212     0.13370E+03 
  46651.0834     0.13325E+03 
  46683.3455     0.13279E+03 
  46715.6077     0.13233E+03 
  46747.8698     0.13187E+03 
  46780.1320     0.13140E+03 
  46812.3942     0.13094E+03 
  46844.6563     0.13047E+03 
  46876.9185     0.13000E+03 
  46909.1806     0.12954E+03 
  46941.4428     0.12907E+03 
  46973.7050     0.12859E+03 
  47005.9671     0.12812E+03 
  47038.2293     0.12765E+03 
  47070.4914     0.12717E+03 
  47102.7536     0.12669E+03 
  47135.0158     0.12622E+03 
  47167.2779     0.12574E+03 
  47199.5401     0.12526E+03 
  47231.8022     0.12477E+03 
  47264.0644     0.12429E+03 
  47296.3266     0.12381E+03 
  47328.5887     0.12332E+03 
  47360.8509     0.12284E+03 
  47393.1130     0.12235E+03 
  47425.3752     0.12186E+03 
  47457.6374     0.12137E+03 
  47489.8995     0.12089E+03 
  47522.1617     0.12040E+03 
  47554.4238     0.11990E+03 
  47586.6860     0.11941E+03 
  47618.9482     0.11892E+03 
  47651.2103     0.11843E+03 
  47683.4725     0.11793E+03 
  47715.7346     0.11744E+03 
  47747.9968     0.11694E+03 
  47780.2590     0.11645E+03 
  47812.5211     0.11595E+03 
  47844.7833     0.11546E+03 
  47877.0454     0.11496E+03 
  47909.3076     0.11446E+03 
  47941.5698     0.11396E+03 
  47973.8319     0.11346E+03 
  48006.0941     0.11296E+03 
  48038.3562     0.11247E+03 
  48070.6184     0.11197E+03 
  48102.8806     0.11147E+03 
  48135.1427     0.11097E+03 
  48167.4049     0.11046E+03 
  48199.6670     0.10996E+03 
  48231.9292     0.10946E+03 
  48264.1914     0.10896E+03 
  48296.4535     0.10846E+03 
  48328.7157     0.10796E+03 
  48360.9778     0.10746E+03 
  48393.2400     0.10696E+03 
  48425.5022     0.10645E+03 
  48457.7643     0.10595E+03 
  48490.0265     0.10545E+03 
  48522.2886     0.10495E+03 
  48554.5508     0.10445E+03 
  48586.8130     0.10395E+03 
  48619.0751     0.10344E+03 
  48651.3373     0.10294E+03 
  48683.5994     0.10244E+03 
  48715.8616     0.10194E+03 
  48748.1238     0.10144E+03 
  48780.3859     0.10094E+03 
  48812.6481     0.10044E+03 
  48844.9102     0.99938E+02 
  48877.1724     0.99439E+02 
  48909.4346     0.98939E+02 
  48941.6967     0.98440E+02 
  48973.9589     0.97941E+02 
  49006.2210     0.97443E+02 
  49038.4832     0.96945E+02 
  49070.7454     0.96447E+02 
  49103.0075     0.95950E+02 
  49135.2697     0.95453E+02 
  49167.5318     0.94957E+02 
  49199.7940     0.94461E+02 
  49232.0562     0.93966E+02 
  49264.3183     0.93471E+02 
  49296.5805     0.92977E+02 
  49328.8426     0.92484E+02 
  49361.1048     0.91991E+02 
  49393.3670     0.91499E+02 
  49425.6291     0.91007E+02 
  49457.8913     0.90516E+02 
  49490.1534     0.90026E+02 
  49522.4156     0.89536E+02 
  49554.6778     0.89048E+02 
  49586.9399     0.88560E+02 
  49619.2021     0.88072E+02 
  49651.4642     0.87586E+02 
  49683.7264     0.87100E+02 
  49715.9886     0.86615E+02 
  49748.2507     0.86131E+02 
  49780.5129     0.85648E+02 
  49812.7750     0.85166E+02 
  49845.0372     0.84684E+02 
  49877.2994     0.84204E+02 
  49909.5615     0.83724E+02 
  49941.8237     0.83245E+02 
  49974.0858     0.82767E+02 
  50006.3480     0.82291E+02 
  50038.6102     0.81815E+02 
  50070.8723     0.81340E+02 
  50103.1345     0.80866E+02 
  50135.3966     0.80393E+02 
  50167.6588     0.79922E+02 
  50199.9210     0.79451E+02 
  50232.1831     0.78981E+02 
  50264.4453     0.78513E+02 
  50296.7074     0.78046E+02 
  50328.9696     0.77579E+02 
  50361.2318     0.77114E+02 
  50393.4939     0.76650E+02 
  50425.7561     0.76187E+02 
  50458.0182     0.75726E+02 
  50490.2804     0.75265E+02 
  50522.5426     0.74806E+02 
  50554.8047     0.74348E+02 
  50587.0669     0.73891E+02 
  50619.3290     0.73435E+02 
  50651.5912     0.72981E+02 
  50683.8534     0.72528E+02 
  50716.1155     0.72076E+02 
  50748.3777     0.71625E+02 
  50780.6398     0.71176E+02 
  50812.9020     0.70728E+02 
  50845.1642     0.70281E+02 
  50877.4263     0.69836E+02 
  50909.6885     0.69392E+02 
  50941.9506     0.68949E+02 
  50974.2128     0.68507E+02 
  51006.4750     0.68067E+02 
  51038.7371     0.67629E+02 
  51070.9993     0.67192E+02 
  51103.2614     0.66756E+02 
  51135.5236     0.66321E+02 
  51167.7858     0.65888E+02 
  51200.0479     0.65457E+02 
  51232.3101     0.65026E+02 
  51264.5722     0.64598E+02 
  51296.8344     0.64170E+02 
  51329.0966     0.63745E+02 
  51361.3587     0.63320E+02 
  51393.6209     0.62897E+02 
  51425.8830     0.62476E+02 
  51458.1452     0.62056E+02 
  51490.4074     0.61637E+02 
  51522.6695     0.61220E+02 
  51554.9317     0.60805E+02 
  51587.1938     0.60391E+02 
  51619.4560     0.59978E+02 
  51651.7182     0.59567E+02 
  51683.9803     0.59158E+02 
  51716.2425     0.58750E+02 
  51748.5046     0.58344E+02 
  51780.7668     0.57939E+02 
  51813.0290     0.57536E+02 
  51845.2911     0.57134E+02 
  51877.5533     0.56734E+02 
  51909.8154     0.56336E+02 
  51942.0776     0.55939E+02 
  51974.3398     0.55543E+02 
  52006.6019     0.55150E+02 
  52038.8641     0.54757E+02 
  52071.1262     0.54367E+02 
  52103.3884     0.53978E+02 
  52135.6506     0.53590E+02 
  52167.9127     0.53205E+02 
  52200.1749     0.52820E+02 
  52232.4370     0.52438E+02 
  52264.6992     0.52057E+02 
  52296.9614     0.51677E+02 
  52329.2235     0.51300E+02 
  52361.4857     0.50924E+02 
  52393.7478     0.50549E+02 
  52426.0100     0.50176E+02 
  52458.2722     0.49805E+02 
  52490.5343     0.49436E+02 
  52522.7965     0.49068E+02 
  52555.0586     0.48701E+02 
  52587.3208     0.48337E+02 
  52619.5830     0.47974E+02 
  52651.8451     0.47612E+02 
  52684.1073     0.47253E+02 
  52716.3694     0.46895E+02 
  52748.6316     0.46538E+02 
  52780.8938     0.46184E+02 
  52813.1559     0.45830E+02 
  52845.4181     0.45479E+02 
  52877.6802     0.45129E+02 
  52909.9424     0.44781E+02 
  52942.2046     0.44435E+02 
  52974.4667     0.44090E+02 
  53006.7289     0.43747E+02 
  53038.9910     0.43405E+02 
  53071.2532     0.43065E+02 
  53103.5154     0.42727E+02 
  53135.7775     0.42391E+02 
  53168.0397     0.42056E+02 
  53200.3018     0.41723E+02 
  53232.5640     0.41391E+02 
  53264.8262     0.41061E+02 
  53297.0883     0.40733E+02 
  53329.3505     0.40407E+02 
  53361.6126     0.40082E+02 
  53393.8748     0.39758E+02 
  53426.1370     0.39437E+02 
  53458.3991     0.39117E+02 
  53490.6613     0.38799E+02 
  53522.9234     0.38482E+02 
  53555.1856     0.38167E+02 
  53587.4478     0.37854E+02 
  53619.7099     0.37542E+02 
  53651.9721     0.37232E+02 
  53684.2342     0.36924E+02 
  53716.4964     0.36617E+02 
  53748.7586     0.36312E+02 
  53781.0207     0.36008E+02 
  53813.2829     0.35707E+02 
  53845.5450     0.35406E+02 
  53877.8072     0.35108E+02 
  53910.0694     0.34811E+02 
  53942.3315     0.34516E+02 
  53974.5937     0.34222E+02 
  54006.8558     0.33930E+02 
  54039.1180     0.33640E+02 
  54071.3802     0.33351E+02 
  54103.6423     0.33064E+02 
  54135.9045     0.32778E+02 
  54168.1666     0.32494E+02 
  54200.4288     0.32212E+02 
  54232.6910     0.31931E+02 
  54264.9531     0.31652E+02 
  54297.2153     0.31374E+02 
  54329.4774     0.31098E+02 
  54361.7396     0.30824E+02 
  54394.0018     0.30551E+02 
  54426.2639     0.30280E+02 
  54458.5261     0.30010E+02 
  54490.7882     0.29742E+02 
  54523.0504     0.29476E+02 
  54555.3126     0.29211E+02 
  54587.5747     0.28948E+02 
  54619.8369     0.28686E+02 
  54652.0990     0.28426E+02 
  54684.3612     0.28167E+02 
  54716.6234     0.27910E+02 
  54748.8855     0.27654E+02 
  54781.1477     0.27400E+02 
  54813.4098     0.27148E+02 
  54845.6720     0.26897E+02 
  54877.9342     0.26648E+02 
  54910.1963     0.26400E+02 
  54942.4585     0.26153E+02 
  54974.7206     0.25909E+02 
  55006.9828     0.25665E+02 
  55039.2450     0.25424E+02 
  55071.5071     0.25183E+02 
  55103.7693     0.24944E+02 
  55136.0314     0.24707E+02 
  55168.2936     0.24471E+02 
  55200.5558     0.24237E+02 
  55232.8179     0.24004E+02 
  55265.0801     0.23773E+02 
  55297.3422     0.23543E+02 
  55329.6044     0.23314E+02 
  55361.8666     0.23087E+02 
  55394.1287     0.22862E+02 
  55426.3909     0.22638E+02 
  55458.6530     0.22415E+02 
  55490.9152     0.22194E+02 
  55523.1774     0.21974E+02 
  55555.4395     0.21756E+02 
  55587.7017     0.21539E+02 
  55619.9638     0.21324E+02 
  55652.2260     0.21110E+02 
  55684.4882     0.20897E+02 
  55716.7503     0.20686E+02 
  55749.0125     0.20476E+02 
  55781.2746     0.20268E+02 
  55813.5368     0.20061E+02 
  55845.7990     0.19855E+02 
  55878.0611     0.19651E+02 
  55910.3233     0.19448E+02 
  55942.5854     0.19247E+02 
  55974.8476     0.19047E+02 
  56007.1098     0.18848E+02 
  56039.3719     0.18650E+02 
  56071.6341     0.18454E+02 
  56103.8962     0.18260E+02 
  56136.1584     0.18066E+02 
  56168.4206     0.17874E+02 
  56200.6827     0.17683E+02 
  56232.9449     0.17494E+02 
  56265.2070     0.17306E+02 
  56297.4692     0.17119E+02 
  56329.7314     0.16934E+02 
  56361.9935     0.16750E+02 
  56394.2557     0.16567E+02 
  56426.5178     0.16385E+02 
  56458.7800     0.16205E+02 
  56491.0422     0.16026E+02 
  56523.3043     0.15848E+02 
  56555.5665     0.15672E+02 
  56587.8286     0.15497E+02 
  56620.0908     0.15323E+02 
  56652.3530     0.15150E+02 
  56684.6151     0.14979E+02 
  56716.8773     0.14809E+02 
  56749.1394     0.14640E+02 
  56781.4016     0.14472E+02 
  56813.6638     0.14306E+02 
  56845.9259     0.14140E+02 
  56878.1881     0.13976E+02 
  56910.4502     0.13813E+02 
  56942.7124     0.13652E+02 
  56974.9746     0.13491E+02 
  57007.2367     0.13332E+02 
  57039.4989     0.13174E+02 
  57071.7610     0.13017E+02 
  57104.0232     0.12862E+02 
  57136.2854     0.12707E+02 
  57168.5475     0.12554E+02 
  57200.8097     0.12402E+02 
  57233.0718     0.12251E+02 
  57265.3340     0.12101E+02 
  57297.5962     0.11952E+02 
  57329.8583     0.11804E+02 
  57362.1205     0.11658E+02 
  57394.3826     0.11513E+02 
  57426.6448     0.11368E+02 
  57458.9070     0.11225E+02 
  57491.1691     0.11083E+02 
  57523.4313     0.10943E+02 
  57555.6934     0.10803E+02 
  57587.9556     0.10664E+02 
  57620.2178     0.10527E+02 
  57652.4799     0.10390E+02 
  57684.7421     0.10255E+02 
  57717.0042     0.10121E+02 
  57749.2664     0.99873E+01 
  57781.5286     0.98551E+01 
  57813.7907     0.97241E+01 
  57846.0529     0.95940E+01 
  57878.3150     0.94651E+01 
  57910.5772     0.93371E+01 
  57942.8394     0.92102E+01 
  57975.1015     0.90844E+01 
  58007.3637     0.89596E+01 
  58039.6258     0.88358E+01 
  58071.8880     0.87131E+01 
  58104.1502     0.85914E+01 
  58136.4123     0.84706E+01 
  58168.6745     0.83509E+01 
  58200.9366     0.82322E+01 
  58233.1988     0.81145E+01 
  58265.4610     0.79979E+01 
  58297.7231     0.78821E+01 
  58329.9853     0.77674E+01 
  58362.2474     0.76537E+01 
  58394.5096     0.75410E+01 
  58426.7718     0.74292E+01 
  58459.0339     0.73184E+01 
  58491.2961     0.72085E+01 
  58523.5582     0.70997E+01 
  58555.8204     0.69917E+01 
  58588.0826     0.68848E+01 
  58620.3447     0.67788E+01 
  58652.6069     0.66737E+01 
  58684.8690     0.65696E+01 
  58717.1312     0.64664E+01 
  58749.3934     0.63641E+01 
  58781.6555     0.62628E+01 
  58813.9177     0.61624E+01 
  58846.1798     0.60629E+01 
  58878.4420     0.59643E+01 
  58910.7042     0.58667E+01 
  58942.9663     0.57699E+01 
  58975.2285     0.56741E+01 
  59007.4906     0.55792E+01 
  59039.7528     0.54851E+01 
  59072.0150     0.53920E+01 
  59104.2771     0.52998E+01 
  59136.5393     0.52084E+01 
  59168.8014     0.51179E+01 
  59201.0636     0.50284E+01 
  59233.3258     0.49396E+01 
  59265.5879     0.48518E+01 
  59297.8501     0.47648E+01 
  59330.1122     0.46788E+01 
  59362.3744     0.45935E+01 
  59394.6366     0.45092E+01 
  59426.8987     0.44257E+01 
  59459.1609     0.43430E+01 
  59491.4230     0.42612E+01 
  59523.6852     0.41803E+01 
  59555.9474     0.41002E+01 
  59588.2095     0.40210E+01 
  59620.4717     0.39426E+01 
  59652.7338     0.38650E+01 
  59684.9960     0.37883E+01 
  59717.2582     0.37124E+01 
  59749.5203     0.36373E+01 
  59781.7825     0.35631E+01 
  59814.0446     0.34897E+01 
  59846.3068     0.34172E+01 
  59878.5690     0.33454E+01 
  59910.8311     0.32745E+01 
  59943.0933     0.32044E+01 
  59975.3554     0.31352E+01 
  60007.6176     0.30667E+01 
  60039.8798     0.29991E+01 
  60072.1419     0.29322E+01 
  60104.4041     0.28662E+01 
  60136.6662     0.28010E+01 
  60168.9284     0.27366E+01 
  60201.1906     0.26731E+01 
  60233.4527     0.26103E+01 
  60265.7149     0.25483E+01 
  60297.9770     0.24871E+01 
  60330.2392     0.24268E+01 
  60362.5014     0.23672E+01 
  60394.7635     0.23085E+01 
  60427.0257     0.22505E+01 
  60459.2878     0.21934E+01 
  60491.5500     0.21370E+01 
  60523.8122     0.20815E+01 
  60556.0743     0.20267E+01 
  60588.3365     0.19728E+01 
  60620.5986     0.19196E+01 
  60652.8608     0.18673E+01 
  60685.1230     0.18157E+01 
  60717.3851     0.17650E+01 
  60749.6473     0.17150E+01 
  60781.9094     0.16659E+01 
  60814.1716     0.16175E+01 
  60846.4338     0.15700E+01 
  60878.6959     0.15232E+01 
  60910.9581     0.14773E+01 
  60943.2202     0.14321E+01 
  60975.4824     0.13878E+01 
  61007.7446     0.13443E+01 
  61040.0067     0.13015E+01 
  61072.2689     0.12596E+01 
  61104.5310     0.12185E+01 
  61136.7932     0.11782E+01 
  61169.0554     0.11387E+01 
  61201.3175     0.11001E+01 
  61233.5797     0.10622E+01 
  61265.8418     0.10252E+01 
  61298.1040     0.98898E+00 
  61330.3662     0.95360E+00 
  61362.6283     0.91904E+00 
  61394.8905     0.88531E+00 
  61427.1526     0.85241E+00 
  61459.4148     0.82035E+00 
  61491.6770     0.78913E+00 
  61523.9391     0.75874E+00 
  61556.2013     0.72920E+00 
  61588.4634     0.70051E+00 
  61620.7256     0.67268E+00 
  61652.9878     0.64569E+00 
  61685.2499     0.61957E+00 
  61717.5121     0.59431E+00 
  61749.7742     0.56992E+00 
  61782.0364     0.54641E+00 
  61814.2986     0.52377E+00 
  61846.5607     0.50202E+00 
  61878.8229     0.48115E+00 
  61911.0850     0.46118E+00 
  61943.3472     0.44210E+00 
  61975.6094     0.42393E+00 
  62007.8715     0.40668E+00 
  62040.1337     0.39033E+00 
  62072.3958     0.37491E+00 
  62104.6580     0.36042E+00 
  62136.9202     0.34687E+00 
  62169.1823     0.33426E+00 
  62201.4445     0.32260E+00 
  62233.7066     0.31189E+00 
  62265.9688     0.30215E+00 
  62298.2310     0.29339E+00 
  62330.4931     0.28560E+00 
  62362.7553     0.27881E+00 
  62395.0174     0.27301E+00 
  62427.2796     0.26821E+00 
  62459.5418     0.26444E+00 
  62491.8039     0.26168E+00 
  62524.0661     0.25996E+00 
  62556.3282     0.25929E+00 
  62588.5904     0.25966E+00 
  62620.8526     0.26111E+00 
  62653.1147     0.26362E+00 
  62685.3769     0.26722E+00 
  62717.6390     0.27192E+00 
  62749.9012     0.27773E+00 
  62782.1634     0.28465E+00 
  62814.4255     0.29271E+00 
  62846.6877     0.30191E+00 
  62878.9498     0.31226E+00 
  62911.2120     0.32379E+00 
  62943.4742     0.33650E+00 
  62975.7363     0.35040E+00 
  63007.9985     0.36551E+00 
  63040.2606     0.38185E+00 
  63072.5228     0.39943E+00 
  63104.7850     0.41826E+00 
  63137.0471     0.43836E+00 
  63169.3093     0.45974E+00 
  63201.5714     0.48243E+00 
  63233.8336     0.50643E+00 
  63266.0958     0.53177E+00 
  63298.3579     0.55845E+00 
  63330.6201     0.58651E+00 
  63362.8822     0.61595E+00 
  63395.1444     0.64679E+00 
  63427.4066     0.67906E+00 
  63459.6687     0.71277E+00 
  63491.9309     0.74795E+00 
  63524.1930     0.78460E+00 
  63556.4552     0.82276E+00 
  63588.7174     0.86244E+00 
  63620.9795     0.90367E+00 
  63653.2417     0.94646E+00 
  63685.5038     0.99084E+00 
  63717.7660     0.10368E+01 
  63750.0282     0.10845E+01 
  63782.2903     0.11337E+01 
  63814.5525     0.11847E+01 
  63846.8146     0.12374E+01 
  63879.0768     0.12918E+01 
  63911.3390     0.13480E+01 
  63943.6011     0.14059E+01 
  63975.8633     0.14657E+01 
  64008.1254     0.15273E+01 
  64040.3876     0.15908E+01 
  64072.6498     0.16561E+01 
  64104.9119     0.17234E+01 
  64137.1741     0.17927E+01 
  64169.4362     0.18639E+01 
  64201.6984     0.19372E+01 
  64233.9606     0.20125E+01 
  64266.2227     0.20898E+01 
  64298.4849     0.21693E+01 
  64330.7470     0.22510E+01 
  64363.0092     0.23348E+01 
  64395.2714     0.24208E+01 
  64427.5335     0.25091E+01 
  64459.7957     0.25997E+01 
  64492.0578     0.26925E+01 
  64524.3200     0.27878E+01 
  64556.5822     0.28854E+01 
  64588.8443     0.29855E+01 
  64621.1065     0.30881E+01 
  64653.3686     0.31932E+01 
  64685.6308     0.33008E+01 
  64717.8930     0.34111E+01 
  64750.1551     0.35240E+01 
  64782.4173     0.36395E+01 
  64814.6794     0.37578E+01 
  64846.9416     0.38789E+01 
  64879.2038     0.40028E+01 
  64911.4659     0.41296E+01 
  64943.7281     0.42593E+01 
  64975.9902     0.43920E+01 
  65008.2524     0.45276E+01 
  65040.5146     0.46664E+01 
  65072.7767     0.48082E+01 
  65105.0389     0.49533E+01 
  65137.3010     0.51015E+01 
  65169.5632     0.52531E+01 
  65201.8254     0.54079E+01 
  65234.0875     0.55662E+01 
  65266.3497     0.57278E+01 
  65298.6118     0.58930E+01 
  65330.8740     0.60618E+01 
  65363.1362     0.62342E+01 
  65395.3983     0.64102E+01 
  65427.6605     0.65900E+01 
  65459.9226     0.67736E+01 
  65492.1848     0.69611E+01 
  65524.4470     0.71525E+01 
  65556.7091     0.73479E+01 
  65588.9713     0.75474E+01 
  65621.2334     0.77510E+01 
  65653.4956     0.79588E+01 
  65685.7578     0.81709E+01 
  65718.0199     0.83873E+01 
  65750.2821     0.86082E+01 
  65782.5442     0.88336E+01 
  65814.8064     0.90635E+01 
  65847.0686     0.92981E+01 
  65879.3307     0.95374E+01 
  65911.5929     0.97815E+01 
  65943.8550     0.10030E+02 
  65976.1172     0.10284E+02 
  66008.3794     0.10543E+02 
  66040.6415     0.10808E+02 
  66072.9037     0.11077E+02 
  66105.1658     0.11352E+02 
  66137.4280     0.11632E+02 
  66169.6902     0.11917E+02 
  66201.9523     0.12208E+02 
  66234.2145     0.12505E+02 
  66266.4766     0.12808E+02 
  66298.7388     0.13116E+02 
  66331.0010     0.13430E+02 
  66363.2631     0.13751E+02 
  66395.5253     0.14077E+02 
  66427.7874     0.14410E+02 
  66460.0496     0.14749E+02 
  66492.3118     0.15095E+02 
  66524.5739     0.15447E+02 
  66556.8361     0.15806E+02 
  66589.0982     0.16171E+02 
  66621.3604     0.16543E+02 
  66653.6226     0.16923E+02 
  66685.8847     0.17309E+02 
  66718.1469     0.17703E+02 
  66750.4090     0.18104E+02 
  66782.6712     0.18513E+02 
  66814.9334     0.18929E+02 
  66847.1955     0.19353E+02 
  66879.4577     0.19784E+02 
  66911.7198     0.20224E+02 
  66943.9820     0.20671E+02 
  66976.2442     0.21127E+02 
  67008.5063     0.21591E+02 
  67040.7685     0.22064E+02 
  67073.0306     0.22545E+02 
  67105.2928     0.23034E+02 
  67137.5550     0.23533E+02 
  67169.8171     0.24041E+02 
  67202.0793     0.24557E+02 
  67234.3414     0.25083E+02 
  67266.6036     0.25619E+02 
  67298.8658     0.26164E+02 
  67331.1279     0.26718E+02 
  67363.3901     0.27283E+02 
  67395.6522     0.27857E+02 
  67427.9144     0.28442E+02 
  67460.1766     0.29037E+02 
  67492.4387     0.29642E+02 
  67524.7009     0.30258E+02 
  67556.9630     0.30885E+02 
  67589.2252     0.31523E+02 
  67621.4874     0.32171E+02 
  67653.7495     0.32831E+02 
  67686.0117     0.33503E+02 
  67718.2738     0.34186E+02 
  67750.5360     0.34880E+02 
  67782.7982     0.35587E+02 
  67815.0603     0.36305E+02 
  67847.3225     0.37036E+02 
  67879.5846     0.37780E+02 
  67911.8468     0.38536E+02 
  67944.1090     0.39305E+02 
  67976.3711     0.40086E+02 
  68008.6333     0.40881E+02 
  68040.8954     0.41690E+02 
  68073.1576     0.42511E+02 
  68105.4198     0.43347E+02 
  68137.6819     0.44196E+02 
  68169.9441     0.45060E+02 
  68202.2062     0.45938E+02 
  68234.4684     0.46830E+02 
  68266.7306     0.47737E+02 
  68298.9927     0.48659E+02 
  68331.2549     0.49596E+02 
  68363.5170     0.50549E+02 
  68395.7792     0.51517E+02 
  68428.0414     0.52500E+02 
  68460.3035     0.53500E+02 
  68492.5657     0.54515E+02 
  68524.8278     0.55547E+02 
  68557.0900     0.56596E+02 
  68589.3522     0.57661E+02 
  68621.6143     0.58744E+02 
  68653.8765     0.59843E+02 
  68686.1386     0.60960E+02 
  68718.4008     0.62095E+02 
  68750.6630     0.63247E+02 
  68782.9251     0.64418E+02 
  68815.1873     0.65607E+02 
  68847.4494     0.66815E+02 
  68879.7116     0.68041E+02 
  68911.9738     0.69286E+02 
  68944.2359     0.70551E+02 
  68976.4981     0.71835E+02 
  69008.7602     0.73139E+02 
  69041.0224     0.74463E+02 
  69073.2846     0.75807E+02 
  69105.5467     0.77172E+02 
  69137.8089     0.78557E+02 
  69170.0710     0.79964E+02 
  69202.3332     0.81391E+02 
  69234.5954     0.82840E+02 
  69266.8575     0.84311E+02 
  69299.1197     0.85803E+02 
  69331.3818     0.87318E+02 
  69363.6440     0.88856E+02 
  69395.9062     0.90416E+02 
  69428.1683     0.91999E+02 
  69460.4305     0.93605E+02 
  69492.6926     0.95235E+02 
  69524.9548     0.96889E+02 
  69557.2170     0.98566E+02 
  69589.4791     0.10027E+03 
  69621.7413     0.10199E+03 
  69654.0034     0.10375E+03 
  69686.2656     0.10552E+03 
  69718.5278     0.10732E+03 
  69750.7899     0.10915E+03 
  69783.0521     0.11100E+03 
  69815.3142     0.11288E+03 
  69847.5764     0.11479E+03 
  69879.8386     0.11672E+03 
  69912.1007     0.11868E+03 
  69944.3629     0.12067E+03 
  69976.6250     0.12268E+03 
  70008.8872     0.12472E+03 
  70041.1494     0.12679E+03 
  70073.4115     0.12889E+03 
  70105.6737     0.13102E+03 
  70137.9358     0.13318E+03 
  70170.1980     0.13536E+03 
  70202.4602     0.13758E+03 
  70234.7223     0.13982E+03 
  70266.9845     0.14210E+03 
  70299.2466     0.14440E+03 
  70331.5088     0.14674E+03 
  70363.7710     0.14910E+03 
  70396.0331     0.15150E+03 
  70428.2953     0.15393E+03 
  70460.5574     0.15639E+03 
  70492.8196     0.15888E+03 
  70525.0818     0.16141E+03 
  70557.3439     0.16396E+03 
  70589.6061     0.16656E+03 
  70621.8682     0.16918E+03 
  70654.1304     0.17184E+03 
  70686.3926     0.17453E+03 
  70718.6547     0.17725E+03 
  70750.9169     0.18001E+03 
  70783.1790     0.18280E+03 
  70815.4412     0.18563E+03 
  70847.7034     0.18849E+03 
  70879.9655     0.19139E+03 
  70912.2277     0.19433E+03 
  70944.4898     0.19730E+03 
  70976.7520     0.20030E+03 
  71009.0142     0.20335E+03 
  71041.2763     0.20642E+03 
  71073.5385     0.20954E+03 
  71105.8006     0.21269E+03 
  71138.0628     0.21589E+03 
  71170.3250     0.21911E+03 
  71202.5871     0.22238E+03 
  71234.8493     0.22569E+03 
  71267.1114     0.22903E+03 
  71299.3736     0.23241E+03 
  71331.6358     0.23584E+03 
  71363.8979     0.23930E+03 
  71396.1601     0.24280E+03 
  71428.4222     0.24634E+03 
  71460.6844     0.24992E+03 
  71492.9466     0.25354E+03 
  71525.2087     0.25720E+03 
  71557.4709     0.26091E+03 
  71589.7330     0.26465E+03 
  71621.9952     0.26844E+03 
  71654.2574     0.27226E+03 
  71686.5195     0.27613E+03 
  71718.7817     0.28004E+03 
  71751.0438     0.28400E+03 
  71783.3060     0.28799E+03 
  71815.5682     0.29203E+03 
  71847.8303     0.29612E+03 
  71880.0925     0.30024E+03 
  71912.3546     0.30441E+03 
  71944.6168     0.30862E+03 
  71976.8790     0.31288E+03 
  72009.1411     0.31718E+03 
  72041.4033     0.32152E+03 
  72073.6654     0.32591E+03 
  72105.9276     0.33035E+03 
  72138.1898     0.33483E+03 
  72170.4519     0.33935E+03 
  72202.7141     0.34392E+03 
  72234.9762     0.34853E+03 
  72267.2384     0.35319E+03 
  72299.5006     0.35790E+03 
  72331.7627     0.36265E+03 
  72364.0249     0.36745E+03 
  72396.2870     0.37230E+03 
  72428.5492     0.37719E+03 
  72460.8114     0.38213E+03 
  72493.0735     0.38711E+03 
  72525.3357     0.39214E+03 
  72557.5978     0.39722E+03 
  72589.8600     0.40235E+03 
