  32262.1600     0.12308E+00 
  32294.4222     0.12521E+00 
  32326.6843     0.12737E+00 
  32358.9465     0.12955E+00 
  32391.2086     0.13177E+00 
  32423.4708     0.13402E+00 
  32455.7330     0.13629E+00 
  32487.9951     0.13860E+00 
  32520.2573     0.14093E+00 
  32552.5194     0.14330E+00 
  32584.7816     0.14569E+00 
  32617.0438     0.14812E+00 
  32649.3059     0.15057E+00 
  32681.5681     0.15306E+00 
  32713.8302     0.15558E+00 
  32746.0924     0.15813E+00 
  32778.3546     0.16071E+00 
  32810.6167     0.16332E+00 
  32842.8789     0.16596E+00 
  32875.1410     0.16864E+00 
  32907.4032     0.17134E+00 
  32939.6654     0.17408E+00 
  32971.9275     0.17685E+00 
  33004.1897     0.17965E+00 
  33036.4518     0.18249E+00 
  33068.7140     0.18536E+00 
  33100.9762     0.18826E+00 
  33133.2383     0.19119E+00 
  33165.5005     0.19415E+00 
  33197.7626     0.19715E+00 
  33230.0248     0.20018E+00 
  33262.2870     0.20325E+00 
  33294.5491     0.20634E+00 
  33326.8113     0.20947E+00 
  33359.0734     0.21263E+00 
  33391.3356     0.21583E+00 
  33423.5978     0.21906E+00 
  33455.8599     0.22232E+00 
  33488.1221     0.22562E+00 
  33520.3842     0.22895E+00 
  33552.6464     0.23231E+00 
  33584.9086     0.23571E+00 
  33617.1707     0.23914E+00 
  33649.4329     0.24260E+00 
  33681.6950     0.24610E+00 
  33713.9572     0.24963E+00 
  33746.2194     0.25319E+00 
  33778.4815     0.25679E+00 
  33810.7437     0.26042E+00 
  33843.0058     0.26408E+00 
  33875.2680     0.26778E+00 
  33907.5302     0.27151E+00 
  33939.7923     0.27527E+00 
  33972.0545     0.27907E+00 
  34004.3166     0.28290E+00 
  34036.5788     0.28677E+00 
  34068.8410     0.29066E+00 
  34101.1031     0.29459E+00 
  34133.3653     0.29855E+00 
  34165.6274     0.30255E+00 
  34197.8896     0.30658E+00 
  34230.1518     0.31063E+00 
  34262.4139     0.31473E+00 
  34294.6761     0.31885E+00 
  34326.9382     0.32301E+00 
  34359.2004     0.32720E+00 
  34391.4626     0.33142E+00 
  34423.7247     0.33567E+00 
  34455.9869     0.33995E+00 
  34488.2490     0.34426E+00 
  34520.5112     0.34861E+00 
  34552.7734     0.35299E+00 
  34585.0355     0.35739E+00 
  34617.2977     0.36183E+00 
  34649.5598     0.36630E+00 
  34681.8220     0.37079E+00 
  34714.0842     0.37532E+00 
  34746.3463     0.37988E+00 
  34778.6085     0.38446E+00 
  34810.8706     0.38908E+00 
  34843.1328     0.39372E+00 
  34875.3950     0.39839E+00 
  34907.6571     0.40309E+00 
  34939.9193     0.40782E+00 
  34972.1814     0.41258E+00 
  35004.4436     0.41736E+00 
  35036.7058     0.42217E+00 
  35068.9679     0.42701E+00 
  35101.2301     0.43187E+00 
  35133.4922     0.43676E+00 
  35165.7544     0.44167E+00 
  35198.0166     0.44661E+00 
  35230.2787     0.45157E+00 
  35262.5409     0.45656E+00 
  35294.8030     0.46158E+00 
  35327.0652     0.46661E+00 
  35359.3274     0.47167E+00 
  35391.5895     0.47675E+00 
  35423.8517     0.48186E+00 
  35456.1138     0.48699E+00 
  35488.3760     0.49214E+00 
  35520.6382     0.49731E+00 
  35552.9003     0.50250E+00 
  35585.1625     0.50771E+00 
  35617.4246     0.51294E+00 
  35649.6868     0.51819E+00 
  35681.9490     0.52346E+00 
  35714.2111     0.52875E+00 
  35746.4733     0.53406E+00 
  35778.7354     0.53938E+00 
  35810.9976     0.54472E+00 
  35843.2598     0.55008E+00 
  35875.5219     0.55545E+00 
  35907.7841     0.56084E+00 
  35940.0462     0.56625E+00 
  35972.3084     0.57167E+00 
  36004.5706     0.57710E+00 
  36036.8327     0.58255E+00 
  36069.0949     0.58800E+00 
  36101.3570     0.59348E+00 
  36133.6192     0.59896E+00 
  36165.8814     0.60445E+00 
  36198.1435     0.60996E+00 
  36230.4057     0.61547E+00 
  36262.6678     0.62100E+00 
  36294.9300     0.62653E+00 
  36327.1922     0.63208E+00 
  36359.4543     0.63763E+00 
  36391.7165     0.64318E+00 
  36423.9786     0.64875E+00 
  36456.2408     0.65432E+00 
  36488.5030     0.65989E+00 
  36520.7651     0.66547E+00 
  36553.0273     0.67106E+00 
  36585.2894     0.67664E+00 
  36617.5516     0.68223E+00 
  36649.8138     0.68783E+00 
  36682.0759     0.69342E+00 
  36714.3381     0.69902E+00 
  36746.6002     0.70461E+00 
  36778.8624     0.71021E+00 
  36811.1246     0.71581E+00 
  36843.3867     0.72140E+00 
  36875.6489     0.72699E+00 
  36907.9110     0.73258E+00 
  36940.1732     0.73816E+00 
  36972.4354     0.74375E+00 
  37004.6975     0.74932E+00 
  37036.9597     0.75489E+00 
  37069.2218     0.76046E+00 
  37101.4840     0.76602E+00 
  37133.7462     0.77157E+00 
  37166.0083     0.77711E+00 
  37198.2705     0.78264E+00 
  37230.5326     0.78817E+00 
  37262.7948     0.79368E+00 
  37295.0570     0.79919E+00 
  37327.3191     0.80468E+00 
  37359.5813     0.81016E+00 
  37391.8434     0.81563E+00 
  37424.1056     0.82108E+00 
  37456.3678     0.82652E+00 
  37488.6299     0.83195E+00 
  37520.8921     0.83736E+00 
  37553.1542     0.84276E+00 
  37585.4164     0.84813E+00 
  37617.6786     0.85350E+00 
  37649.9407     0.85884E+00 
  37682.2029     0.86416E+00 
  37714.4650     0.86947E+00 
  37746.7272     0.87475E+00 
  37778.9894     0.88002E+00 
  37811.2515     0.88526E+00 
  37843.5137     0.89048E+00 
  37875.7758     0.89568E+00 
  37908.0380     0.90086E+00 
  37940.3002     0.90601E+00 
  37972.5623     0.91114E+00 
  38004.8245     0.91624E+00 
  38037.0866     0.92132E+00 
  38069.3488     0.92637E+00 
  38101.6110     0.93140E+00 
  38133.8731     0.93639E+00 
  38166.1353     0.94136E+00 
  38198.3974     0.94630E+00 
  38230.6596     0.95121E+00 
  38262.9218     0.95609E+00 
  38295.1839     0.96094E+00 
  38327.4461     0.96576E+00 
  38359.7082     0.97055E+00 
  38391.9704     0.97530E+00 
  38424.2326     0.98003E+00 
  38456.4947     0.98471E+00 
  38488.7569     0.98937E+00 
  38521.0190     0.99399E+00 
  38553.2812     0.99858E+00 
  38585.5434     0.10031E+01 
  38617.8055     0.10076E+01 
  38650.0677     0.10121E+01 
  38682.3298     0.10166E+01 
  38714.5920     0.10210E+01 
  38746.8542     0.10253E+01 
  38779.1163     0.10296E+01 
  38811.3785     0.10339E+01 
  38843.6406     0.10382E+01 
  38875.9028     0.10424E+01 
  38908.1650     0.10465E+01 
  38940.4271     0.10507E+01 
  38972.6893     0.10547E+01 
  39004.9514     0.10588E+01 
  39037.2136     0.10628E+01 
  39069.4758     0.10667E+01 
  39101.7379     0.10706E+01 
  39134.0001     0.10745E+01 
  39166.2622     0.10783E+01 
  39198.5244     0.10821E+01 
  39230.7866     0.10858E+01 
  39263.0487     0.10895E+01 
  39295.3109     0.10932E+01 
  39327.5730     0.10967E+01 
  39359.8352     0.11003E+01 
  39392.0974     0.11038E+01 
  39424.3595     0.11072E+01 
  39456.6217     0.11106E+01 
  39488.8838     0.11140E+01 
  39521.1460     0.11173E+01 
  39553.4082     0.11205E+01 
  39585.6703     0.11238E+01 
  39617.9325     0.11269E+01 
  39650.1946     0.11300E+01 
  39682.4568     0.11331E+01 
  39714.7190     0.11361E+01 
  39746.9811     0.11390E+01 
  39779.2433     0.11419E+01 
  39811.5054     0.11448E+01 
  39843.7676     0.11476E+01 
  39876.0298     0.11503E+01 
  39908.2919     0.11530E+01 
  39940.5541     0.11557E+01 
  39972.8162     0.11583E+01 
  40005.0784     0.11608E+01 
  40037.3406     0.11633E+01 
  40069.6027     0.11657E+01 
  40101.8649     0.11681E+01 
  40134.1270     0.11704E+01 
  40166.3892     0.11727E+01 
  40198.6514     0.11749E+01 
  40230.9135     0.11770E+01 
  40263.1757     0.11792E+01 
  40295.4378     0.11812E+01 
  40327.7000     0.11832E+01 
  40359.9622     0.11851E+01 
  40392.2243     0.11870E+01 
  40424.4865     0.11889E+01 
  40456.7486     0.11906E+01 
  40489.0108     0.11924E+01 
  40521.2730     0.11940E+01 
  40553.5351     0.11956E+01 
  40585.7973     0.11972E+01 
  40618.0594     0.11987E+01 
  40650.3216     0.12001E+01 
  40682.5838     0.12015E+01 
  40714.8459     0.12028E+01 
  40747.1081     0.12041E+01 
  40779.3702     0.12053E+01 
  40811.6324     0.12065E+01 
  40843.8946     0.12076E+01 
  40876.1567     0.12087E+01 
  40908.4189     0.12097E+01 
  40940.6810     0.12106E+01 
  40972.9432     0.12115E+01 
  41005.2054     0.12123E+01 
  41037.4675     0.12131E+01 
  41069.7297     0.12138E+01 
  41101.9918     0.12145E+01 
  41134.2540     0.12151E+01 
  41166.5162     0.12156E+01 
  41198.7783     0.12161E+01 
  41231.0405     0.12166E+01 
  41263.3026     0.12170E+01 
  41295.5648     0.12173E+01 
  41327.8270     0.12176E+01 
  41360.0891     0.12178E+01 
  41392.3513     0.12180E+01 
  41424.6134     0.12181E+01 
  41456.8756     0.12181E+01 
  41489.1378     0.12181E+01 
  41521.3999     0.12181E+01 
  41553.6621     0.12180E+01 
  41585.9242     0.12178E+01 
  41618.1864     0.12176E+01 
  41650.4486     0.12173E+01 
  41682.7107     0.12170E+01 
  41714.9729     0.12167E+01 
  41747.2350     0.12162E+01 
  41779.4972     0.12158E+01 
  41811.7594     0.12152E+01 
  41844.0215     0.12147E+01 
  41876.2837     0.12140E+01 
  41908.5458     0.12133E+01 
  41940.8080     0.12126E+01 
  41973.0702     0.12118E+01 
  42005.3323     0.12110E+01 
  42037.5945     0.12101E+01 
  42069.8566     0.12092E+01 
  42102.1188     0.12082E+01 
  42134.3810     0.12071E+01 
  42166.6431     0.12060E+01 
  42198.9053     0.12049E+01 
  42231.1674     0.12037E+01 
  42263.4296     0.12025E+01 
  42295.6918     0.12012E+01 
  42327.9539     0.11999E+01 
  42360.2161     0.11985E+01 
  42392.4782     0.11971E+01 
  42424.7404     0.11956E+01 
  42457.0026     0.11941E+01 
  42489.2647     0.11925E+01 
  42521.5269     0.11909E+01 
  42553.7890     0.11892E+01 
  42586.0512     0.11875E+01 
  42618.3134     0.11858E+01 
  42650.5755     0.11840E+01 
  42682.8377     0.11822E+01 
  42715.0998     0.11803E+01 
  42747.3620     0.11783E+01 
  42779.6242     0.11764E+01 
  42811.8863     0.11744E+01 
  42844.1485     0.11723E+01 
  42876.4106     0.11702E+01 
  42908.6728     0.11681E+01 
  42940.9350     0.11659E+01 
  42973.1971     0.11637E+01 
  43005.4593     0.11614E+01 
  43037.7214     0.11591E+01 
  43069.9836     0.11568E+01 
  43102.2458     0.11544E+01 
  43134.5079     0.11520E+01 
  43166.7701     0.11495E+01 
  43199.0322     0.11470E+01 
  43231.2944     0.11445E+01 
  43263.5566     0.11419E+01 
  43295.8187     0.11393E+01 
  43328.0809     0.11366E+01 
  43360.3430     0.11340E+01 
  43392.6052     0.11312E+01 
  43424.8674     0.11285E+01 
  43457.1295     0.11257E+01 
  43489.3917     0.11229E+01 
  43521.6538     0.11200E+01 
  43553.9160     0.11171E+01 
  43586.1782     0.11142E+01 
  43618.4403     0.11112E+01 
  43650.7025     0.11082E+01 
  43682.9646     0.11052E+01 
  43715.2268     0.11022E+01 
  43747.4890     0.10991E+01 
  43779.7511     0.10960E+01 
  43812.0133     0.10928E+01 
  43844.2754     0.10896E+01 
  43876.5376     0.10864E+01 
  43908.7998     0.10832E+01 
  43941.0619     0.10799E+01 
  43973.3241     0.10766E+01 
  44005.5862     0.10733E+01 
  44037.8484     0.10700E+01 
  44070.1106     0.10666E+01 
  44102.3727     0.10632E+01 
  44134.6349     0.10597E+01 
  44166.8970     0.10563E+01 
  44199.1592     0.10528E+01 
  44231.4214     0.10493E+01 
  44263.6835     0.10458E+01 
  44295.9457     0.10422E+01 
  44328.2078     0.10386E+01 
  44360.4700     0.10350E+01 
  44392.7322     0.10314E+01 
  44424.9943     0.10278E+01 
  44457.2565     0.10241E+01 
  44489.5186     0.10204E+01 
  44521.7808     0.10167E+01 
  44554.0430     0.10130E+01 
  44586.3051     0.10092E+01 
  44618.5673     0.10055E+01 
  44650.8294     0.10017E+01 
  44683.0916     0.99788E+00 
  44715.3538     0.99406E+00 
  44747.6159     0.99021E+00 
  44779.8781     0.98635E+00 
  44812.1402     0.98248E+00 
  44844.4024     0.97858E+00 
  44876.6646     0.97467E+00 
  44908.9267     0.97074E+00 
  44941.1889     0.96680E+00 
  44973.4510     0.96285E+00 
  45005.7132     0.95887E+00 
  45037.9754     0.95489E+00 
  45070.2375     0.95089E+00 
  45102.4997     0.94687E+00 
  45134.7618     0.94285E+00 
  45167.0240     0.93881E+00 
  45199.2862     0.93476E+00 
  45231.5483     0.93069E+00 
  45263.8105     0.92662E+00 
  45296.0726     0.92253E+00 
  45328.3348     0.91844E+00 
  45360.5970     0.91433E+00 
  45392.8591     0.91021E+00 
  45425.1213     0.90609E+00 
  45457.3834     0.90195E+00 
  45489.6456     0.89781E+00 
  45521.9078     0.89365E+00 
  45554.1699     0.88949E+00 
  45586.4321     0.88533E+00 
  45618.6942     0.88115E+00 
  45650.9564     0.87697E+00 
  45683.2186     0.87278E+00 
  45715.4807     0.86858E+00 
  45747.7429     0.86438E+00 
  45780.0050     0.86017E+00 
  45812.2672     0.85596E+00 
  45844.5294     0.85175E+00 
  45876.7915     0.84752E+00 
  45909.0537     0.84330E+00 
  45941.3158     0.83907E+00 
  45973.5780     0.83484E+00 
  46005.8402     0.83060E+00 
  46038.1023     0.82636E+00 
  46070.3645     0.82212E+00 
  46102.6266     0.81788E+00 
  46134.8888     0.81364E+00 
  46167.1510     0.80939E+00 
  46199.4131     0.80514E+00 
  46231.6753     0.80090E+00 
  46263.9374     0.79665E+00 
  46296.1996     0.79240E+00 
  46328.4618     0.78815E+00 
  46360.7239     0.78390E+00 
  46392.9861     0.77966E+00 
  46425.2482     0.77541E+00 
  46457.5104     0.77116E+00 
  46489.7726     0.76692E+00 
  46522.0347     0.76268E+00 
  46554.2969     0.75844E+00 
  46586.5590     0.75420E+00 
  46618.8212     0.74997E+00 
  46651.0834     0.74574E+00 
  46683.3455     0.74151E+00 
  46715.6077     0.73729E+00 
  46747.8698     0.73307E+00 
  46780.1320     0.72885E+00 
  46812.3942     0.72464E+00 
  46844.6563     0.72043E+00 
  46876.9185     0.71623E+00 
  46909.1806     0.71204E+00 
  46941.4428     0.70785E+00 
  46973.7050     0.70366E+00 
  47005.9671     0.69948E+00 
  47038.2293     0.69531E+00 
  47070.4914     0.69114E+00 
  47102.7536     0.68698E+00 
  47135.0158     0.68283E+00 
  47167.2779     0.67868E+00 
  47199.5401     0.67454E+00 
  47231.8022     0.67041E+00 
  47264.0644     0.66629E+00 
  47296.3266     0.66217E+00 
  47328.5887     0.65806E+00 
  47360.8509     0.65396E+00 
  47393.1130     0.64987E+00 
  47425.3752     0.64579E+00 
  47457.6374     0.64172E+00 
  47489.8995     0.63765E+00 
  47522.1617     0.63360E+00 
  47554.4238     0.62956E+00 
  47586.6860     0.62552E+00 
  47618.9482     0.62150E+00 
  47651.2103     0.61748E+00 
  47683.4725     0.61348E+00 
  47715.7346     0.60949E+00 
  47747.9968     0.60550E+00 
  47780.2590     0.60153E+00 
  47812.5211     0.59757E+00 
  47844.7833     0.59362E+00 
  47877.0454     0.58968E+00 
  47909.3076     0.58576E+00 
  47941.5698     0.58184E+00 
  47973.8319     0.57794E+00 
  48006.0941     0.57405E+00 
  48038.3562     0.57017E+00 
  48070.6184     0.56630E+00 
  48102.8806     0.56245E+00 
  48135.1427     0.55860E+00 
  48167.4049     0.55478E+00 
  48199.6670     0.55096E+00 
  48231.9292     0.54716E+00 
  48264.1914     0.54337E+00 
  48296.4535     0.53959E+00 
  48328.7157     0.53583E+00 
  48360.9778     0.53208E+00 
  48393.2400     0.52834E+00 
  48425.5022     0.52462E+00 
  48457.7643     0.52091E+00 
  48490.0265     0.51721E+00 
  48522.2886     0.51353E+00 
  48554.5508     0.50987E+00 
  48586.8130     0.50622E+00 
  48619.0751     0.50258E+00 
  48651.3373     0.49895E+00 
  48683.5994     0.49535E+00 
  48715.8616     0.49175E+00 
  48748.1238     0.48817E+00 
  48780.3859     0.48461E+00 
  48812.6481     0.48106E+00 
  48844.9102     0.47752E+00 
  48877.1724     0.47400E+00 
  48909.4346     0.47050E+00 
  48941.6967     0.46701E+00 
  48973.9589     0.46353E+00 
  49006.2210     0.46008E+00 
  49038.4832     0.45663E+00 
  49070.7454     0.45320E+00 
  49103.0075     0.44979E+00 
  49135.2697     0.44640E+00 
  49167.5318     0.44302E+00 
  49199.7940     0.43965E+00 
  49232.0562     0.43630E+00 
  49264.3183     0.43297E+00 
  49296.5805     0.42965E+00 
  49328.8426     0.42635E+00 
  49361.1048     0.42306E+00 
  49393.3670     0.41979E+00 
  49425.6291     0.41654E+00 
  49457.8913     0.41330E+00 
  49490.1534     0.41008E+00 
  49522.4156     0.40688E+00 
  49554.6778     0.40369E+00 
  49586.9399     0.40051E+00 
  49619.2021     0.39736E+00 
  49651.4642     0.39422E+00 
  49683.7264     0.39109E+00 
  49715.9886     0.38799E+00 
  49748.2507     0.38490E+00 
  49780.5129     0.38182E+00 
  49812.7750     0.37876E+00 
  49845.0372     0.37572E+00 
  49877.2994     0.37270E+00 
  49909.5615     0.36969E+00 
  49941.8237     0.36670E+00 
  49974.0858     0.36372E+00 
  50006.3480     0.36076E+00 
  50038.6102     0.35782E+00 
  50070.8723     0.35489E+00 
  50103.1345     0.35198E+00 
  50135.3966     0.34909E+00 
  50167.6588     0.34621E+00 
  50199.9210     0.34335E+00 
  50232.1831     0.34051E+00 
  50264.4453     0.33768E+00 
  50296.7074     0.33487E+00 
  50328.9696     0.33208E+00 
  50361.2318     0.32930E+00 
  50393.4939     0.32654E+00 
  50425.7561     0.32379E+00 
  50458.0182     0.32106E+00 
  50490.2804     0.31835E+00 
  50522.5426     0.31566E+00 
  50554.8047     0.31298E+00 
  50587.0669     0.31032E+00 
  50619.3290     0.30767E+00 
  50651.5912     0.30504E+00 
  50683.8534     0.30243E+00 
  50716.1155     0.29983E+00 
  50748.3777     0.29725E+00 
  50780.6398     0.29468E+00 
  50812.9020     0.29213E+00 
  50845.1642     0.28960E+00 
  50877.4263     0.28709E+00 
  50909.6885     0.28459E+00 
  50941.9506     0.28210E+00 
  50974.2128     0.27963E+00 
  51006.4750     0.27718E+00 
  51038.7371     0.27475E+00 
  51070.9993     0.27233E+00 
  51103.2614     0.26992E+00 
  51135.5236     0.26753E+00 
  51167.7858     0.26516E+00 
  51200.0479     0.26280E+00 
  51232.3101     0.26046E+00 
  51264.5722     0.25814E+00 
  51296.8344     0.25583E+00 
  51329.0966     0.25353E+00 
  51361.3587     0.25126E+00 
  51393.6209     0.24899E+00 
  51425.8830     0.24675E+00 
  51458.1452     0.24451E+00 
  51490.4074     0.24230E+00 
  51522.6695     0.24010E+00 
  51554.9317     0.23791E+00 
  51587.1938     0.23574E+00 
  51619.4560     0.23359E+00 
  51651.7182     0.23145E+00 
  51683.9803     0.22932E+00 
  51716.2425     0.22721E+00 
  51748.5046     0.22512E+00 
  51780.7668     0.22304E+00 
  51813.0290     0.22097E+00 
  51845.2911     0.21892E+00 
  51877.5533     0.21688E+00 
  51909.8154     0.21486E+00 
  51942.0776     0.21286E+00 
  51974.3398     0.21087E+00 
  52006.6019     0.20889E+00 
  52038.8641     0.20693E+00 
  52071.1262     0.20498E+00 
  52103.3884     0.20304E+00 
  52135.6506     0.20112E+00 
  52167.9127     0.19922E+00 
  52200.1749     0.19733E+00 
  52232.4370     0.19545E+00 
  52264.6992     0.19359E+00 
  52296.9614     0.19174E+00 
  52329.2235     0.18990E+00 
  52361.4857     0.18808E+00 
  52393.7478     0.18628E+00 
  52426.0100     0.18448E+00 
  52458.2722     0.18270E+00 
  52490.5343     0.18094E+00 
  52522.7965     0.17918E+00 
  52555.0586     0.17744E+00 
  52587.3208     0.17572E+00 
  52619.5830     0.17401E+00 
  52651.8451     0.17231E+00 
  52684.1073     0.17062E+00 
  52716.3694     0.16895E+00 
  52748.6316     0.16729E+00 
  52780.8938     0.16564E+00 
  52813.1559     0.16401E+00 
  52845.4181     0.16239E+00 
  52877.6802     0.16078E+00 
  52909.9424     0.15918E+00 
  52942.2046     0.15760E+00 
  52974.4667     0.15603E+00 
  53006.7289     0.15447E+00 
  53038.9910     0.15293E+00 
  53071.2532     0.15139E+00 
  53103.5154     0.14987E+00 
  53135.7775     0.14837E+00 
  53168.0397     0.14687E+00 
  53200.3018     0.14539E+00 
  53232.5640     0.14391E+00 
  53264.8262     0.14245E+00 
  53297.0883     0.14101E+00 
  53329.3505     0.13957E+00 
  53361.6126     0.13815E+00 
  53393.8748     0.13673E+00 
  53426.1370     0.13533E+00 
  53458.3991     0.13394E+00 
  53490.6613     0.13257E+00 
  53522.9234     0.13120E+00 
  53555.1856     0.12984E+00 
  53587.4478     0.12850E+00 
  53619.7099     0.12717E+00 
  53651.9721     0.12585E+00 
  53684.2342     0.12454E+00 
  53716.4964     0.12324E+00 
  53748.7586     0.12195E+00 
  53781.0207     0.12067E+00 
  53813.2829     0.11940E+00 
  53845.5450     0.11815E+00 
  53877.8072     0.11690E+00 
  53910.0694     0.11567E+00 
  53942.3315     0.11444E+00 
  53974.5937     0.11323E+00 
  54006.8558     0.11203E+00 
  54039.1180     0.11084E+00 
  54071.3802     0.10965E+00 
  54103.6423     0.10848E+00 
  54135.9045     0.10732E+00 
  54168.1666     0.10617E+00 
  54200.4288     0.10502E+00 
  54232.6910     0.10389E+00 
  54264.9531     0.10277E+00 
  54297.2153     0.10166E+00 
  54329.4774     0.10055E+00 
  54361.7396     0.99459E-01 
  54394.0018     0.98375E-01 
  54426.2639     0.97301E-01 
  54458.5261     0.96236E-01 
  54490.7882     0.95181E-01 
  54523.0504     0.94134E-01 
  54555.3126     0.93098E-01 
  54587.5747     0.92070E-01 
  54619.8369     0.91051E-01 
  54652.0990     0.90042E-01 
  54684.3612     0.89041E-01 
  54716.6234     0.88050E-01 
  54748.8855     0.87067E-01 
  54781.1477     0.86093E-01 
  54813.4098     0.85128E-01 
  54845.6720     0.84171E-01 
  54877.9342     0.83223E-01 
  54910.1963     0.82284E-01 
  54942.4585     0.81353E-01 
  54974.7206     0.80430E-01 
  55006.9828     0.79516E-01 
  55039.2450     0.78610E-01 
  55071.5071     0.77713E-01 
  55103.7693     0.76823E-01 
  55136.0314     0.75942E-01 
  55168.2936     0.75069E-01 
  55200.5558     0.74203E-01 
  55232.8179     0.73346E-01 
  55265.0801     0.72496E-01 
  55297.3422     0.71655E-01 
  55329.6044     0.70821E-01 
  55361.8666     0.69994E-01 
  55394.1287     0.69176E-01 
  55426.3909     0.68365E-01 
  55458.6530     0.67561E-01 
  55490.9152     0.66765E-01 
  55523.1774     0.65976E-01 
  55555.4395     0.65195E-01 
  55587.7017     0.64421E-01 
  55619.9638     0.63654E-01 
  55652.2260     0.62894E-01 
  55684.4882     0.62141E-01 
  55716.7503     0.61396E-01 
  55749.0125     0.60657E-01 
  55781.2746     0.59925E-01 
  55813.5368     0.59200E-01 
  55845.7990     0.58482E-01 
  55878.0611     0.57771E-01 
  55910.3233     0.57067E-01 
  55942.5854     0.56369E-01 
  55974.8476     0.55678E-01 
  56007.1098     0.54993E-01 
  56039.3719     0.54315E-01 
  56071.6341     0.53643E-01 
  56103.8962     0.52978E-01 
  56136.1584     0.52319E-01 
  56168.4206     0.51666E-01 
  56200.6827     0.51020E-01 
  56232.9449     0.50380E-01 
  56265.2070     0.49745E-01 
  56297.4692     0.49117E-01 
  56329.7314     0.48495E-01 
  56361.9935     0.47879E-01 
  56394.2557     0.47269E-01 
  56426.5178     0.46665E-01 
  56458.7800     0.46067E-01 
  56491.0422     0.45475E-01 
  56523.3043     0.44888E-01 
  56555.5665     0.44307E-01 
  56587.8286     0.43731E-01 
  56620.0908     0.43162E-01 
  56652.3530     0.42597E-01 
  56684.6151     0.42039E-01 
  56716.8773     0.41485E-01 
  56749.1394     0.40938E-01 
  56781.4016     0.40395E-01 
  56813.6638     0.39858E-01 
  56845.9259     0.39326E-01 
  56878.1881     0.38800E-01 
  56910.4502     0.38278E-01 
  56942.7124     0.37762E-01 
  56974.9746     0.37251E-01 
  57007.2367     0.36745E-01 
  57039.4989     0.36244E-01 
  57071.7610     0.35748E-01 
  57104.0232     0.35257E-01 
  57136.2854     0.34770E-01 
  57168.5475     0.34289E-01 
  57200.8097     0.33813E-01 
  57233.0718     0.33341E-01 
  57265.3340     0.32874E-01 
  57297.5962     0.32411E-01 
  57329.8583     0.31954E-01 
  57362.1205     0.31501E-01 
  57394.3826     0.31052E-01 
  57426.6448     0.30608E-01 
  57458.9070     0.30169E-01 
  57491.1691     0.29734E-01 
  57523.4313     0.29303E-01 
  57555.6934     0.28877E-01 
  57587.9556     0.28455E-01 
  57620.2178     0.28038E-01 
  57652.4799     0.27625E-01 
  57684.7421     0.27216E-01 
  57717.0042     0.26811E-01 
  57749.2664     0.26410E-01 
  57781.5286     0.26014E-01 
  57813.7907     0.25622E-01 
  57846.0529     0.25233E-01 
  57878.3150     0.24849E-01 
  57910.5772     0.24469E-01 
  57942.8394     0.24092E-01 
  57975.1015     0.23720E-01 
  58007.3637     0.23352E-01 
  58039.6258     0.22987E-01 
  58071.8880     0.22626E-01 
  58104.1502     0.22269E-01 
  58136.4123     0.21916E-01 
  58168.6745     0.21567E-01 
  58200.9366     0.21221E-01 
  58233.1988     0.20879E-01 
  58265.4610     0.20541E-01 
  58297.7231     0.20206E-01 
  58329.9853     0.19875E-01 
  58362.2474     0.19547E-01 
  58394.5096     0.19223E-01 
  58426.7718     0.18903E-01 
  58459.0339     0.18586E-01 
  58491.2961     0.18272E-01 
  58523.5582     0.17962E-01 
  58555.8204     0.17655E-01 
  58588.0826     0.17351E-01 
  58620.3447     0.17051E-01 
  58652.6069     0.16755E-01 
  58684.8690     0.16461E-01 
  58717.1312     0.16171E-01 
  58749.3934     0.15884E-01 
  58781.6555     0.15600E-01 
  58813.9177     0.15319E-01 
  58846.1798     0.15042E-01 
  58878.4420     0.14768E-01 
  58910.7042     0.14497E-01 
  58942.9663     0.14228E-01 
  58975.2285     0.13963E-01 
  59007.4906     0.13701E-01 
  59039.7528     0.13443E-01 
  59072.0150     0.13187E-01 
  59104.2771     0.12934E-01 
  59136.5393     0.12684E-01 
  59168.8014     0.12437E-01 
  59201.0636     0.12192E-01 
  59233.3258     0.11951E-01 
  59265.5879     0.11713E-01 
  59297.8501     0.11477E-01 
  59330.1122     0.11245E-01 
  59362.3744     0.11015E-01 
  59394.6366     0.10788E-01 
  59426.8987     0.10563E-01 
  59459.1609     0.10342E-01 
  59491.4230     0.10123E-01 
  59523.6852     0.99069E-02 
  59555.9474     0.96935E-02 
  59588.2095     0.94828E-02 
  59620.4717     0.92748E-02 
  59652.7338     0.90695E-02 
  59684.9960     0.88667E-02 
  59717.2582     0.86666E-02 
  59749.5203     0.84691E-02 
  59781.7825     0.82742E-02 
  59814.0446     0.80819E-02 
  59846.3068     0.78921E-02 
  59878.5690     0.77048E-02 
  59910.8311     0.75201E-02 
  59943.0933     0.73379E-02 
  59975.3554     0.71582E-02 
  60007.6176     0.69810E-02 
  60039.8798     0.68063E-02 
  60072.1419     0.66340E-02 
  60104.4041     0.64642E-02 
  60136.6662     0.62968E-02 
  60168.9284     0.61319E-02 
  60201.1906     0.59693E-02 
  60233.4527     0.58092E-02 
  60265.7149     0.56514E-02 
  60297.9770     0.54960E-02 
  60330.2392     0.53430E-02 
  60362.5014     0.51924E-02 
  60394.7635     0.50441E-02 
  60427.0257     0.48981E-02 
  60459.2878     0.47545E-02 
  60491.5500     0.46132E-02 
  60523.8122     0.44742E-02 
  60556.0743     0.43375E-02 
  60588.3365     0.42031E-02 
  60620.5986     0.40710E-02 
  60652.8608     0.39412E-02 
  60685.1230     0.38136E-02 
  60717.3851     0.36884E-02 
  60749.6473     0.35653E-02 
  60781.9094     0.34446E-02 
  60814.1716     0.33261E-02 
  60846.4338     0.32098E-02 
  60878.6959     0.30957E-02 
  60910.9581     0.29839E-02 
  60943.2202     0.28744E-02 
  60975.4824     0.27670E-02 
  61007.7446     0.26619E-02 
  61040.0067     0.25590E-02 
  61072.2689     0.24583E-02 
  61104.5310     0.23598E-02 
  61136.7932     0.22635E-02 
  61169.0554     0.21694E-02 
  61201.3175     0.20775E-02 
  61233.5797     0.19879E-02 
  61265.8418     0.19004E-02 
  61298.1040     0.18151E-02 
  61330.3662     0.17320E-02 
  61362.6283     0.16512E-02 
  61394.8905     0.15725E-02 
  61427.1526     0.14960E-02 
  61459.4148     0.14217E-02 
  61491.6770     0.13497E-02 
  61523.9391     0.12798E-02 
  61556.2013     0.12121E-02 
  61588.4634     0.11467E-02 
  61620.7256     0.10834E-02 
  61652.9878     0.10224E-02 
  61685.2499     0.96358E-03 
  61717.5121     0.90699E-03 
  61749.7742     0.85261E-03 
  61782.0364     0.80046E-03 
  61814.2986     0.75055E-03 
  61846.5607     0.70288E-03 
  61878.8229     0.65745E-03 
  61911.0850     0.61427E-03 
  61943.3472     0.57335E-03 
  61975.6094     0.53469E-03 
  62007.8715     0.49830E-03 
  62040.1337     0.46420E-03 
  62072.3958     0.43237E-03 
  62104.6580     0.40285E-03 
  62136.9202     0.37563E-03 
  62169.1823     0.35072E-03 
  62201.4445     0.32814E-03 
  62233.7066     0.30789E-03 
  62265.9688     0.28999E-03 
  62298.2310     0.27444E-03 
  62330.4931     0.26126E-03 
  62362.7553     0.25046E-03 
  62395.0174     0.24205E-03 
  62427.2796     0.23605E-03 
  62459.5418     0.23247E-03 
  62491.8039     0.23132E-03 
  62524.0661     0.23261E-03 
  62556.3282     0.23637E-03 
  62588.5904     0.24261E-03 
  62620.8526     0.25135E-03 
  62653.1147     0.26259E-03 
  62685.3769     0.27636E-03 
  62717.6390     0.29268E-03 
  62749.9012     0.31157E-03 
  62782.1634     0.33303E-03 
  62814.4255     0.35710E-03 
  62846.6877     0.38379E-03 
  62878.9498     0.41312E-03 
  62911.2120     0.44512E-03 
  62943.4742     0.47980E-03 
  62975.7363     0.51719E-03 
  63007.9985     0.55730E-03 
  63040.2606     0.60018E-03 
  63072.5228     0.64583E-03 
  63104.7850     0.69428E-03 
  63137.0471     0.74557E-03 
  63169.3093     0.79971E-03 
  63201.5714     0.85673E-03 
  63233.8336     0.91665E-03 
  63266.0958     0.97952E-03 
  63298.3579     0.10454E-02 
  63330.6201     0.11142E-02 
  63362.8822     0.11860E-02 
  63395.1444     0.12609E-02 
  63427.4066     0.13389E-02 
  63459.6687     0.14201E-02 
  63491.9309     0.15043E-02 
  63524.1930     0.15918E-02 
  63556.4552     0.16825E-02 
  63588.7174     0.17765E-02 
  63620.9795     0.18737E-02 
  63653.2417     0.19743E-02 
  63685.5038     0.20783E-02 
  63717.7660     0.21856E-02 
  63750.0282     0.22965E-02 
  63782.2903     0.24108E-02 
  63814.5525     0.25287E-02 
  63846.8146     0.26501E-02 
  63879.0768     0.27752E-02 
  63911.3390     0.29039E-02 
  63943.6011     0.30364E-02 
  63975.8633     0.31726E-02 
  64008.1254     0.33126E-02 
  64040.3876     0.34565E-02 
  64072.6498     0.36044E-02 
  64104.9119     0.37561E-02 
  64137.1741     0.39119E-02 
  64169.4362     0.40718E-02 
  64201.6984     0.42358E-02 
  64233.9606     0.44040E-02 
  64266.2227     0.45764E-02 
  64298.4849     0.47531E-02 
  64330.7470     0.49342E-02 
  64363.0092     0.51197E-02 
  64395.2714     0.53097E-02 
  64427.5335     0.55043E-02 
  64459.7957     0.57034E-02 
  64492.0578     0.59073E-02 
  64524.3200     0.61159E-02 
  64556.5822     0.63293E-02 
  64588.8443     0.65477E-02 
  64621.1065     0.67710E-02 
  64653.3686     0.69993E-02 
  64685.6308     0.72328E-02 
  64717.8930     0.74715E-02 
  64750.1551     0.77154E-02 
  64782.4173     0.79647E-02 
  64814.6794     0.82195E-02 
  64846.9416     0.84798E-02 
  64879.2038     0.87457E-02 
  64911.4659     0.90174E-02 
  64943.7281     0.92948E-02 
  64975.9902     0.95782E-02 
  65008.2524     0.98675E-02 
  65040.5146     0.10163E-01 
  65072.7767     0.10465E-01 
  65105.0389     0.10772E-01 
  65137.3010     0.11087E-01 
  65169.5632     0.11408E-01 
  65201.8254     0.11735E-01 
  65234.0875     0.12069E-01 
  65266.3497     0.12410E-01 
  65298.6118     0.12758E-01 
  65330.8740     0.13113E-01 
  65363.1362     0.13475E-01 
  65395.3983     0.13845E-01 
  65427.6605     0.14222E-01 
  65459.9226     0.14606E-01 
  65492.1848     0.14999E-01 
  65524.4470     0.15399E-01 
  65556.7091     0.15807E-01 
  65588.9713     0.16223E-01 
  65621.2334     0.16648E-01 
  65653.4956     0.17080E-01 
  65685.7578     0.17522E-01 
  65718.0199     0.17972E-01 
  65750.2821     0.18431E-01 
  65782.5442     0.18899E-01 
  65814.8064     0.19377E-01 
  65847.0686     0.19863E-01 
  65879.3307     0.20360E-01 
  65911.5929     0.20866E-01 
  65943.8550     0.21382E-01 
  65976.1172     0.21908E-01 
  66008.3794     0.22444E-01 
  66040.6415     0.22991E-01 
  66072.9037     0.23548E-01 
  66105.1658     0.24117E-01 
  66137.4280     0.24696E-01 
  66169.6902     0.25287E-01 
  66201.9523     0.25889E-01 
  66234.2145     0.26503E-01 
  66266.4766     0.27129E-01 
  66298.7388     0.27767E-01 
  66331.0010     0.28417E-01 
  66363.2631     0.29080E-01 
  66395.5253     0.29757E-01 
  66427.7874     0.30446E-01 
  66460.0496     0.31148E-01 
  66492.3118     0.31865E-01 
  66524.5739     0.32595E-01 
  66556.8361     0.33339E-01 
  66589.0982     0.34098E-01 
  66621.3604     0.34872E-01 
  66653.6226     0.35661E-01 
  66685.8847     0.36465E-01 
  66718.1469     0.37285E-01 
  66750.4090     0.38120E-01 
  66782.6712     0.38973E-01 
  66814.9334     0.39841E-01 
  66847.1955     0.40727E-01 
  66879.4577     0.41630E-01 
  66911.7198     0.42551E-01 
  66943.9820     0.43490E-01 
  66976.2442     0.44447E-01 
  67008.5063     0.45422E-01 
  67040.7685     0.46417E-01 
  67073.0306     0.47432E-01 
  67105.2928     0.48466E-01 
  67137.5550     0.49521E-01 
  67169.8171     0.50596E-01 
  67202.0793     0.51693E-01 
  67234.3414     0.52811E-01 
  67266.6036     0.53952E-01 
  67298.8658     0.55114E-01 
  67331.1279     0.56300E-01 
  67363.3901     0.57509E-01 
  67395.6522     0.58742E-01 
  67427.9144     0.59999E-01 
  67460.1766     0.61281E-01 
  67492.4387     0.62589E-01 
  67524.7009     0.63923E-01 
  67556.9630     0.65283E-01 
  67589.2252     0.66670E-01 
  67621.4874     0.68084E-01 
  67653.7495     0.69527E-01 
  67686.0117     0.70998E-01 
  67718.2738     0.72499E-01 
  67750.5360     0.74030E-01 
  67782.7982     0.75591E-01 
  67815.0603     0.77183E-01 
  67847.3225     0.78807E-01 
  67879.5846     0.80464E-01 
  67911.8468     0.82154E-01 
  67944.1090     0.83877E-01 
  67976.3711     0.85635E-01 
  68008.6333     0.87429E-01 
  68040.8954     0.89258E-01 
  68073.1576     0.91124E-01 
  68105.4198     0.93027E-01 
  68137.6819     0.94969E-01 
  68169.9441     0.96950E-01 
  68202.2062     0.98971E-01 
  68234.4684     0.10103E+00 
  68266.7306     0.10313E+00 
  68298.9927     0.10528E+00 
  68331.2549     0.10747E+00 
  68363.5170     0.10970E+00 
  68395.7792     0.11198E+00 
  68428.0414     0.11430E+00 
  68460.3035     0.11667E+00 
  68492.5657     0.11909E+00 
  68524.8278     0.12156E+00 
  68557.0900     0.12407E+00 
  68589.3522     0.12664E+00 
  68621.6143     0.12926E+00 
  68653.8765     0.13193E+00 
  68686.1386     0.13466E+00 
  68718.4008     0.13744E+00 
  68750.6630     0.14028E+00 
  68782.9251     0.14318E+00 
  68815.1873     0.14613E+00 
  68847.4494     0.14915E+00 
  68879.7116     0.15222E+00 
  68911.9738     0.15536E+00 
  68944.2359     0.15856E+00 
  68976.4981     0.16182E+00 
  69008.7602     0.16515E+00 
  69041.0224     0.16855E+00 
  69073.2846     0.17202E+00 
  69105.5467     0.17556E+00 
  69137.8089     0.17916E+00 
  69170.0710     0.18285E+00 
  69202.3332     0.18660E+00 
  69234.5954     0.19043E+00 
  69266.8575     0.19434E+00 
  69299.1197     0.19833E+00 
  69331.3818     0.20240E+00 
  69363.6440     0.20655E+00 
  69395.9062     0.21078E+00 
  69428.1683     0.21510E+00 
  69460.4305     0.21950E+00 
  69492.6926     0.22400E+00 
  69524.9548     0.22858E+00 
  69557.2170     0.23325E+00 
  69589.4791     0.23802E+00 
  69621.7413     0.24289E+00 
  69654.0034     0.24785E+00 
  69686.2656     0.25291E+00 
  69718.5278     0.25807E+00 
  69750.7899     0.26334E+00 
  69783.0521     0.26871E+00 
  69815.3142     0.27418E+00 
  69847.5764     0.27977E+00 
  69879.8386     0.28546E+00 
  69912.1007     0.29127E+00 
  69944.3629     0.29719E+00 
  69976.6250     0.30323E+00 
  70008.8872     0.30939E+00 
  70041.1494     0.31567E+00 
  70073.4115     0.32208E+00 
  70105.6737     0.32861E+00 
  70137.9358     0.33527E+00 
  70170.1980     0.34206E+00 
  70202.4602     0.34898E+00 
  70234.7223     0.35603E+00 
  70266.9845     0.36323E+00 
  70299.2466     0.37056E+00 
  70331.5088     0.37804E+00 
  70363.7710     0.38566E+00 
  70396.0331     0.39343E+00 
  70428.2953     0.40135E+00 
  70460.5574     0.40942E+00 
  70492.8196     0.41765E+00 
  70525.0818     0.42603E+00 
  70557.3439     0.43458E+00 
  70589.6061     0.44329E+00 
  70621.8682     0.45216E+00 
  70654.1304     0.46121E+00 
  70686.3926     0.47042E+00 
  70718.6547     0.47981E+00 
  70750.9169     0.48938E+00 
  70783.1790     0.49913E+00 
  70815.4412     0.50906E+00 
  70847.7034     0.51918E+00 
  70879.9655     0.52949E+00 
  70912.2277     0.53999E+00 
  70944.4898     0.55069E+00 
  70976.7520     0.56158E+00 
  71009.0142     0.57268E+00 
  71041.2763     0.58398E+00 
  71073.5385     0.59549E+00 
  71105.8006     0.60721E+00 
  71138.0628     0.61915E+00 
  71170.3250     0.63131E+00 
  71202.5871     0.64368E+00 
  71234.8493     0.65628E+00 
  71267.1114     0.66911E+00 
  71299.3736     0.68217E+00 
  71331.6358     0.69547E+00 
  71363.8979     0.70901E+00 
  71396.1601     0.72278E+00 
  71428.4222     0.73681E+00 
  71460.6844     0.75108E+00 
  71492.9466     0.76561E+00 
  71525.2087     0.78039E+00 
  71557.4709     0.79543E+00 
  71589.7330     0.81074E+00 
  71621.9952     0.82631E+00 
  71654.2574     0.84216E+00 
  71686.5195     0.85828E+00 
  71718.7817     0.87468E+00 
  71751.0438     0.89136E+00 
  71783.3060     0.90833E+00 
  71815.5682     0.92559E+00 
  71847.8303     0.94314E+00 
  71880.0925     0.96099E+00 
  71912.3546     0.97915E+00 
  71944.6168     0.99761E+00 
  71976.8790     0.10164E+01 
  72009.1411     0.10355E+01 
  72041.4033     0.10549E+01 
  72073.6654     0.10746E+01 
  72105.9276     0.10946E+01 
  72138.1898     0.11150E+01 
  72170.4519     0.11357E+01 
  72202.7141     0.11568E+01 
  72234.9762     0.11782E+01 
  72267.2384     0.11999E+01 
  72299.5006     0.12220E+01 
  72331.7627     0.12444E+01 
  72364.0249     0.12672E+01 
  72396.2870     0.12904E+01 
  72428.5492     0.13139E+01 
  72460.8114     0.13378E+01 
  72493.0735     0.13621E+01 
  72525.3357     0.13868E+01 
  72557.5978     0.14118E+01 
  72589.8600     0.14372E+01 
