  32262.1600     0.76501E-04 
  32294.4222     0.77402E-04 
  32326.6843     0.78310E-04 
  32358.9465     0.79225E-04 
  32391.2086     0.80146E-04 
  32423.4708     0.81075E-04 
  32455.7330     0.82010E-04 
  32487.9951     0.82953E-04 
  32520.2573     0.83902E-04 
  32552.5194     0.84859E-04 
  32584.7816     0.85822E-04 
  32617.0438     0.86792E-04 
  32649.3059     0.87769E-04 
  32681.5681     0.88753E-04 
  32713.8302     0.89744E-04 
  32746.0924     0.90742E-04 
  32778.3546     0.91746E-04 
  32810.6167     0.92758E-04 
  32842.8789     0.93776E-04 
  32875.1410     0.94802E-04 
  32907.4032     0.95834E-04 
  32939.6654     0.96872E-04 
  32971.9275     0.97918E-04 
  33004.1897     0.98971E-04 
  33036.4518     0.10003E-03 
  33068.7140     0.10110E-03 
  33100.9762     0.10217E-03 
  33133.2383     0.10325E-03 
  33165.5005     0.10433E-03 
  33197.7626     0.10543E-03 
  33230.0248     0.10653E-03 
  33262.2870     0.10763E-03 
  33294.5491     0.10874E-03 
  33326.8113     0.10986E-03 
  33359.0734     0.11099E-03 
  33391.3356     0.11212E-03 
  33423.5978     0.11326E-03 
  33455.8599     0.11441E-03 
  33488.1221     0.11556E-03 
  33520.3842     0.11672E-03 
  33552.6464     0.11788E-03 
  33584.9086     0.11905E-03 
  33617.1707     0.12023E-03 
  33649.4329     0.12141E-03 
  33681.6950     0.12260E-03 
  33713.9572     0.12380E-03 
  33746.2194     0.12500E-03 
  33778.4815     0.12621E-03 
  33810.7437     0.12742E-03 
  33843.0058     0.12864E-03 
  33875.2680     0.12987E-03 
  33907.5302     0.13110E-03 
  33939.7923     0.13234E-03 
  33972.0545     0.13358E-03 
  34004.3166     0.13483E-03 
  34036.5788     0.13609E-03 
  34068.8410     0.13735E-03 
  34101.1031     0.13862E-03 
  34133.3653     0.13989E-03 
  34165.6274     0.14117E-03 
  34197.8896     0.14245E-03 
  34230.1518     0.14374E-03 
  34262.4139     0.14503E-03 
  34294.6761     0.14633E-03 
  34326.9382     0.14764E-03 
  34359.2004     0.14895E-03 
  34391.4626     0.15027E-03 
  34423.7247     0.15159E-03 
  34455.9869     0.15291E-03 
  34488.2490     0.15424E-03 
  34520.5112     0.15558E-03 
  34552.7734     0.15692E-03 
  34585.0355     0.15827E-03 
  34617.2977     0.15962E-03 
  34649.5598     0.16097E-03 
  34681.8220     0.16233E-03 
  34714.0842     0.16370E-03 
  34746.3463     0.16507E-03 
  34778.6085     0.16644E-03 
  34810.8706     0.16782E-03 
  34843.1328     0.16920E-03 
  34875.3950     0.17059E-03 
  34907.6571     0.17198E-03 
  34939.9193     0.17338E-03 
  34972.1814     0.17478E-03 
  35004.4436     0.17618E-03 
  35036.7058     0.17759E-03 
  35068.9679     0.17900E-03 
  35101.2301     0.18041E-03 
  35133.4922     0.18183E-03 
  35165.7544     0.18325E-03 
  35198.0166     0.18468E-03 
  35230.2787     0.18611E-03 
  35262.5409     0.18754E-03 
  35294.8030     0.18898E-03 
  35327.0652     0.19042E-03 
  35359.3274     0.19186E-03 
  35391.5895     0.19330E-03 
  35423.8517     0.19475E-03 
  35456.1138     0.19620E-03 
  35488.3760     0.19766E-03 
  35520.6382     0.19912E-03 
  35552.9003     0.20058E-03 
  35585.1625     0.20204E-03 
  35617.4246     0.20350E-03 
  35649.6868     0.20497E-03 
  35681.9490     0.20644E-03 
  35714.2111     0.20791E-03 
  35746.4733     0.20938E-03 
  35778.7354     0.21086E-03 
  35810.9976     0.21234E-03 
  35843.2598     0.21382E-03 
  35875.5219     0.21530E-03 
  35907.7841     0.21678E-03 
  35940.0462     0.21827E-03 
  35972.3084     0.21975E-03 
  36004.5706     0.22124E-03 
  36036.8327     0.22273E-03 
  36069.0949     0.22422E-03 
  36101.3570     0.22571E-03 
  36133.6192     0.22721E-03 
  36165.8814     0.22870E-03 
  36198.1435     0.23019E-03 
  36230.4057     0.23169E-03 
  36262.6678     0.23318E-03 
  36294.9300     0.23468E-03 
  36327.1922     0.23618E-03 
  36359.4543     0.23768E-03 
  36391.7165     0.23917E-03 
  36423.9786     0.24067E-03 
  36456.2408     0.24217E-03 
  36488.5030     0.24367E-03 
  36520.7651     0.24516E-03 
  36553.0273     0.24666E-03 
  36585.2894     0.24816E-03 
  36617.5516     0.24966E-03 
  36649.8138     0.25115E-03 
  36682.0759     0.25265E-03 
  36714.3381     0.25414E-03 
  36746.6002     0.25564E-03 
  36778.8624     0.25713E-03 
  36811.1246     0.25862E-03 
  36843.3867     0.26011E-03 
  36875.6489     0.26160E-03 
  36907.9110     0.26309E-03 
  36940.1732     0.26458E-03 
  36972.4354     0.26606E-03 
  37004.6975     0.26755E-03 
  37036.9597     0.26903E-03 
  37069.2218     0.27051E-03 
  37101.4840     0.27199E-03 
  37133.7462     0.27347E-03 
  37166.0083     0.27494E-03 
  37198.2705     0.27641E-03 
  37230.5326     0.27788E-03 
  37262.7948     0.27935E-03 
  37295.0570     0.28082E-03 
  37327.3191     0.28228E-03 
  37359.5813     0.28374E-03 
  37391.8434     0.28519E-03 
  37424.1056     0.28665E-03 
  37456.3678     0.28810E-03 
  37488.6299     0.28955E-03 
  37520.8921     0.29099E-03 
  37553.1542     0.29243E-03 
  37585.4164     0.29387E-03 
  37617.6786     0.29530E-03 
  37649.9407     0.29673E-03 
  37682.2029     0.29816E-03 
  37714.4650     0.29958E-03 
  37746.7272     0.30100E-03 
  37778.9894     0.30241E-03 
  37811.2515     0.30383E-03 
  37843.5137     0.30523E-03 
  37875.7758     0.30663E-03 
  37908.0380     0.30803E-03 
  37940.3002     0.30942E-03 
  37972.5623     0.31081E-03 
  38004.8245     0.31219E-03 
  38037.0866     0.31357E-03 
  38069.3488     0.31495E-03 
  38101.6110     0.31631E-03 
  38133.8731     0.31768E-03 
  38166.1353     0.31904E-03 
  38198.3974     0.32039E-03 
  38230.6596     0.32174E-03 
  38262.9218     0.32308E-03 
  38295.1839     0.32441E-03 
  38327.4461     0.32574E-03 
  38359.7082     0.32707E-03 
  38391.9704     0.32839E-03 
  38424.2326     0.32970E-03 
  38456.4947     0.33100E-03 
  38488.7569     0.33230E-03 
  38521.0190     0.33360E-03 
  38553.2812     0.33489E-03 
  38585.5434     0.33617E-03 
  38617.8055     0.33744E-03 
  38650.0677     0.33871E-03 
  38682.3298     0.33997E-03 
  38714.5920     0.34122E-03 
  38746.8542     0.34247E-03 
  38779.1163     0.34371E-03 
  38811.3785     0.34494E-03 
  38843.6406     0.34617E-03 
  38875.9028     0.34739E-03 
  38908.1650     0.34860E-03 
  38940.4271     0.34980E-03 
  38972.6893     0.35100E-03 
  39004.9514     0.35219E-03 
  39037.2136     0.35337E-03 
  39069.4758     0.35454E-03 
  39101.7379     0.35571E-03 
  39134.0001     0.35686E-03 
  39166.2622     0.35801E-03 
  39198.5244     0.35915E-03 
  39230.7866     0.36029E-03 
  39263.0487     0.36141E-03 
  39295.3109     0.36253E-03 
  39327.5730     0.36363E-03 
  39359.8352     0.36473E-03 
  39392.0974     0.36582E-03 
  39424.3595     0.36691E-03 
  39456.6217     0.36798E-03 
  39488.8838     0.36904E-03 
  39521.1460     0.37010E-03 
  39553.4082     0.37114E-03 
  39585.6703     0.37218E-03 
  39617.9325     0.37321E-03 
  39650.1946     0.37423E-03 
  39682.4568     0.37524E-03 
  39714.7190     0.37624E-03 
  39746.9811     0.37723E-03 
  39779.2433     0.37821E-03 
  39811.5054     0.37919E-03 
  39843.7676     0.38015E-03 
  39876.0298     0.38110E-03 
  39908.2919     0.38204E-03 
  39940.5541     0.38298E-03 
  39972.8162     0.38390E-03 
  40005.0784     0.38482E-03 
  40037.3406     0.38572E-03 
  40069.6027     0.38661E-03 
  40101.8649     0.38750E-03 
  40134.1270     0.38837E-03 
  40166.3892     0.38924E-03 
  40198.6514     0.39009E-03 
  40230.9135     0.39093E-03 
  40263.1757     0.39177E-03 
  40295.4378     0.39259E-03 
  40327.7000     0.39340E-03 
  40359.9622     0.39420E-03 
  40392.2243     0.39499E-03 
  40424.4865     0.39577E-03 
  40456.7486     0.39654E-03 
  40489.0108     0.39730E-03 
  40521.2730     0.39805E-03 
  40553.5351     0.39879E-03 
  40585.7973     0.39952E-03 
  40618.0594     0.40023E-03 
  40650.3216     0.40094E-03 
  40682.5838     0.40163E-03 
  40714.8459     0.40232E-03 
  40747.1081     0.40299E-03 
  40779.3702     0.40365E-03 
  40811.6324     0.40430E-03 
  40843.8946     0.40494E-03 
  40876.1567     0.40557E-03 
  40908.4189     0.40619E-03 
  40940.6810     0.40679E-03 
  40972.9432     0.40739E-03 
  41005.2054     0.40797E-03 
  41037.4675     0.40854E-03 
  41069.7297     0.40910E-03 
  41101.9918     0.40965E-03 
  41134.2540     0.41019E-03 
  41166.5162     0.41072E-03 
  41198.7783     0.41123E-03 
  41231.0405     0.41173E-03 
  41263.3026     0.41223E-03 
  41295.5648     0.41271E-03 
  41327.8270     0.41318E-03 
  41360.0891     0.41363E-03 
  41392.3513     0.41408E-03 
  41424.6134     0.41452E-03 
  41456.8756     0.41494E-03 
  41489.1378     0.41535E-03 
  41521.3999     0.41575E-03 
  41553.6621     0.41614E-03 
  41585.9242     0.41651E-03 
  41618.1864     0.41688E-03 
  41650.4486     0.41723E-03 
  41682.7107     0.41757E-03 
  41714.9729     0.41790E-03 
  41747.2350     0.41822E-03 
  41779.4972     0.41853E-03 
  41811.7594     0.41882E-03 
  41844.0215     0.41911E-03 
  41876.2837     0.41938E-03 
  41908.5458     0.41964E-03 
  41940.8080     0.41989E-03 
  41973.0702     0.42012E-03 
  42005.3323     0.42035E-03 
  42037.5945     0.42056E-03 
  42069.8566     0.42076E-03 
  42102.1188     0.42095E-03 
  42134.3810     0.42113E-03 
  42166.6431     0.42130E-03 
  42198.9053     0.42145E-03 
  42231.1674     0.42160E-03 
  42263.4296     0.42173E-03 
  42295.6918     0.42185E-03 
  42327.9539     0.42196E-03 
  42360.2161     0.42205E-03 
  42392.4782     0.42214E-03 
  42424.7404     0.42221E-03 
  42457.0026     0.42227E-03 
  42489.2647     0.42232E-03 
  42521.5269     0.42236E-03 
  42553.7890     0.42239E-03 
  42586.0512     0.42241E-03 
  42618.3134     0.42241E-03 
  42650.5755     0.42240E-03 
  42682.8377     0.42238E-03 
  42715.0998     0.42235E-03 
  42747.3620     0.42231E-03 
  42779.6242     0.42226E-03 
  42811.8863     0.42220E-03 
  42844.1485     0.42212E-03 
  42876.4106     0.42203E-03 
  42908.6728     0.42193E-03 
  42940.9350     0.42182E-03 
  42973.1971     0.42170E-03 
  43005.4593     0.42157E-03 
  43037.7214     0.42143E-03 
  43069.9836     0.42128E-03 
  43102.2458     0.42111E-03 
  43134.5079     0.42093E-03 
  43166.7701     0.42075E-03 
  43199.0322     0.42055E-03 
  43231.2944     0.42034E-03 
  43263.5566     0.42012E-03 
  43295.8187     0.41989E-03 
  43328.0809     0.41964E-03 
  43360.3430     0.41939E-03 
  43392.6052     0.41913E-03 
  43424.8674     0.41885E-03 
  43457.1295     0.41857E-03 
  43489.3917     0.41827E-03 
  43521.6538     0.41797E-03 
  43553.9160     0.41765E-03 
  43586.1782     0.41732E-03 
  43618.4403     0.41698E-03 
  43650.7025     0.41664E-03 
  43682.9646     0.41628E-03 
  43715.2268     0.41591E-03 
  43747.4890     0.41553E-03 
  43779.7511     0.41514E-03 
  43812.0133     0.41474E-03 
  43844.2754     0.41433E-03 
  43876.5376     0.41391E-03 
  43908.7998     0.41348E-03 
  43941.0619     0.41304E-03 
  43973.3241     0.41259E-03 
  44005.5862     0.41213E-03 
  44037.8484     0.41165E-03 
  44070.1106     0.41117E-03 
  44102.3727     0.41068E-03 
  44134.6349     0.41019E-03 
  44166.8970     0.40968E-03 
  44199.1592     0.40916E-03 
  44231.4214     0.40863E-03 
  44263.6835     0.40809E-03 
  44295.9457     0.40754E-03 
  44328.2078     0.40699E-03 
  44360.4700     0.40642E-03 
  44392.7322     0.40584E-03 
  44424.9943     0.40526E-03 
  44457.2565     0.40467E-03 
  44489.5186     0.40406E-03 
  44521.7808     0.40345E-03 
  44554.0430     0.40283E-03 
  44586.3051     0.40220E-03 
  44618.5673     0.40156E-03 
  44650.8294     0.40091E-03 
  44683.0916     0.40026E-03 
  44715.3538     0.39959E-03 
  44747.6159     0.39892E-03 
  44779.8781     0.39824E-03 
  44812.1402     0.39755E-03 
  44844.4024     0.39685E-03 
  44876.6646     0.39614E-03 
  44908.9267     0.39543E-03 
  44941.1889     0.39470E-03 
  44973.4510     0.39397E-03 
  45005.7132     0.39323E-03 
  45037.9754     0.39248E-03 
  45070.2375     0.39173E-03 
  45102.4997     0.39096E-03 
  45134.7618     0.39019E-03 
  45167.0240     0.38941E-03 
  45199.2862     0.38862E-03 
  45231.5483     0.38783E-03 
  45263.8105     0.38703E-03 
  45296.0726     0.38622E-03 
  45328.3348     0.38540E-03 
  45360.5970     0.38457E-03 
  45392.8591     0.38374E-03 
  45425.1213     0.38290E-03 
  45457.3834     0.38206E-03 
  45489.6456     0.38120E-03 
  45521.9078     0.38034E-03 
  45554.1699     0.37947E-03 
  45586.4321     0.37860E-03 
  45618.6942     0.37772E-03 
  45650.9564     0.37683E-03 
  45683.2186     0.37593E-03 
  45715.4807     0.37503E-03 
  45747.7429     0.37413E-03 
  45780.0050     0.37321E-03 
  45812.2672     0.37229E-03 
  45844.5294     0.37136E-03 
  45876.7915     0.37043E-03 
  45909.0537     0.36949E-03 
  45941.3158     0.36855E-03 
  45973.5780     0.36759E-03 
  46005.8402     0.36664E-03 
  46038.1023     0.36567E-03 
  46070.3645     0.36470E-03 
  46102.6266     0.36373E-03 
  46134.8888     0.36275E-03 
  46167.1510     0.36176E-03 
  46199.4131     0.36077E-03 
  46231.6753     0.35977E-03 
  46263.9374     0.35877E-03 
  46296.1996     0.35776E-03 
  46328.4618     0.35675E-03 
  46360.7239     0.35573E-03 
  46392.9861     0.35471E-03 
  46425.2482     0.35368E-03 
  46457.5104     0.35264E-03 
  46489.7726     0.35161E-03 
  46522.0347     0.35056E-03 
  46554.2969     0.34952E-03 
  46586.5590     0.34846E-03 
  46618.8212     0.34741E-03 
  46651.0834     0.34634E-03 
  46683.3455     0.34528E-03 
  46715.6077     0.34421E-03 
  46747.8698     0.34313E-03 
  46780.1320     0.34205E-03 
  46812.3942     0.34097E-03 
  46844.6563     0.33988E-03 
  46876.9185     0.33879E-03 
  46909.1806     0.33769E-03 
  46941.4428     0.33660E-03 
  46973.7050     0.33549E-03 
  47005.9671     0.33439E-03 
  47038.2293     0.33327E-03 
  47070.4914     0.33216E-03 
  47102.7536     0.33104E-03 
  47135.0158     0.32992E-03 
  47167.2779     0.32880E-03 
  47199.5401     0.32767E-03 
  47231.8022     0.32654E-03 
  47264.0644     0.32540E-03 
  47296.3266     0.32427E-03 
  47328.5887     0.32313E-03 
  47360.8509     0.32198E-03 
  47393.1130     0.32084E-03 
  47425.3752     0.31969E-03 
  47457.6374     0.31853E-03 
  47489.8995     0.31738E-03 
  47522.1617     0.31622E-03 
  47554.4238     0.31506E-03 
  47586.6860     0.31390E-03 
  47618.9482     0.31273E-03 
  47651.2103     0.31157E-03 
  47683.4725     0.31040E-03 
  47715.7346     0.30922E-03 
  47747.9968     0.30805E-03 
  47780.2590     0.30687E-03 
  47812.5211     0.30570E-03 
  47844.7833     0.30451E-03 
  47877.0454     0.30333E-03 
  47909.3076     0.30215E-03 
  47941.5698     0.30096E-03 
  47973.8319     0.29977E-03 
  48006.0941     0.29859E-03 
  48038.3562     0.29739E-03 
  48070.6184     0.29620E-03 
  48102.8806     0.29501E-03 
  48135.1427     0.29381E-03 
  48167.4049     0.29262E-03 
  48199.6670     0.29142E-03 
  48231.9292     0.29022E-03 
  48264.1914     0.28902E-03 
  48296.4535     0.28782E-03 
  48328.7157     0.28661E-03 
  48360.9778     0.28541E-03 
  48393.2400     0.28421E-03 
  48425.5022     0.28300E-03 
  48457.7643     0.28179E-03 
  48490.0265     0.28059E-03 
  48522.2886     0.27938E-03 
  48554.5508     0.27817E-03 
  48586.8130     0.27696E-03 
  48619.0751     0.27575E-03 
  48651.3373     0.27454E-03 
  48683.5994     0.27333E-03 
  48715.8616     0.27212E-03 
  48748.1238     0.27091E-03 
  48780.3859     0.26970E-03 
  48812.6481     0.26849E-03 
  48844.9102     0.26728E-03 
  48877.1724     0.26607E-03 
  48909.4346     0.26486E-03 
  48941.6967     0.26364E-03 
  48973.9589     0.26243E-03 
  49006.2210     0.26122E-03 
  49038.4832     0.26001E-03 
  49070.7454     0.25880E-03 
  49103.0075     0.25759E-03 
  49135.2697     0.25638E-03 
  49167.5318     0.25517E-03 
  49199.7940     0.25396E-03 
  49232.0562     0.25275E-03 
  49264.3183     0.25154E-03 
  49296.5805     0.25034E-03 
  49328.8426     0.24913E-03 
  49361.1048     0.24792E-03 
  49393.3670     0.24672E-03 
  49425.6291     0.24551E-03 
  49457.8913     0.24431E-03 
  49490.1534     0.24311E-03 
  49522.4156     0.24190E-03 
  49554.6778     0.24070E-03 
  49586.9399     0.23950E-03 
  49619.2021     0.23830E-03 
  49651.4642     0.23711E-03 
  49683.7264     0.23591E-03 
  49715.9886     0.23471E-03 
  49748.2507     0.23352E-03 
  49780.5129     0.23233E-03 
  49812.7750     0.23114E-03 
  49845.0372     0.22995E-03 
  49877.2994     0.22876E-03 
  49909.5615     0.22757E-03 
  49941.8237     0.22639E-03 
  49974.0858     0.22520E-03 
  50006.3480     0.22402E-03 
  50038.6102     0.22284E-03 
  50070.8723     0.22166E-03 
  50103.1345     0.22048E-03 
  50135.3966     0.21931E-03 
  50167.6588     0.21813E-03 
  50199.9210     0.21696E-03 
  50232.1831     0.21579E-03 
  50264.4453     0.21462E-03 
  50296.7074     0.21346E-03 
  50328.9696     0.21229E-03 
  50361.2318     0.21113E-03 
  50393.4939     0.20997E-03 
  50425.7561     0.20881E-03 
  50458.0182     0.20765E-03 
  50490.2804     0.20650E-03 
  50522.5426     0.20535E-03 
  50554.8047     0.20420E-03 
  50587.0669     0.20305E-03 
  50619.3290     0.20191E-03 
  50651.5912     0.20076E-03 
  50683.8534     0.19962E-03 
  50716.1155     0.19849E-03 
  50748.3777     0.19735E-03 
  50780.6398     0.19622E-03 
  50812.9020     0.19509E-03 
  50845.1642     0.19396E-03 
  50877.4263     0.19283E-03 
  50909.6885     0.19171E-03 
  50941.9506     0.19059E-03 
  50974.2128     0.18947E-03 
  51006.4750     0.18836E-03 
  51038.7371     0.18725E-03 
  51070.9993     0.18614E-03 
  51103.2614     0.18503E-03 
  51135.5236     0.18393E-03 
  51167.7858     0.18283E-03 
  51200.0479     0.18173E-03 
  51232.3101     0.18063E-03 
  51264.5722     0.17954E-03 
  51296.8344     0.17845E-03 
  51329.0966     0.17736E-03 
  51361.3587     0.17628E-03 
  51393.6209     0.17520E-03 
  51425.8830     0.17412E-03 
  51458.1452     0.17305E-03 
  51490.4074     0.17197E-03 
  51522.6695     0.17090E-03 
  51554.9317     0.16984E-03 
  51587.1938     0.16878E-03 
  51619.4560     0.16772E-03 
  51651.7182     0.16666E-03 
  51683.9803     0.16561E-03 
  51716.2425     0.16456E-03 
  51748.5046     0.16351E-03 
  51780.7668     0.16247E-03 
  51813.0290     0.16143E-03 
  51845.2911     0.16039E-03 
  51877.5533     0.15936E-03 
  51909.8154     0.15833E-03 
  51942.0776     0.15730E-03 
  51974.3398     0.15627E-03 
  52006.6019     0.15525E-03 
  52038.8641     0.15424E-03 
  52071.1262     0.15322E-03 
  52103.3884     0.15221E-03 
  52135.6506     0.15121E-03 
  52167.9127     0.15020E-03 
  52200.1749     0.14920E-03 
  52232.4370     0.14821E-03 
  52264.6992     0.14721E-03 
  52296.9614     0.14622E-03 
  52329.2235     0.14524E-03 
  52361.4857     0.14425E-03 
  52393.7478     0.14328E-03 
  52426.0100     0.14230E-03 
  52458.2722     0.14133E-03 
  52490.5343     0.14036E-03 
  52522.7965     0.13939E-03 
  52555.0586     0.13843E-03 
  52587.3208     0.13748E-03 
  52619.5830     0.13652E-03 
  52651.8451     0.13557E-03 
  52684.1073     0.13462E-03 
  52716.3694     0.13368E-03 
  52748.6316     0.13274E-03 
  52780.8938     0.13181E-03 
  52813.1559     0.13087E-03 
  52845.4181     0.12994E-03 
  52877.6802     0.12902E-03 
  52909.9424     0.12810E-03 
  52942.2046     0.12718E-03 
  52974.4667     0.12627E-03 
  53006.7289     0.12536E-03 
  53038.9910     0.12445E-03 
  53071.2532     0.12355E-03 
  53103.5154     0.12265E-03 
  53135.7775     0.12175E-03 
  53168.0397     0.12086E-03 
  53200.3018     0.11997E-03 
  53232.5640     0.11909E-03 
  53264.8262     0.11821E-03 
  53297.0883     0.11733E-03 
  53329.3505     0.11646E-03 
  53361.6126     0.11559E-03 
  53393.8748     0.11473E-03 
  53426.1370     0.11386E-03 
  53458.3991     0.11301E-03 
  53490.6613     0.11215E-03 
  53522.9234     0.11130E-03 
  53555.1856     0.11046E-03 
  53587.4478     0.10961E-03 
  53619.7099     0.10877E-03 
  53651.9721     0.10794E-03 
  53684.2342     0.10711E-03 
  53716.4964     0.10628E-03 
  53748.7586     0.10546E-03 
  53781.0207     0.10464E-03 
  53813.2829     0.10382E-03 
  53845.5450     0.10301E-03 
  53877.8072     0.10220E-03 
  53910.0694     0.10139E-03 
  53942.3315     0.10059E-03 
  53974.5937     0.99796E-04 
  54006.8558     0.99003E-04 
  54039.1180     0.98213E-04 
  54071.3802     0.97427E-04 
  54103.6423     0.96645E-04 
  54135.9045     0.95867E-04 
  54168.1666     0.95092E-04 
  54200.4288     0.94321E-04 
  54232.6910     0.93555E-04 
  54264.9531     0.92791E-04 
  54297.2153     0.92032E-04 
  54329.4774     0.91276E-04 
  54361.7396     0.90524E-04 
  54394.0018     0.89776E-04 
  54426.2639     0.89032E-04 
  54458.5261     0.88291E-04 
  54490.7882     0.87555E-04 
  54523.0504     0.86821E-04 
  54555.3126     0.86092E-04 
  54587.5747     0.85367E-04 
  54619.8369     0.84645E-04 
  54652.0990     0.83927E-04 
  54684.3612     0.83212E-04 
  54716.6234     0.82501E-04 
  54748.8855     0.81795E-04 
  54781.1477     0.81091E-04 
  54813.4098     0.80392E-04 
  54845.6720     0.79696E-04 
  54877.9342     0.79004E-04 
  54910.1963     0.78315E-04 
  54942.4585     0.77631E-04 
  54974.7206     0.76950E-04 
  55006.9828     0.76272E-04 
  55039.2450     0.75598E-04 
  55071.5071     0.74928E-04 
  55103.7693     0.74262E-04 
  55136.0314     0.73599E-04 
  55168.2936     0.72940E-04 
  55200.5558     0.72284E-04 
  55232.8179     0.71633E-04 
  55265.0801     0.70984E-04 
  55297.3422     0.70340E-04 
  55329.6044     0.69699E-04 
  55361.8666     0.69061E-04 
  55394.1287     0.68427E-04 
  55426.3909     0.67797E-04 
  55458.6530     0.67170E-04 
  55490.9152     0.66547E-04 
  55523.1774     0.65928E-04 
  55555.4395     0.65312E-04 
  55587.7017     0.64699E-04 
  55619.9638     0.64090E-04 
  55652.2260     0.63485E-04 
  55684.4882     0.62883E-04 
  55716.7503     0.62285E-04 
  55749.0125     0.61690E-04 
  55781.2746     0.61099E-04 
  55813.5368     0.60511E-04 
  55845.7990     0.59926E-04 
  55878.0611     0.59345E-04 
  55910.3233     0.58768E-04 
  55942.5854     0.58194E-04 
  55974.8476     0.57623E-04 
  56007.1098     0.57056E-04 
  56039.3719     0.56492E-04 
  56071.6341     0.55932E-04 
  56103.8962     0.55375E-04 
  56136.1584     0.54822E-04 
  56168.4206     0.54271E-04 
  56200.6827     0.53725E-04 
  56232.9449     0.53181E-04 
  56265.2070     0.52641E-04 
  56297.4692     0.52104E-04 
  56329.7314     0.51571E-04 
  56361.9935     0.51041E-04 
  56394.2557     0.50514E-04 
  56426.5178     0.49991E-04 
  56458.7800     0.49471E-04 
  56491.0422     0.48954E-04 
  56523.3043     0.48440E-04 
  56555.5665     0.47930E-04 
  56587.8286     0.47423E-04 
  56620.0908     0.46919E-04 
  56652.3530     0.46419E-04 
  56684.6151     0.45921E-04 
  56716.8773     0.45427E-04 
  56749.1394     0.44936E-04 
  56781.4016     0.44448E-04 
  56813.6638     0.43964E-04 
  56845.9259     0.43483E-04 
  56878.1881     0.43004E-04 
  56910.4502     0.42529E-04 
  56942.7124     0.42057E-04 
  56974.9746     0.41589E-04 
  57007.2367     0.41123E-04 
  57039.4989     0.40660E-04 
  57071.7610     0.40201E-04 
  57104.0232     0.39745E-04 
  57136.2854     0.39291E-04 
  57168.5475     0.38841E-04 
  57200.8097     0.38394E-04 
  57233.0718     0.37950E-04 
  57265.3340     0.37509E-04 
  57297.5962     0.37071E-04 
  57329.8583     0.36636E-04 
  57362.1205     0.36204E-04 
  57394.3826     0.35775E-04 
  57426.6448     0.35349E-04 
  57458.9070     0.34926E-04 
  57491.1691     0.34506E-04 
  57523.4313     0.34089E-04 
  57555.6934     0.33675E-04 
  57587.9556     0.33263E-04 
  57620.2178     0.32855E-04 
  57652.4799     0.32450E-04 
  57684.7421     0.32047E-04 
  57717.0042     0.31648E-04 
  57749.2664     0.31251E-04 
  57781.5286     0.30857E-04 
  57813.7907     0.30466E-04 
  57846.0529     0.30078E-04 
  57878.3150     0.29693E-04 
  57910.5772     0.29311E-04 
  57942.8394     0.28931E-04 
  57975.1015     0.28554E-04 
  58007.3637     0.28181E-04 
  58039.6258     0.27809E-04 
  58071.8880     0.27441E-04 
  58104.1502     0.27076E-04 
  58136.4123     0.26713E-04 
  58168.6745     0.26353E-04 
  58200.9366     0.25996E-04 
  58233.1988     0.25641E-04 
  58265.4610     0.25289E-04 
  58297.7231     0.24940E-04 
  58329.9853     0.24594E-04 
  58362.2474     0.24250E-04 
  58394.5096     0.23909E-04 
  58426.7718     0.23571E-04 
  58459.0339     0.23236E-04 
  58491.2961     0.22903E-04 
  58523.5582     0.22573E-04 
  58555.8204     0.22245E-04 
  58588.0826     0.21920E-04 
  58620.3447     0.21598E-04 
  58652.6069     0.21278E-04 
  58684.8690     0.20961E-04 
  58717.1312     0.20647E-04 
  58749.3934     0.20335E-04 
  58781.6555     0.20026E-04 
  58813.9177     0.19720E-04 
  58846.1798     0.19416E-04 
  58878.4420     0.19114E-04 
  58910.7042     0.18815E-04 
  58942.9663     0.18519E-04 
  58975.2285     0.18225E-04 
  59007.4906     0.17934E-04 
  59039.7528     0.17646E-04 
  59072.0150     0.17360E-04 
  59104.2771     0.17076E-04 
  59136.5393     0.16795E-04 
  59168.8014     0.16517E-04 
  59201.0636     0.16241E-04 
  59233.3258     0.15967E-04 
  59265.5879     0.15696E-04 
  59297.8501     0.15428E-04 
  59330.1122     0.15162E-04 
  59362.3744     0.14898E-04 
  59394.6366     0.14637E-04 
  59426.8987     0.14379E-04 
  59459.1609     0.14123E-04 
  59491.4230     0.13869E-04 
  59523.6852     0.13618E-04 
  59555.9474     0.13369E-04 
  59588.2095     0.13123E-04 
  59620.4717     0.12879E-04 
  59652.7338     0.12638E-04 
  59684.9960     0.12399E-04 
  59717.2582     0.12162E-04 
  59749.5203     0.11928E-04 
  59781.7825     0.11697E-04 
  59814.0446     0.11467E-04 
  59846.3068     0.11241E-04 
  59878.5690     0.11016E-04 
  59910.8311     0.10794E-04 
  59943.0933     0.10575E-04 
  59975.3554     0.10358E-04 
  60007.6176     0.10143E-04 
  60039.8798     0.99310E-05 
  60072.1419     0.97212E-05 
  60104.4041     0.95137E-05 
  60136.6662     0.93087E-05 
  60168.9284     0.91061E-05 
  60201.1906     0.89059E-05 
  60233.4527     0.87081E-05 
  60265.7149     0.85127E-05 
  60297.9770     0.83198E-05 
  60330.2392     0.81292E-05 
  60362.5014     0.79411E-05 
  60394.7635     0.77553E-05 
  60427.0257     0.75720E-05 
  60459.2878     0.73911E-05 
  60491.5500     0.72126E-05 
  60523.8122     0.70365E-05 
  60556.0743     0.68629E-05 
  60588.3365     0.66917E-05 
  60620.5986     0.65229E-05 
  60652.8608     0.63566E-05 
  60685.1230     0.61927E-05 
  60717.3851     0.60312E-05 
  60749.6473     0.58722E-05 
  60781.9094     0.57156E-05 
  60814.1716     0.55615E-05 
  60846.4338     0.54098E-05 
  60878.6959     0.52607E-05 
  60910.9581     0.51139E-05 
  60943.2202     0.49697E-05 
  60975.4824     0.48280E-05 
  61007.7446     0.46888E-05 
  61040.0067     0.45520E-05 
  61072.2689     0.44178E-05 
  61104.5310     0.42861E-05 
  61136.7932     0.41569E-05 
  61169.0554     0.40303E-05 
  61201.3175     0.39062E-05 
  61233.5797     0.37847E-05 
  61265.8418     0.36658E-05 
  61298.1040     0.35494E-05 
  61330.3662     0.34357E-05 
  61362.6283     0.33245E-05 
  61394.8905     0.32160E-05 
  61427.1526     0.31100E-05 
  61459.4148     0.30068E-05 
  61491.6770     0.29062E-05 
  61523.9391     0.28083E-05 
  61556.2013     0.27130E-05 
  61588.4634     0.26205E-05 
  61620.7256     0.25307E-05 
  61652.9878     0.24436E-05 
  61685.2499     0.23593E-05 
  61717.5121     0.22778E-05 
  61749.7742     0.21990E-05 
  61782.0364     0.21231E-05 
  61814.2986     0.20500E-05 
  61846.5607     0.19798E-05 
  61878.8229     0.19124E-05 
  61911.0850     0.18479E-05 
  61943.3472     0.17863E-05 
  61975.6094     0.17277E-05 
  62007.8715     0.16721E-05 
  62040.1337     0.16194E-05 
  62072.3958     0.15697E-05 
  62104.6580     0.15231E-05 
  62136.9202     0.14795E-05 
  62169.1823     0.14391E-05 
  62201.4445     0.14017E-05 
  62233.7066     0.13675E-05 
  62265.9688     0.13365E-05 
  62298.2310     0.13087E-05 
  62330.4931     0.12841E-05 
  62362.7553     0.12628E-05 
  62395.0174     0.12447E-05 
  62427.2796     0.12301E-05 
  62459.5418     0.12187E-05 
  62491.8039     0.12108E-05 
  62524.0661     0.12064E-05 
  62556.3282     0.12054E-05 
  62588.5904     0.12079E-05 
  62620.8526     0.12140E-05 
  62653.1147     0.12236E-05 
  62685.3769     0.12369E-05 
  62717.6390     0.12539E-05 
  62749.9012     0.12746E-05 
  62782.1634     0.12991E-05 
  62814.4255     0.13273E-05 
  62846.6877     0.13594E-05 
  62878.9498     0.13954E-05 
  62911.2120     0.14354E-05 
  62943.4742     0.14793E-05 
  62975.7363     0.15273E-05 
  63007.9985     0.15793E-05 
  63040.2606     0.16356E-05 
  63072.5228     0.16960E-05 
  63104.7850     0.17607E-05 
  63137.0471     0.18296E-05 
  63169.3093     0.19030E-05 
  63201.5714     0.19808E-05 
  63233.8336     0.20630E-05 
  63266.0958     0.21498E-05 
  63298.3579     0.22412E-05 
  63330.6201     0.23373E-05 
  63362.8822     0.24381E-05 
  63395.1444     0.25437E-05 
  63427.4066     0.26542E-05 
  63459.6687     0.27696E-05 
  63491.9309     0.28901E-05 
  63524.1930     0.30156E-05 
  63556.4552     0.31462E-05 
  63588.7174     0.32821E-05 
  63620.9795     0.34233E-05 
  63653.2417     0.35699E-05 
  63685.5038     0.37219E-05 
  63717.7660     0.38795E-05 
  63750.0282     0.40427E-05 
  63782.2903     0.42116E-05 
  63814.5525     0.43863E-05 
  63846.8146     0.45669E-05 
  63879.0768     0.47534E-05 
  63911.3390     0.49460E-05 
  63943.6011     0.51448E-05 
  63975.8633     0.53498E-05 
  64008.1254     0.55612E-05 
  64040.3876     0.57790E-05 
  64072.6498     0.60034E-05 
  64104.9119     0.62344E-05 
  64137.1741     0.64721E-05 
  64169.4362     0.67167E-05 
  64201.6984     0.69683E-05 
  64233.9606     0.72270E-05 
  64266.2227     0.74928E-05 
  64298.4849     0.77660E-05 
  64330.7470     0.80465E-05 
  64363.0092     0.83346E-05 
  64395.2714     0.86304E-05 
  64427.5335     0.89339E-05 
  64459.7957     0.92454E-05 
  64492.0578     0.95648E-05 
  64524.3200     0.98924E-05 
  64556.5822     0.10228E-04 
  64588.8443     0.10573E-04 
  64621.1065     0.10926E-04 
  64653.3686     0.11287E-04 
  64685.6308     0.11658E-04 
  64717.8930     0.12037E-04 
  64750.1551     0.12426E-04 
  64782.4173     0.12824E-04 
  64814.6794     0.13231E-04 
  64846.9416     0.13648E-04 
  64879.2038     0.14074E-04 
  64911.4659     0.14511E-04 
  64943.7281     0.14957E-04 
  64975.9902     0.15414E-04 
  65008.2524     0.15881E-04 
  65040.5146     0.16359E-04 
  65072.7767     0.16848E-04 
  65105.0389     0.17347E-04 
  65137.3010     0.17858E-04 
  65169.5632     0.18379E-04 
  65201.8254     0.18912E-04 
  65234.0875     0.19457E-04 
  65266.3497     0.20014E-04 
  65298.6118     0.20583E-04 
  65330.8740     0.21164E-04 
  65363.1362     0.21757E-04 
  65395.3983     0.22363E-04 
  65427.6605     0.22982E-04 
  65459.9226     0.23614E-04 
  65492.1848     0.24259E-04 
  65524.4470     0.24917E-04 
  65556.7091     0.25589E-04 
  65588.9713     0.26275E-04 
  65621.2334     0.26976E-04 
  65653.4956     0.27690E-04 
  65685.7578     0.28419E-04 
  65718.0199     0.29163E-04 
  65750.2821     0.29922E-04 
  65782.5442     0.30697E-04 
  65814.8064     0.31486E-04 
  65847.0686     0.32292E-04 
  65879.3307     0.33114E-04 
  65911.5929     0.33952E-04 
  65943.8550     0.34806E-04 
  65976.1172     0.35677E-04 
  66008.3794     0.36566E-04 
  66040.6415     0.37472E-04 
  66072.9037     0.38395E-04 
  66105.1658     0.39336E-04 
  66137.4280     0.40296E-04 
  66169.6902     0.41274E-04 
  66201.9523     0.42270E-04 
  66234.2145     0.43286E-04 
  66266.4766     0.44321E-04 
  66298.7388     0.45376E-04 
  66331.0010     0.46451E-04 
  66363.2631     0.47546E-04 
  66395.5253     0.48661E-04 
  66427.7874     0.49797E-04 
  66460.0496     0.50955E-04 
  66492.3118     0.52134E-04 
  66524.5739     0.53335E-04 
  66556.8361     0.54558E-04 
  66589.0982     0.55804E-04 
  66621.3604     0.57073E-04 
  66653.6226     0.58364E-04 
  66685.8847     0.59680E-04 
  66718.1469     0.61019E-04 
  66750.4090     0.62382E-04 
  66782.6712     0.63771E-04 
  66814.9334     0.65184E-04 
  66847.1955     0.66622E-04 
  66879.4577     0.68086E-04 
  66911.7198     0.69577E-04 
  66943.9820     0.71093E-04 
  66976.2442     0.72637E-04 
  67008.5063     0.74208E-04 
  67040.7685     0.75807E-04 
  67073.0306     0.77433E-04 
  67105.2928     0.79088E-04 
  67137.5550     0.80772E-04 
  67169.8171     0.82486E-04 
  67202.0793     0.84229E-04 
  67234.3414     0.86002E-04 
  67266.6036     0.87805E-04 
  67298.8658     0.89640E-04 
  67331.1279     0.91506E-04 
  67363.3901     0.93404E-04 
  67395.6522     0.95334E-04 
  67427.9144     0.97297E-04 
  67460.1766     0.99293E-04 
  67492.4387     0.10132E-03 
  67524.7009     0.10339E-03 
  67556.9630     0.10548E-03 
  67589.2252     0.10762E-03 
  67621.4874     0.10979E-03 
  67653.7495     0.11199E-03 
  67686.0117     0.11423E-03 
  67718.2738     0.11651E-03 
  67750.5360     0.11883E-03 
  67782.7982     0.12118E-03 
  67815.0603     0.12357E-03 
  67847.3225     0.12600E-03 
  67879.5846     0.12847E-03 
  67911.8468     0.13098E-03 
  67944.1090     0.13353E-03 
  67976.3711     0.13612E-03 
  68008.6333     0.13876E-03 
  68040.8954     0.14143E-03 
  68073.1576     0.14415E-03 
  68105.4198     0.14691E-03 
  68137.6819     0.14971E-03 
  68169.9441     0.15256E-03 
  68202.2062     0.15545E-03 
  68234.4684     0.15839E-03 
  68266.7306     0.16138E-03 
  68298.9927     0.16441E-03 
  68331.2549     0.16748E-03 
  68363.5170     0.17061E-03 
  68395.7792     0.17378E-03 
  68428.0414     0.17700E-03 
  68460.3035     0.18027E-03 
  68492.5657     0.18359E-03 
  68524.8278     0.18696E-03 
  68557.0900     0.19038E-03 
  68589.3522     0.19385E-03 
  68621.6143     0.19738E-03 
  68653.8765     0.20096E-03 
  68686.1386     0.20459E-03 
  68718.4008     0.20827E-03 
  68750.6630     0.21201E-03 
  68782.9251     0.21580E-03 
  68815.1873     0.21965E-03 
  68847.4494     0.22356E-03 
  68879.7116     0.22752E-03 
  68911.9738     0.23154E-03 
  68944.2359     0.23562E-03 
  68976.4981     0.23975E-03 
  69008.7602     0.24395E-03 
  69041.0224     0.24821E-03 
  69073.2846     0.25252E-03 
  69105.5467     0.25690E-03 
  69137.8089     0.26134E-03 
  69170.0710     0.26584E-03 
  69202.3332     0.27041E-03 
  69234.5954     0.27504E-03 
  69266.8575     0.27973E-03 
  69299.1197     0.28449E-03 
  69331.3818     0.28932E-03 
  69363.6440     0.29421E-03 
  69395.9062     0.29916E-03 
  69428.1683     0.30419E-03 
  69460.4305     0.30928E-03 
  69492.6926     0.31445E-03 
  69524.9548     0.31968E-03 
  69557.2170     0.32498E-03 
  69589.4791     0.33035E-03 
  69621.7413     0.33580E-03 
  69654.0034     0.34132E-03 
  69686.2656     0.34691E-03 
  69718.5278     0.35257E-03 
  69750.7899     0.35831E-03 
  69783.0521     0.36412E-03 
  69815.3142     0.37001E-03 
  69847.5764     0.37597E-03 
  69879.8386     0.38201E-03 
  69912.1007     0.38813E-03 
  69944.3629     0.39432E-03 
  69976.6250     0.40060E-03 
  70008.8872     0.40695E-03 
  70041.1494     0.41339E-03 
  70073.4115     0.41990E-03 
  70105.6737     0.42650E-03 
  70137.9358     0.43318E-03 
  70170.1980     0.43994E-03 
  70202.4602     0.44678E-03 
  70234.7223     0.45371E-03 
  70266.9845     0.46072E-03 
  70299.2466     0.46782E-03 
  70331.5088     0.47500E-03 
  70363.7710     0.48227E-03 
  70396.0331     0.48963E-03 
  70428.2953     0.49707E-03 
  70460.5574     0.50460E-03 
  70492.8196     0.51223E-03 
  70525.0818     0.51994E-03 
  70557.3439     0.52774E-03 
  70589.6061     0.53563E-03 
  70621.8682     0.54361E-03 
  70654.1304     0.55169E-03 
  70686.3926     0.55986E-03 
  70718.6547     0.56812E-03 
  70750.9169     0.57647E-03 
  70783.1790     0.58492E-03 
  70815.4412     0.59347E-03 
  70847.7034     0.60211E-03 
  70879.9655     0.61085E-03 
  70912.2277     0.61968E-03 
  70944.4898     0.62861E-03 
  70976.7520     0.63764E-03 
  71009.0142     0.64676E-03 
  71041.2763     0.65599E-03 
  71073.5385     0.66532E-03 
  71105.8006     0.67474E-03 
  71138.0628     0.68427E-03 
  71170.3250     0.69389E-03 
  71202.5871     0.70362E-03 
  71234.8493     0.71345E-03 
  71267.1114     0.72339E-03 
  71299.3736     0.73342E-03 
  71331.6358     0.74357E-03 
  71363.8979     0.75381E-03 
  71396.1601     0.76416E-03 
  71428.4222     0.77461E-03 
  71460.6844     0.78517E-03 
  71492.9466     0.79584E-03 
  71525.2087     0.80661E-03 
  71557.4709     0.81749E-03 
  71589.7330     0.82848E-03 
  71621.9952     0.83958E-03 
  71654.2574     0.85078E-03 
  71686.5195     0.86209E-03 
  71718.7817     0.87351E-03 
  71751.0438     0.88504E-03 
  71783.3060     0.89668E-03 
  71815.5682     0.90843E-03 
  71847.8303     0.92030E-03 
  71880.0925     0.93227E-03 
  71912.3546     0.94435E-03 
  71944.6168     0.95655E-03 
  71976.8790     0.96885E-03 
  72009.1411     0.98127E-03 
  72041.4033     0.99381E-03 
  72073.6654     0.10065E-02 
  72105.9276     0.10192E-02 
  72138.1898     0.10321E-02 
  72170.4519     0.10451E-02 
  72202.7141     0.10582E-02 
  72234.9762     0.10714E-02 
  72267.2384     0.10847E-02 
  72299.5006     0.10982E-02 
  72331.7627     0.11117E-02 
  72364.0249     0.11254E-02 
  72396.2870     0.11392E-02 
  72428.5492     0.11531E-02 
  72460.8114     0.11671E-02 
  72493.0735     0.11812E-02 
  72525.3357     0.11955E-02 
  72557.5978     0.12098E-02 
  72589.8600     0.12243E-02 
