  32262.1600     0.11476E+00 
  32294.4222     0.11662E+00 
  32326.6843     0.11851E+00 
  32358.9465     0.12042E+00 
  32391.2086     0.12235E+00 
  32423.4708     0.12430E+00 
  32455.7330     0.12627E+00 
  32487.9951     0.12827E+00 
  32520.2573     0.13029E+00 
  32552.5194     0.13234E+00 
  32584.7816     0.13441E+00 
  32617.0438     0.13650E+00 
  32649.3059     0.13861E+00 
  32681.5681     0.14075E+00 
  32713.8302     0.14291E+00 
  32746.0924     0.14510E+00 
  32778.3546     0.14731E+00 
  32810.6167     0.14954E+00 
  32842.8789     0.15180E+00 
  32875.1410     0.15408E+00 
  32907.4032     0.15638E+00 
  32939.6654     0.15871E+00 
  32971.9275     0.16106E+00 
  33004.1897     0.16344E+00 
  33036.4518     0.16584E+00 
  33068.7140     0.16826E+00 
  33100.9762     0.17071E+00 
  33133.2383     0.17319E+00 
  33165.5005     0.17568E+00 
  33197.7626     0.17820E+00 
  33230.0248     0.18075E+00 
  33262.2870     0.18332E+00 
  33294.5491     0.18591E+00 
  33326.8113     0.18853E+00 
  33359.0734     0.19117E+00 
  33391.3356     0.19384E+00 
  33423.5978     0.19653E+00 
  33455.8599     0.19925E+00 
  33488.1221     0.20199E+00 
  33520.3842     0.20475E+00 
  33552.6464     0.20754E+00 
  33584.9086     0.21035E+00 
  33617.1707     0.21318E+00 
  33649.4329     0.21604E+00 
  33681.6950     0.21892E+00 
  33713.9572     0.22183E+00 
  33746.2194     0.22476E+00 
  33778.4815     0.22771E+00 
  33810.7437     0.23069E+00 
  33843.0058     0.23369E+00 
  33875.2680     0.23672E+00 
  33907.5302     0.23976E+00 
  33939.7923     0.24283E+00 
  33972.0545     0.24593E+00 
  34004.3166     0.24904E+00 
  34036.5788     0.25218E+00 
  34068.8410     0.25535E+00 
  34101.1031     0.25853E+00 
  34133.3653     0.26174E+00 
  34165.6274     0.26497E+00 
  34197.8896     0.26822E+00 
  34230.1518     0.27149E+00 
  34262.4139     0.27479E+00 
  34294.6761     0.27811E+00 
  34326.9382     0.28145E+00 
  34359.2004     0.28481E+00 
  34391.4626     0.28819E+00 
  34423.7247     0.29159E+00 
  34455.9869     0.29502E+00 
  34488.2490     0.29846E+00 
  34520.5112     0.30193E+00 
  34552.7734     0.30541E+00 
  34585.0355     0.30892E+00 
  34617.2977     0.31245E+00 
  34649.5598     0.31599E+00 
  34681.8220     0.31956E+00 
  34714.0842     0.32314E+00 
  34746.3463     0.32674E+00 
  34778.6085     0.33037E+00 
  34810.8706     0.33401E+00 
  34843.1328     0.33767E+00 
  34875.3950     0.34134E+00 
  34907.6571     0.34504E+00 
  34939.9193     0.34875E+00 
  34972.1814     0.35248E+00 
  35004.4436     0.35623E+00 
  35036.7058     0.35999E+00 
  35068.9679     0.36377E+00 
  35101.2301     0.36757E+00 
  35133.4922     0.37138E+00 
  35165.7544     0.37521E+00 
  35198.0166     0.37905E+00 
  35230.2787     0.38291E+00 
  35262.5409     0.38678E+00 
  35294.8030     0.39067E+00 
  35327.0652     0.39457E+00 
  35359.3274     0.39849E+00 
  35391.5895     0.40242E+00 
  35423.8517     0.40636E+00 
  35456.1138     0.41031E+00 
  35488.3760     0.41428E+00 
  35520.6382     0.41826E+00 
  35552.9003     0.42225E+00 
  35585.1625     0.42626E+00 
  35617.4246     0.43027E+00 
  35649.6868     0.43429E+00 
  35681.9490     0.43833E+00 
  35714.2111     0.44237E+00 
  35746.4733     0.44643E+00 
  35778.7354     0.45049E+00 
  35810.9976     0.45456E+00 
  35843.2598     0.45864E+00 
  35875.5219     0.46273E+00 
  35907.7841     0.46683E+00 
  35940.0462     0.47094E+00 
  35972.3084     0.47505E+00 
  36004.5706     0.47917E+00 
  36036.8327     0.48329E+00 
  36069.0949     0.48742E+00 
  36101.3570     0.49155E+00 
  36133.6192     0.49570E+00 
  36165.8814     0.49984E+00 
  36198.1435     0.50399E+00 
  36230.4057     0.50814E+00 
  36262.6678     0.51230E+00 
  36294.9300     0.51646E+00 
  36327.1922     0.52062E+00 
  36359.4543     0.52478E+00 
  36391.7165     0.52895E+00 
  36423.9786     0.53311E+00 
  36456.2408     0.53728E+00 
  36488.5030     0.54145E+00 
  36520.7651     0.54562E+00 
  36553.0273     0.54979E+00 
  36585.2894     0.55395E+00 
  36617.5516     0.55812E+00 
  36649.8138     0.56228E+00 
  36682.0759     0.56644E+00 
  36714.3381     0.57060E+00 
  36746.6002     0.57475E+00 
  36778.8624     0.57891E+00 
  36811.1246     0.58305E+00 
  36843.3867     0.58720E+00 
  36875.6489     0.59134E+00 
  36907.9110     0.59547E+00 
  36940.1732     0.59960E+00 
  36972.4354     0.60372E+00 
  37004.6975     0.60783E+00 
  37036.9597     0.61194E+00 
  37069.2218     0.61604E+00 
  37101.4840     0.62013E+00 
  37133.7462     0.62422E+00 
  37166.0083     0.62829E+00 
  37198.2705     0.63236E+00 
  37230.5326     0.63641E+00 
  37262.7948     0.64046E+00 
  37295.0570     0.64450E+00 
  37327.3191     0.64852E+00 
  37359.5813     0.65253E+00 
  37391.8434     0.65653E+00 
  37424.1056     0.66052E+00 
  37456.3678     0.66450E+00 
  37488.6299     0.66846E+00 
  37520.8921     0.67241E+00 
  37553.1542     0.67634E+00 
  37585.4164     0.68026E+00 
  37617.6786     0.68417E+00 
  37649.9407     0.68806E+00 
  37682.2029     0.69193E+00 
  37714.4650     0.69579E+00 
  37746.7272     0.69963E+00 
  37778.9894     0.70346E+00 
  37811.2515     0.70726E+00 
  37843.5137     0.71105E+00 
  37875.7758     0.71482E+00 
  37908.0380     0.71857E+00 
  37940.3002     0.72231E+00 
  37972.5623     0.72602E+00 
  38004.8245     0.72971E+00 
  38037.0866     0.73339E+00 
  38069.3488     0.73704E+00 
  38101.6110     0.74067E+00 
  38133.8731     0.74428E+00 
  38166.1353     0.74787E+00 
  38198.3974     0.75143E+00 
  38230.6596     0.75497E+00 
  38262.9218     0.75849E+00 
  38295.1839     0.76199E+00 
  38327.4461     0.76546E+00 
  38359.7082     0.76891E+00 
  38391.9704     0.77233E+00 
  38424.2326     0.77573E+00 
  38456.4947     0.77910E+00 
  38488.7569     0.78245E+00 
  38521.0190     0.78577E+00 
  38553.2812     0.78907E+00 
  38585.5434     0.79234E+00 
  38617.8055     0.79558E+00 
  38650.0677     0.79879E+00 
  38682.3298     0.80198E+00 
  38714.5920     0.80514E+00 
  38746.8542     0.80827E+00 
  38779.1163     0.81137E+00 
  38811.3785     0.81444E+00 
  38843.6406     0.81749E+00 
  38875.9028     0.82050E+00 
  38908.1650     0.82348E+00 
  38940.4271     0.82644E+00 
  38972.6893     0.82936E+00 
  39004.9514     0.83225E+00 
  39037.2136     0.83512E+00 
  39069.4758     0.83795E+00 
  39101.7379     0.84075E+00 
  39134.0001     0.84351E+00 
  39166.2622     0.84625E+00 
  39198.5244     0.84895E+00 
  39230.7866     0.85162E+00 
  39263.0487     0.85426E+00 
  39295.3109     0.85686E+00 
  39327.5730     0.85943E+00 
  39359.8352     0.86197E+00 
  39392.0974     0.86447E+00 
  39424.3595     0.86694E+00 
  39456.6217     0.86937E+00 
  39488.8838     0.87177E+00 
  39521.1460     0.87414E+00 
  39553.4082     0.87647E+00 
  39585.6703     0.87876E+00 
  39617.9325     0.88102E+00 
  39650.1946     0.88325E+00 
  39682.4568     0.88544E+00 
  39714.7190     0.88759E+00 
  39746.9811     0.88971E+00 
  39779.2433     0.89179E+00 
  39811.5054     0.89383E+00 
  39843.7676     0.89584E+00 
  39876.0298     0.89781E+00 
  39908.2919     0.89974E+00 
  39940.5541     0.90164E+00 
  39972.8162     0.90350E+00 
  40005.0784     0.90532E+00 
  40037.3406     0.90711E+00 
  40069.6027     0.90886E+00 
  40101.8649     0.91057E+00 
  40134.1270     0.91224E+00 
  40166.3892     0.91387E+00 
  40198.6514     0.91547E+00 
  40230.9135     0.91703E+00 
  40263.1757     0.91855E+00 
  40295.4378     0.92003E+00 
  40327.7000     0.92148E+00 
  40359.9622     0.92288E+00 
  40392.2243     0.92425E+00 
  40424.4865     0.92558E+00 
  40456.7486     0.92687E+00 
  40489.0108     0.92812E+00 
  40521.2730     0.92933E+00 
  40553.5351     0.93051E+00 
  40585.7973     0.93165E+00 
  40618.0594     0.93274E+00 
  40650.3216     0.93380E+00 
  40682.5838     0.93482E+00 
  40714.8459     0.93580E+00 
  40747.1081     0.93674E+00 
  40779.3702     0.93764E+00 
  40811.6324     0.93851E+00 
  40843.8946     0.93933E+00 
  40876.1567     0.94012E+00 
  40908.4189     0.94087E+00 
  40940.6810     0.94158E+00 
  40972.9432     0.94225E+00 
  41005.2054     0.94288E+00 
  41037.4675     0.94347E+00 
  41069.7297     0.94402E+00 
  41101.9918     0.94454E+00 
  41134.2540     0.94502E+00 
  41166.5162     0.94545E+00 
  41198.7783     0.94585E+00 
  41231.0405     0.94621E+00 
  41263.3026     0.94654E+00 
  41295.5648     0.94682E+00 
  41327.8270     0.94707E+00 
  41360.0891     0.94727E+00 
  41392.3513     0.94744E+00 
  41424.6134     0.94758E+00 
  41456.8756     0.94767E+00 
  41489.1378     0.94773E+00 
  41521.3999     0.94774E+00 
  41553.6621     0.94773E+00 
  41585.9242     0.94767E+00 
  41618.1864     0.94757E+00 
  41650.4486     0.94744E+00 
  41682.7107     0.94727E+00 
  41714.9729     0.94707E+00 
  41747.2350     0.94683E+00 
  41779.4972     0.94655E+00 
  41811.7594     0.94623E+00 
  41844.0215     0.94588E+00 
  41876.2837     0.94549E+00 
  41908.5458     0.94507E+00 
  41940.8080     0.94460E+00 
  41973.0702     0.94411E+00 
  42005.3323     0.94358E+00 
  42037.5945     0.94301E+00 
  42069.8566     0.94240E+00 
  42102.1188     0.94176E+00 
  42134.3810     0.94109E+00 
  42166.6431     0.94038E+00 
  42198.9053     0.93964E+00 
  42231.1674     0.93886E+00 
  42263.4296     0.93805E+00 
  42295.6918     0.93720E+00 
  42327.9539     0.93632E+00 
  42360.2161     0.93541E+00 
  42392.4782     0.93446E+00 
  42424.7404     0.93348E+00 
  42457.0026     0.93246E+00 
  42489.2647     0.93142E+00 
  42521.5269     0.93033E+00 
  42553.7890     0.92922E+00 
  42586.0512     0.92808E+00 
  42618.3134     0.92690E+00 
  42650.5755     0.92569E+00 
  42682.8377     0.92445E+00 
  42715.0998     0.92318E+00 
  42747.3620     0.92187E+00 
  42779.6242     0.92054E+00 
  42811.8863     0.91917E+00 
  42844.1485     0.91778E+00 
  42876.4106     0.91635E+00 
  42908.6728     0.91489E+00 
  42940.9350     0.91341E+00 
  42973.1971     0.91189E+00 
  43005.4593     0.91035E+00 
  43037.7214     0.90877E+00 
  43069.9836     0.90717E+00 
  43102.2458     0.90554E+00 
  43134.5079     0.90388E+00 
  43166.7701     0.90219E+00 
  43199.0322     0.90047E+00 
  43231.2944     0.89873E+00 
  43263.5566     0.89696E+00 
  43295.8187     0.89516E+00 
  43328.0809     0.89334E+00 
  43360.3430     0.89148E+00 
  43392.6052     0.88961E+00 
  43424.8674     0.88770E+00 
  43457.1295     0.88577E+00 
  43489.3917     0.88382E+00 
  43521.6538     0.88184E+00 
  43553.9160     0.87983E+00 
  43586.1782     0.87780E+00 
  43618.4403     0.87575E+00 
  43650.7025     0.87367E+00 
  43682.9646     0.87157E+00 
  43715.2268     0.86944E+00 
  43747.4890     0.86729E+00 
  43779.7511     0.86512E+00 
  43812.0133     0.86292E+00 
  43844.2754     0.86070E+00 
  43876.5376     0.85846E+00 
  43908.7998     0.85620E+00 
  43941.0619     0.85392E+00 
  43973.3241     0.85161E+00 
  44005.5862     0.84929E+00 
  44037.8484     0.84694E+00 
  44070.1106     0.84457E+00 
  44102.3727     0.84219E+00 
  44134.6349     0.83978E+00 
  44166.8970     0.83735E+00 
  44199.1592     0.83490E+00 
  44231.4214     0.83244E+00 
  44263.6835     0.82995E+00 
  44295.9457     0.82745E+00 
  44328.2078     0.82493E+00 
  44360.4700     0.82239E+00 
  44392.7322     0.81983E+00 
  44424.9943     0.81725E+00 
  44457.2565     0.81466E+00 
  44489.5186     0.81205E+00 
  44521.7808     0.80943E+00 
  44554.0430     0.80679E+00 
  44586.3051     0.80413E+00 
  44618.5673     0.80145E+00 
  44650.8294     0.79876E+00 
  44683.0916     0.79606E+00 
  44715.3538     0.79334E+00 
  44747.6159     0.79061E+00 
  44779.8781     0.78786E+00 
  44812.1402     0.78510E+00 
  44844.4024     0.78232E+00 
  44876.6646     0.77953E+00 
  44908.9267     0.77673E+00 
  44941.1889     0.77391E+00 
  44973.4510     0.77108E+00 
  45005.7132     0.76824E+00 
  45037.9754     0.76539E+00 
  45070.2375     0.76252E+00 
  45102.4997     0.75965E+00 
  45134.7618     0.75676E+00 
  45167.0240     0.75386E+00 
  45199.2862     0.75095E+00 
  45231.5483     0.74803E+00 
  45263.8105     0.74510E+00 
  45296.0726     0.74216E+00 
  45328.3348     0.73921E+00 
  45360.5970     0.73625E+00 
  45392.8591     0.73328E+00 
  45425.1213     0.73030E+00 
  45457.3834     0.72731E+00 
  45489.6456     0.72432E+00 
  45521.9078     0.72131E+00 
  45554.1699     0.71830E+00 
  45586.4321     0.71528E+00 
  45618.6942     0.71226E+00 
  45650.9564     0.70922E+00 
  45683.2186     0.70618E+00 
  45715.4807     0.70314E+00 
  45747.7429     0.70008E+00 
  45780.0050     0.69702E+00 
  45812.2672     0.69396E+00 
  45844.5294     0.69089E+00 
  45876.7915     0.68781E+00 
  45909.0537     0.68473E+00 
  45941.3158     0.68164E+00 
  45973.5780     0.67855E+00 
  46005.8402     0.67546E+00 
  46038.1023     0.67236E+00 
  46070.3645     0.66925E+00 
  46102.6266     0.66614E+00 
  46134.8888     0.66303E+00 
  46167.1510     0.65992E+00 
  46199.4131     0.65680E+00 
  46231.6753     0.65368E+00 
  46263.9374     0.65056E+00 
  46296.1996     0.64743E+00 
  46328.4618     0.64430E+00 
  46360.7239     0.64117E+00 
  46392.9861     0.63804E+00 
  46425.2482     0.63491E+00 
  46457.5104     0.63178E+00 
  46489.7726     0.62864E+00 
  46522.0347     0.62550E+00 
  46554.2969     0.62237E+00 
  46586.5590     0.61923E+00 
  46618.8212     0.61609E+00 
  46651.0834     0.61295E+00 
  46683.3455     0.60982E+00 
  46715.6077     0.60668E+00 
  46747.8698     0.60354E+00 
  46780.1320     0.60041E+00 
  46812.3942     0.59727E+00 
  46844.6563     0.59414E+00 
  46876.9185     0.59101E+00 
  46909.1806     0.58788E+00 
  46941.4428     0.58475E+00 
  46973.7050     0.58162E+00 
  47005.9671     0.57849E+00 
  47038.2293     0.57537E+00 
  47070.4914     0.57225E+00 
  47102.7536     0.56913E+00 
  47135.0158     0.56602E+00 
  47167.2779     0.56291E+00 
  47199.5401     0.55980E+00 
  47231.8022     0.55669E+00 
  47264.0644     0.55359E+00 
  47296.3266     0.55049E+00 
  47328.5887     0.54740E+00 
  47360.8509     0.54430E+00 
  47393.1130     0.54122E+00 
  47425.3752     0.53814E+00 
  47457.6374     0.53506E+00 
  47489.8995     0.53198E+00 
  47522.1617     0.52892E+00 
  47554.4238     0.52585E+00 
  47586.6860     0.52279E+00 
  47618.9482     0.51974E+00 
  47651.2103     0.51669E+00 
  47683.4725     0.51365E+00 
  47715.7346     0.51061E+00 
  47747.9968     0.50758E+00 
  47780.2590     0.50456E+00 
  47812.5211     0.50154E+00 
  47844.7833     0.49852E+00 
  47877.0454     0.49552E+00 
  47909.3076     0.49252E+00 
  47941.5698     0.48952E+00 
  47973.8319     0.48654E+00 
  48006.0941     0.48356E+00 
  48038.3562     0.48058E+00 
  48070.6184     0.47762E+00 
  48102.8806     0.47466E+00 
  48135.1427     0.47171E+00 
  48167.4049     0.46876E+00 
  48199.6670     0.46583E+00 
  48231.9292     0.46290E+00 
  48264.1914     0.45998E+00 
  48296.4535     0.45706E+00 
  48328.7157     0.45416E+00 
  48360.9778     0.45126E+00 
  48393.2400     0.44837E+00 
  48425.5022     0.44549E+00 
  48457.7643     0.44262E+00 
  48490.0265     0.43975E+00 
  48522.2886     0.43690E+00 
  48554.5508     0.43405E+00 
  48586.8130     0.43121E+00 
  48619.0751     0.42839E+00 
  48651.3373     0.42557E+00 
  48683.5994     0.42275E+00 
  48715.8616     0.41995E+00 
  48748.1238     0.41716E+00 
  48780.3859     0.41438E+00 
  48812.6481     0.41160E+00 
  48844.9102     0.40884E+00 
  48877.1724     0.40608E+00 
  48909.4346     0.40334E+00 
  48941.6967     0.40060E+00 
  48973.9589     0.39788E+00 
  49006.2210     0.39516E+00 
  49038.4832     0.39245E+00 
  49070.7454     0.38976E+00 
  49103.0075     0.38707E+00 
  49135.2697     0.38440E+00 
  49167.5318     0.38173E+00 
  49199.7940     0.37907E+00 
  49232.0562     0.37643E+00 
  49264.3183     0.37379E+00 
  49296.5805     0.37117E+00 
  49328.8426     0.36856E+00 
  49361.1048     0.36595E+00 
  49393.3670     0.36336E+00 
  49425.6291     0.36078E+00 
  49457.8913     0.35820E+00 
  49490.1534     0.35564E+00 
  49522.4156     0.35309E+00 
  49554.6778     0.35055E+00 
  49586.9399     0.34802E+00 
  49619.2021     0.34551E+00 
  49651.4642     0.34300E+00 
  49683.7264     0.34050E+00 
  49715.9886     0.33802E+00 
  49748.2507     0.33554E+00 
  49780.5129     0.33308E+00 
  49812.7750     0.33063E+00 
  49845.0372     0.32819E+00 
  49877.2994     0.32576E+00 
  49909.5615     0.32334E+00 
  49941.8237     0.32093E+00 
  49974.0858     0.31854E+00 
  50006.3480     0.31615E+00 
  50038.6102     0.31378E+00 
  50070.8723     0.31142E+00 
  50103.1345     0.30907E+00 
  50135.3966     0.30673E+00 
  50167.6588     0.30440E+00 
  50199.9210     0.30208E+00 
  50232.1831     0.29978E+00 
  50264.4453     0.29748E+00 
  50296.7074     0.29520E+00 
  50328.9696     0.29293E+00 
  50361.2318     0.29067E+00 
  50393.4939     0.28842E+00 
  50425.7561     0.28619E+00 
  50458.0182     0.28396E+00 
  50490.2804     0.28175E+00 
  50522.5426     0.27955E+00 
  50554.8047     0.27736E+00 
  50587.0669     0.27518E+00 
  50619.3290     0.27301E+00 
  50651.5912     0.27085E+00 
  50683.8534     0.26871E+00 
  50716.1155     0.26658E+00 
  50748.3777     0.26446E+00 
  50780.6398     0.26235E+00 
  50812.9020     0.26025E+00 
  50845.1642     0.25816E+00 
  50877.4263     0.25609E+00 
  50909.6885     0.25403E+00 
  50941.9506     0.25197E+00 
  50974.2128     0.24993E+00 
  51006.4750     0.24790E+00 
  51038.7371     0.24589E+00 
  51070.9993     0.24388E+00 
  51103.2614     0.24189E+00 
  51135.5236     0.23990E+00 
  51167.7858     0.23793E+00 
  51200.0479     0.23597E+00 
  51232.3101     0.23402E+00 
  51264.5722     0.23209E+00 
  51296.8344     0.23016E+00 
  51329.0966     0.22825E+00 
  51361.3587     0.22634E+00 
  51393.6209     0.22445E+00 
  51425.8830     0.22257E+00 
  51458.1452     0.22070E+00 
  51490.4074     0.21885E+00 
  51522.6695     0.21700E+00 
  51554.9317     0.21517E+00 
  51587.1938     0.21334E+00 
  51619.4560     0.21153E+00 
  51651.7182     0.20973E+00 
  51683.9803     0.20794E+00 
  51716.2425     0.20616E+00 
  51748.5046     0.20439E+00 
  51780.7668     0.20263E+00 
  51813.0290     0.20089E+00 
  51845.2911     0.19915E+00 
  51877.5533     0.19743E+00 
  51909.8154     0.19572E+00 
  51942.0776     0.19401E+00 
  51974.3398     0.19232E+00 
  52006.6019     0.19064E+00 
  52038.8641     0.18897E+00 
  52071.1262     0.18732E+00 
  52103.3884     0.18567E+00 
  52135.6506     0.18403E+00 
  52167.9127     0.18241E+00 
  52200.1749     0.18079E+00 
  52232.4370     0.17919E+00 
  52264.6992     0.17759E+00 
  52296.9614     0.17601E+00 
  52329.2235     0.17444E+00 
  52361.4857     0.17287E+00 
  52393.7478     0.17132E+00 
  52426.0100     0.16978E+00 
  52458.2722     0.16825E+00 
  52490.5343     0.16673E+00 
  52522.7965     0.16522E+00 
  52555.0586     0.16372E+00 
  52587.3208     0.16223E+00 
  52619.5830     0.16075E+00 
  52651.8451     0.15928E+00 
  52684.1073     0.15783E+00 
  52716.3694     0.15638E+00 
  52748.6316     0.15494E+00 
  52780.8938     0.15351E+00 
  52813.1559     0.15209E+00 
  52845.4181     0.15068E+00 
  52877.6802     0.14929E+00 
  52909.9424     0.14790E+00 
  52942.2046     0.14652E+00 
  52974.4667     0.14515E+00 
  53006.7289     0.14379E+00 
  53038.9910     0.14244E+00 
  53071.2532     0.14110E+00 
  53103.5154     0.13977E+00 
  53135.7775     0.13845E+00 
  53168.0397     0.13714E+00 
  53200.3018     0.13584E+00 
  53232.5640     0.13455E+00 
  53264.8262     0.13327E+00 
  53297.0883     0.13199E+00 
  53329.3505     0.13073E+00 
  53361.6126     0.12947E+00 
  53393.8748     0.12823E+00 
  53426.1370     0.12699E+00 
  53458.3991     0.12577E+00 
  53490.6613     0.12455E+00 
  53522.9234     0.12334E+00 
  53555.1856     0.12214E+00 
  53587.4478     0.12095E+00 
  53619.7099     0.11977E+00 
  53651.9721     0.11860E+00 
  53684.2342     0.11743E+00 
  53716.4964     0.11628E+00 
  53748.7586     0.11513E+00 
  53781.0207     0.11400E+00 
  53813.2829     0.11287E+00 
  53845.5450     0.11175E+00 
  53877.8072     0.11064E+00 
  53910.0694     0.10953E+00 
  53942.3315     0.10844E+00 
  53974.5937     0.10735E+00 
  54006.8558     0.10628E+00 
  54039.1180     0.10521E+00 
  54071.3802     0.10415E+00 
  54103.6423     0.10309E+00 
  54135.9045     0.10205E+00 
  54168.1666     0.10101E+00 
  54200.4288     0.99985E-01 
  54232.6910     0.98965E-01 
  54264.9531     0.97953E-01 
  54297.2153     0.96949E-01 
  54329.4774     0.95954E-01 
  54361.7396     0.94966E-01 
  54394.0018     0.93986E-01 
  54426.2639     0.93013E-01 
  54458.5261     0.92049E-01 
  54490.7882     0.91092E-01 
  54523.0504     0.90143E-01 
  54555.3126     0.89202E-01 
  54587.5747     0.88268E-01 
  54619.8369     0.87341E-01 
  54652.0990     0.86423E-01 
  54684.3612     0.85511E-01 
  54716.6234     0.84607E-01 
  54748.8855     0.83711E-01 
  54781.1477     0.82821E-01 
  54813.4098     0.81940E-01 
  54845.6720     0.81065E-01 
  54877.9342     0.80197E-01 
  54910.1963     0.79337E-01 
  54942.4585     0.78483E-01 
  54974.7206     0.77637E-01 
  55006.9828     0.76798E-01 
  55039.2450     0.75965E-01 
  55071.5071     0.75140E-01 
  55103.7693     0.74321E-01 
  55136.0314     0.73510E-01 
  55168.2936     0.72705E-01 
  55200.5558     0.71907E-01 
  55232.8179     0.71115E-01 
  55265.0801     0.70330E-01 
  55297.3422     0.69552E-01 
  55329.6044     0.68780E-01 
  55361.8666     0.68015E-01 
  55394.1287     0.67256E-01 
  55426.3909     0.66504E-01 
  55458.6530     0.65758E-01 
  55490.9152     0.65019E-01 
  55523.1774     0.64285E-01 
  55555.4395     0.63558E-01 
  55587.7017     0.62838E-01 
  55619.9638     0.62123E-01 
  55652.2260     0.61415E-01 
  55684.4882     0.60712E-01 
  55716.7503     0.60016E-01 
  55749.0125     0.59326E-01 
  55781.2746     0.58642E-01 
  55813.5368     0.57963E-01 
  55845.7990     0.57291E-01 
  55878.0611     0.56624E-01 
  55910.3233     0.55963E-01 
  55942.5854     0.55308E-01 
  55974.8476     0.54659E-01 
  56007.1098     0.54016E-01 
  56039.3719     0.53378E-01 
  56071.6341     0.52745E-01 
  56103.8962     0.52118E-01 
  56136.1584     0.51497E-01 
  56168.4206     0.50881E-01 
  56200.6827     0.50271E-01 
  56232.9449     0.49666E-01 
  56265.2070     0.49067E-01 
  56297.4692     0.48472E-01 
  56329.7314     0.47883E-01 
  56361.9935     0.47300E-01 
  56394.2557     0.46721E-01 
  56426.5178     0.46148E-01 
  56458.7800     0.45580E-01 
  56491.0422     0.45017E-01 
  56523.3043     0.44459E-01 
  56555.5665     0.43906E-01 
  56587.8286     0.43358E-01 
  56620.0908     0.42815E-01 
  56652.3530     0.42277E-01 
  56684.6151     0.41744E-01 
  56716.8773     0.41216E-01 
  56749.1394     0.40692E-01 
  56781.4016     0.40174E-01 
  56813.6638     0.39660E-01 
  56845.9259     0.39150E-01 
  56878.1881     0.38646E-01 
  56910.4502     0.38146E-01 
  56942.7124     0.37651E-01 
  56974.9746     0.37160E-01 
  57007.2367     0.36674E-01 
  57039.4989     0.36192E-01 
  57071.7610     0.35715E-01 
  57104.0232     0.35242E-01 
  57136.2854     0.34774E-01 
  57168.5475     0.34310E-01 
  57200.8097     0.33850E-01 
  57233.0718     0.33395E-01 
  57265.3340     0.32944E-01 
  57297.5962     0.32497E-01 
  57329.8583     0.32054E-01 
  57362.1205     0.31616E-01 
  57394.3826     0.31181E-01 
  57426.6448     0.30751E-01 
  57458.9070     0.30325E-01 
  57491.1691     0.29903E-01 
  57523.4313     0.29485E-01 
  57555.6934     0.29071E-01 
  57587.9556     0.28661E-01 
  57620.2178     0.28255E-01 
  57652.4799     0.27853E-01 
  57684.7421     0.27455E-01 
  57717.0042     0.27060E-01 
  57749.2664     0.26670E-01 
  57781.5286     0.26283E-01 
  57813.7907     0.25900E-01 
  57846.0529     0.25520E-01 
  57878.3150     0.25145E-01 
  57910.5772     0.24773E-01 
  57942.8394     0.24405E-01 
  57975.1015     0.24040E-01 
  58007.3637     0.23679E-01 
  58039.6258     0.23322E-01 
  58071.8880     0.22968E-01 
  58104.1502     0.22617E-01 
  58136.4123     0.22270E-01 
  58168.6745     0.21927E-01 
  58200.9366     0.21587E-01 
  58233.1988     0.21250E-01 
  58265.4610     0.20917E-01 
  58297.7231     0.20588E-01 
  58329.9853     0.20261E-01 
  58362.2474     0.19938E-01 
  58394.5096     0.19618E-01 
  58426.7718     0.19302E-01 
  58459.0339     0.18988E-01 
  58491.2961     0.18678E-01 
  58523.5582     0.18371E-01 
  58555.8204     0.18068E-01 
  58588.0826     0.17767E-01 
  58620.3447     0.17470E-01 
  58652.6069     0.17176E-01 
  58684.8690     0.16885E-01 
  58717.1312     0.16597E-01 
  58749.3934     0.16312E-01 
  58781.6555     0.16030E-01 
  58813.9177     0.15751E-01 
  58846.1798     0.15475E-01 
  58878.4420     0.15202E-01 
  58910.7042     0.14931E-01 
  58942.9663     0.14664E-01 
  58975.2285     0.14400E-01 
  59007.4906     0.14139E-01 
  59039.7528     0.13880E-01 
  59072.0150     0.13625E-01 
  59104.2771     0.13372E-01 
  59136.5393     0.13122E-01 
  59168.8014     0.12875E-01 
  59201.0636     0.12630E-01 
  59233.3258     0.12389E-01 
  59265.5879     0.12150E-01 
  59297.8501     0.11914E-01 
  59330.1122     0.11680E-01 
  59362.3744     0.11450E-01 
  59394.6366     0.11222E-01 
  59426.8987     0.10996E-01 
  59459.1609     0.10773E-01 
  59491.4230     0.10553E-01 
  59523.6852     0.10336E-01 
  59555.9474     0.10121E-01 
  59588.2095     0.99087E-02 
  59620.4717     0.96989E-02 
  59652.7338     0.94917E-02 
  59684.9960     0.92871E-02 
  59717.2582     0.90850E-02 
  59749.5203     0.88854E-02 
  59781.7825     0.86883E-02 
  59814.0446     0.84936E-02 
  59846.3068     0.83015E-02 
  59878.5690     0.81118E-02 
  59910.8311     0.79246E-02 
  59943.0933     0.77398E-02 
  59975.3554     0.75575E-02 
  60007.6176     0.73775E-02 
  60039.8798     0.72000E-02 
  60072.1419     0.70248E-02 
  60104.4041     0.68521E-02 
  60136.6662     0.66817E-02 
  60168.9284     0.65136E-02 
  60201.1906     0.63480E-02 
  60233.4527     0.61846E-02 
  60265.7149     0.60236E-02 
  60297.9770     0.58649E-02 
  60330.2392     0.57086E-02 
  60362.5014     0.55545E-02 
  60394.7635     0.54027E-02 
  60427.0257     0.52532E-02 
  60459.2878     0.51060E-02 
  60491.5500     0.49611E-02 
  60523.8122     0.48184E-02 
  60556.0743     0.46780E-02 
  60588.3365     0.45399E-02 
  60620.5986     0.44040E-02 
  60652.8608     0.42703E-02 
  60685.1230     0.41389E-02 
  60717.3851     0.40096E-02 
  60749.6473     0.38827E-02 
  60781.9094     0.37579E-02 
  60814.1716     0.36353E-02 
  60846.4338     0.35150E-02 
  60878.6959     0.33968E-02 
  60910.9581     0.32809E-02 
  60943.2202     0.31671E-02 
  60975.4824     0.30556E-02 
  61007.7446     0.29462E-02 
  61040.0067     0.28390E-02 
  61072.2689     0.27340E-02 
  61104.5310     0.26312E-02 
  61136.7932     0.25306E-02 
  61169.0554     0.24321E-02 
  61201.3175     0.23358E-02 
  61233.5797     0.22417E-02 
  61265.8418     0.21498E-02 
  61298.1040     0.20601E-02 
  61330.3662     0.19725E-02 
  61362.6283     0.18871E-02 
  61394.8905     0.18039E-02 
  61427.1526     0.17228E-02 
  61459.4148     0.16440E-02 
  61491.6770     0.15673E-02 
  61523.9391     0.14928E-02 
  61556.2013     0.14205E-02 
  61588.4634     0.13504E-02 
  61620.7256     0.12825E-02 
  61652.9878     0.12168E-02 
  61685.2499     0.11532E-02 
  61717.5121     0.10919E-02 
  61749.7742     0.10328E-02 
  61782.0364     0.97593E-03 
  61814.2986     0.92125E-03 
  61846.5607     0.86881E-03 
  61878.8229     0.81859E-03 
  61911.0850     0.77061E-03 
  61943.3472     0.72488E-03 
  61975.6094     0.68140E-03 
  62007.8715     0.64017E-03 
  62040.1337     0.60122E-03 
  62072.3958     0.56455E-03 
  62104.6580     0.53016E-03 
  62136.9202     0.49806E-03 
  62169.1823     0.46828E-03 
  62201.4445     0.44080E-03 
  62233.7066     0.41566E-03 
  62265.9688     0.39285E-03 
  62298.2310     0.37239E-03 
  62330.4931     0.35429E-03 
  62362.7553     0.33856E-03 
  62395.0174     0.32522E-03 
  62427.2796     0.31429E-03 
  62459.5418     0.30576E-03 
  62491.8039     0.29967E-03 
  62524.0661     0.29601E-03 
  62556.3282     0.29482E-03 
  62588.5904     0.29611E-03 
  62620.8526     0.29988E-03 
  62653.1147     0.30617E-03 
  62685.3769     0.31498E-03 
  62717.6390     0.32633E-03 
  62749.9012     0.34025E-03 
  62782.1634     0.35675E-03 
  62814.4255     0.37586E-03 
  62846.6877     0.39758E-03 
  62878.9498     0.42196E-03 
  62911.2120     0.44899E-03 
  62943.4742     0.47872E-03 
  62975.7363     0.51116E-03 
  63007.9985     0.54633E-03 
  63040.2606     0.58426E-03 
  63072.5228     0.62497E-03 
  63104.7850     0.66849E-03 
  63137.0471     0.71485E-03 
  63169.3093     0.76407E-03 
  63201.5714     0.81618E-03 
  63233.8336     0.87121E-03 
  63266.0958     0.92919E-03 
  63298.3579     0.99014E-03 
  63330.6201     0.10541E-02 
  63362.8822     0.11211E-02 
  63395.1444     0.11912E-02 
  63427.4066     0.12644E-02 
  63459.6687     0.13407E-02 
  63491.9309     0.14202E-02 
  63524.1930     0.15028E-02 
  63556.4552     0.15888E-02 
  63588.7174     0.16780E-02 
  63620.9795     0.17705E-02 
  63653.2417     0.18664E-02 
  63685.5038     0.19657E-02 
  63717.7660     0.20685E-02 
  63750.0282     0.21747E-02 
  63782.2903     0.22844E-02 
  63814.5525     0.23978E-02 
  63846.8146     0.25147E-02 
  63879.0768     0.26353E-02 
  63911.3390     0.27596E-02 
  63943.6011     0.28876E-02 
  63975.8633     0.30195E-02 
  64008.1254     0.31552E-02 
  64040.3876     0.32948E-02 
  64072.6498     0.34384E-02 
  64104.9119     0.35859E-02 
  64137.1741     0.37376E-02 
  64169.4362     0.38934E-02 
  64201.6984     0.40533E-02 
  64233.9606     0.42175E-02 
  64266.2227     0.43861E-02 
  64298.4849     0.45589E-02 
  64330.7470     0.47362E-02 
  64363.0092     0.49180E-02 
  64395.2714     0.51044E-02 
  64427.5335     0.52954E-02 
  64459.7957     0.54910E-02 
  64492.0578     0.56915E-02 
  64524.3200     0.58968E-02 
  64556.5822     0.61070E-02 
  64588.8443     0.63222E-02 
  64621.1065     0.65424E-02 
  64653.3686     0.67678E-02 
  64685.6308     0.69984E-02 
  64717.8930     0.72344E-02 
  64750.1551     0.74757E-02 
  64782.4173     0.77225E-02 
  64814.6794     0.79749E-02 
  64846.9416     0.82330E-02 
  64879.2038     0.84968E-02 
  64911.4659     0.87664E-02 
  64943.7281     0.90421E-02 
  64975.9902     0.93237E-02 
  65008.2524     0.96115E-02 
  65040.5146     0.99055E-02 
  65072.7767     0.10206E-01 
  65105.0389     0.10513E-01 
  65137.3010     0.10826E-01 
  65169.5632     0.11146E-01 
  65201.8254     0.11473E-01 
  65234.0875     0.11807E-01 
  65266.3497     0.12148E-01 
  65298.6118     0.12496E-01 
  65330.8740     0.12851E-01 
  65363.1362     0.13214E-01 
  65395.3983     0.13585E-01 
  65427.6605     0.13963E-01 
  65459.9226     0.14348E-01 
  65492.1848     0.14742E-01 
  65524.4470     0.15144E-01 
  65556.7091     0.15554E-01 
  65588.9713     0.15973E-01 
  65621.2334     0.16400E-01 
  65653.4956     0.16836E-01 
  65685.7578     0.17281E-01 
  65718.0199     0.17735E-01 
  65750.2821     0.18198E-01 
  65782.5442     0.18670E-01 
  65814.8064     0.19152E-01 
  65847.0686     0.19644E-01 
  65879.3307     0.20146E-01 
  65911.5929     0.20658E-01 
  65943.8550     0.21180E-01 
  65976.1172     0.21713E-01 
  66008.3794     0.22256E-01 
  66040.6415     0.22810E-01 
  66072.9037     0.23376E-01 
  66105.1658     0.23952E-01 
  66137.4280     0.24541E-01 
  66169.6902     0.25141E-01 
  66201.9523     0.25753E-01 
  66234.2145     0.26377E-01 
  66266.4766     0.27014E-01 
  66298.7388     0.27664E-01 
  66331.0010     0.28327E-01 
  66363.2631     0.29002E-01 
  66395.5253     0.29692E-01 
  66427.7874     0.30395E-01 
  66460.0496     0.31112E-01 
  66492.3118     0.31844E-01 
  66524.5739     0.32590E-01 
  66556.8361     0.33351E-01 
  66589.0982     0.34127E-01 
  66621.3604     0.34918E-01 
  66653.6226     0.35726E-01 
  66685.8847     0.36550E-01 
  66718.1469     0.37390E-01 
  66750.4090     0.38247E-01 
  66782.6712     0.39121E-01 
  66814.9334     0.40012E-01 
  66847.1955     0.40921E-01 
  66879.4577     0.41849E-01 
  66911.7198     0.42795E-01 
  66943.9820     0.43760E-01 
  66976.2442     0.44744E-01 
  67008.5063     0.45748E-01 
  67040.7685     0.46772E-01 
  67073.0306     0.47817E-01 
  67105.2928     0.48882E-01 
  67137.5550     0.49969E-01 
  67169.8171     0.51078E-01 
  67202.0793     0.52209E-01 
  67234.3414     0.53363E-01 
  67266.6036     0.54539E-01 
  67298.8658     0.55740E-01 
  67331.1279     0.56964E-01 
  67363.3901     0.58214E-01 
  67395.6522     0.59488E-01 
  67427.9144     0.60788E-01 
  67460.1766     0.62114E-01 
  67492.4387     0.63467E-01 
  67524.7009     0.64847E-01 
  67556.9630     0.66254E-01 
  67589.2252     0.67691E-01 
  67621.4874     0.69156E-01 
  67653.7495     0.70650E-01 
  67686.0117     0.72175E-01 
  67718.2738     0.73731E-01 
  67750.5360     0.75318E-01 
  67782.7982     0.76937E-01 
  67815.0603     0.78588E-01 
  67847.3225     0.80273E-01 
  67879.5846     0.81992E-01 
  67911.8468     0.83746E-01 
  67944.1090     0.85535E-01 
  67976.3711     0.87360E-01 
  68008.6333     0.89222E-01 
  68040.8954     0.91122E-01 
  68073.1576     0.93060E-01 
  68105.4198     0.95037E-01 
  68137.6819     0.97054E-01 
  68169.9441     0.99112E-01 
  68202.2062     0.10121E+00 
  68234.4684     0.10335E+00 
  68266.7306     0.10554E+00 
  68298.9927     0.10777E+00 
  68331.2549     0.11004E+00 
  68363.5170     0.11236E+00 
  68395.7792     0.11473E+00 
  68428.0414     0.11714E+00 
  68460.3035     0.11961E+00 
  68492.5657     0.12212E+00 
  68524.8278     0.12468E+00 
  68557.0900     0.12730E+00 
  68589.3522     0.12997E+00 
  68621.6143     0.13269E+00 
  68653.8765     0.13547E+00 
  68686.1386     0.13830E+00 
  68718.4008     0.14119E+00 
  68750.6630     0.14414E+00 
  68782.9251     0.14714E+00 
  68815.1873     0.15021E+00 
  68847.4494     0.15334E+00 
  68879.7116     0.15653E+00 
  68911.9738     0.15978E+00 
  68944.2359     0.16310E+00 
  68976.4981     0.16649E+00 
  69008.7602     0.16994E+00 
  69041.0224     0.17347E+00 
  69073.2846     0.17706E+00 
  69105.5467     0.18072E+00 
  69137.8089     0.18446E+00 
  69170.0710     0.18827E+00 
  69202.3332     0.19216E+00 
  69234.5954     0.19613E+00 
  69266.8575     0.20017E+00 
  69299.1197     0.20429E+00 
  69331.3818     0.20850E+00 
  69363.6440     0.21278E+00 
  69395.9062     0.21715E+00 
  69428.1683     0.22161E+00 
  69460.4305     0.22616E+00 
  69492.6926     0.23079E+00 
  69524.9548     0.23552E+00 
  69557.2170     0.24033E+00 
  69589.4791     0.24525E+00 
  69621.7413     0.25025E+00 
  69654.0034     0.25536E+00 
  69686.2656     0.26056E+00 
  69718.5278     0.26587E+00 
  69750.7899     0.27128E+00 
  69783.0521     0.27679E+00 
  69815.3142     0.28241E+00 
  69847.5764     0.28813E+00 
  69879.8386     0.29397E+00 
  69912.1007     0.29992E+00 
  69944.3629     0.30598E+00 
  69976.6250     0.31216E+00 
  70008.8872     0.31846E+00 
  70041.1494     0.32487E+00 
  70073.4115     0.33141E+00 
  70105.6737     0.33807E+00 
  70137.9358     0.34486E+00 
  70170.1980     0.35177E+00 
  70202.4602     0.35882E+00 
  70234.7223     0.36600E+00 
  70266.9845     0.37331E+00 
  70299.2466     0.38076E+00 
  70331.5088     0.38835E+00 
  70363.7710     0.39607E+00 
  70396.0331     0.40395E+00 
  70428.2953     0.41196E+00 
  70460.5574     0.42013E+00 
  70492.8196     0.42844E+00 
  70525.0818     0.43691E+00 
  70557.3439     0.44553E+00 
  70589.6061     0.45431E+00 
  70621.8682     0.46325E+00 
  70654.1304     0.47235E+00 
  70686.3926     0.48161E+00 
  70718.6547     0.49105E+00 
  70750.9169     0.50065E+00 
  70783.1790     0.51042E+00 
  70815.4412     0.52037E+00 
  70847.7034     0.53049E+00 
  70879.9655     0.54080E+00 
  70912.2277     0.55129E+00 
  70944.4898     0.56196E+00 
  70976.7520     0.57282E+00 
  71009.0142     0.58387E+00 
  71041.2763     0.59511E+00 
  71073.5385     0.60655E+00 
  71105.8006     0.61818E+00 
  71138.0628     0.63002E+00 
  71170.3250     0.64206E+00 
  71202.5871     0.65430E+00 
  71234.8493     0.66676E+00 
  71267.1114     0.67943E+00 
  71299.3736     0.69231E+00 
  71331.6358     0.70541E+00 
  71363.8979     0.71873E+00 
  71396.1601     0.73227E+00 
  71428.4222     0.74604E+00 
  71460.6844     0.76004E+00 
  71492.9466     0.77427E+00 
  71525.2087     0.78874E+00 
  71557.4709     0.80344E+00 
  71589.7330     0.81838E+00 
  71621.9952     0.83357E+00 
  71654.2574     0.84900E+00 
  71686.5195     0.86469E+00 
  71718.7817     0.88062E+00 
  71751.0438     0.89681E+00 
  71783.3060     0.91326E+00 
  71815.5682     0.92997E+00 
  71847.8303     0.94694E+00 
  71880.0925     0.96418E+00 
  71912.3546     0.98169E+00 
  71944.6168     0.99948E+00 
  71976.8790     0.10175E+01 
  72009.1411     0.10359E+01 
  72041.4033     0.10545E+01 
  72073.6654     0.10734E+01 
  72105.9276     0.10926E+01 
  72138.1898     0.11121E+01 
  72170.4519     0.11319E+01 
  72202.7141     0.11519E+01 
  72234.9762     0.11723E+01 
  72267.2384     0.11930E+01 
  72299.5006     0.12140E+01 
  72331.7627     0.12353E+01 
  72364.0249     0.12569E+01 
  72396.2870     0.12788E+01 
  72428.5492     0.13010E+01 
  72460.8114     0.13236E+01 
  72493.0735     0.13464E+01 
  72525.3357     0.13696E+01 
  72557.5978     0.13932E+01 
  72589.8600     0.14170E+01 
