  32262.1600     0.83803E+00 
  32294.4222     0.84838E+00 
  32326.6843     0.85882E+00 
  32358.9465     0.86934E+00 
  32391.2086     0.87995E+00 
  32423.4708     0.89065E+00 
  32455.7330     0.90143E+00 
  32487.9951     0.91229E+00 
  32520.2573     0.92324E+00 
  32552.5194     0.93428E+00 
  32584.7816     0.94540E+00 
  32617.0438     0.95660E+00 
  32649.3059     0.96789E+00 
  32681.5681     0.97927E+00 
  32713.8302     0.99073E+00 
  32746.0924     0.10023E+01 
  32778.3546     0.10139E+01 
  32810.6167     0.10256E+01 
  32842.8789     0.10374E+01 
  32875.1410     0.10493E+01 
  32907.4032     0.10613E+01 
  32939.6654     0.10733E+01 
  32971.9275     0.10854E+01 
  33004.1897     0.10977E+01 
  33036.4518     0.11100E+01 
  33068.7140     0.11224E+01 
  33100.9762     0.11348E+01 
  33133.2383     0.11474E+01 
  33165.5005     0.11600E+01 
  33197.7626     0.11727E+01 
  33230.0248     0.11855E+01 
  33262.2870     0.11984E+01 
  33294.5491     0.12114E+01 
  33326.8113     0.12244E+01 
  33359.0734     0.12375E+01 
  33391.3356     0.12507E+01 
  33423.5978     0.12640E+01 
  33455.8599     0.12774E+01 
  33488.1221     0.12908E+01 
  33520.3842     0.13044E+01 
  33552.6464     0.13180E+01 
  33584.9086     0.13317E+01 
  33617.1707     0.13454E+01 
  33649.4329     0.13593E+01 
  33681.6950     0.13732E+01 
  33713.9572     0.13872E+01 
  33746.2194     0.14012E+01 
  33778.4815     0.14154E+01 
  33810.7437     0.14296E+01 
  33843.0058     0.14439E+01 
  33875.2680     0.14583E+01 
  33907.5302     0.14727E+01 
  33939.7923     0.14872E+01 
  33972.0545     0.15018E+01 
  34004.3166     0.15165E+01 
  34036.5788     0.15312E+01 
  34068.8410     0.15460E+01 
  34101.1031     0.15609E+01 
  34133.3653     0.15758E+01 
  34165.6274     0.15908E+01 
  34197.8896     0.16059E+01 
  34230.1518     0.16211E+01 
  34262.4139     0.16363E+01 
  34294.6761     0.16516E+01 
  34326.9382     0.16669E+01 
  34359.2004     0.16823E+01 
  34391.4626     0.16978E+01 
  34423.7247     0.17134E+01 
  34455.9869     0.17290E+01 
  34488.2490     0.17447E+01 
  34520.5112     0.17604E+01 
  34552.7734     0.17762E+01 
  34585.0355     0.17920E+01 
  34617.2977     0.18079E+01 
  34649.5598     0.18239E+01 
  34681.8220     0.18399E+01 
  34714.0842     0.18560E+01 
  34746.3463     0.18722E+01 
  34778.6085     0.18884E+01 
  34810.8706     0.19046E+01 
  34843.1328     0.19209E+01 
  34875.3950     0.19373E+01 
  34907.6571     0.19537E+01 
  34939.9193     0.19702E+01 
  34972.1814     0.19867E+01 
  35004.4436     0.20032E+01 
  35036.7058     0.20199E+01 
  35068.9679     0.20365E+01 
  35101.2301     0.20532E+01 
  35133.4922     0.20700E+01 
  35165.7544     0.20868E+01 
  35198.0166     0.21036E+01 
  35230.2787     0.21205E+01 
  35262.5409     0.21374E+01 
  35294.8030     0.21544E+01 
  35327.0652     0.21714E+01 
  35359.3274     0.21884E+01 
  35391.5895     0.22055E+01 
  35423.8517     0.22226E+01 
  35456.1138     0.22398E+01 
  35488.3760     0.22569E+01 
  35520.6382     0.22742E+01 
  35552.9003     0.22914E+01 
  35585.1625     0.23087E+01 
  35617.4246     0.23260E+01 
  35649.6868     0.23433E+01 
  35681.9490     0.23607E+01 
  35714.2111     0.23781E+01 
  35746.4733     0.23955E+01 
  35778.7354     0.24130E+01 
  35810.9976     0.24305E+01 
  35843.2598     0.24479E+01 
  35875.5219     0.24655E+01 
  35907.7841     0.24830E+01 
  35940.0462     0.25005E+01 
  35972.3084     0.25181E+01 
  36004.5706     0.25357E+01 
  36036.8327     0.25533E+01 
  36069.0949     0.25709E+01 
  36101.3570     0.25885E+01 
  36133.6192     0.26062E+01 
  36165.8814     0.26238E+01 
  36198.1435     0.26415E+01 
  36230.4057     0.26592E+01 
  36262.6678     0.26768E+01 
  36294.9300     0.26945E+01 
  36327.1922     0.27122E+01 
  36359.4543     0.27299E+01 
  36391.7165     0.27476E+01 
  36423.9786     0.27653E+01 
  36456.2408     0.27830E+01 
  36488.5030     0.28006E+01 
  36520.7651     0.28183E+01 
  36553.0273     0.28360E+01 
  36585.2894     0.28537E+01 
  36617.5516     0.28714E+01 
  36649.8138     0.28890E+01 
  36682.0759     0.29067E+01 
  36714.3381     0.29243E+01 
  36746.6002     0.29419E+01 
  36778.8624     0.29595E+01 
  36811.1246     0.29772E+01 
  36843.3867     0.29947E+01 
  36875.6489     0.30123E+01 
  36907.9110     0.30299E+01 
  36940.1732     0.30474E+01 
  36972.4354     0.30649E+01 
  37004.6975     0.30824E+01 
  37036.9597     0.30998E+01 
  37069.2218     0.31173E+01 
  37101.4840     0.31347E+01 
  37133.7462     0.31521E+01 
  37166.0083     0.31694E+01 
  37198.2705     0.31868E+01 
  37230.5326     0.32041E+01 
  37262.7948     0.32213E+01 
  37295.0570     0.32386E+01 
  37327.3191     0.32557E+01 
  37359.5813     0.32729E+01 
  37391.8434     0.32900E+01 
  37424.1056     0.33071E+01 
  37456.3678     0.33241E+01 
  37488.6299     0.33411E+01 
  37520.8921     0.33581E+01 
  37553.1542     0.33750E+01 
  37585.4164     0.33919E+01 
  37617.6786     0.34087E+01 
  37649.9407     0.34255E+01 
  37682.2029     0.34422E+01 
  37714.4650     0.34589E+01 
  37746.7272     0.34755E+01 
  37778.9894     0.34921E+01 
  37811.2515     0.35086E+01 
  37843.5137     0.35250E+01 
  37875.7758     0.35414E+01 
  37908.0380     0.35578E+01 
  37940.3002     0.35741E+01 
  37972.5623     0.35903E+01 
  38004.8245     0.36065E+01 
  38037.0866     0.36226E+01 
  38069.3488     0.36386E+01 
  38101.6110     0.36546E+01 
  38133.8731     0.36705E+01 
  38166.1353     0.36863E+01 
  38198.3974     0.37021E+01 
  38230.6596     0.37178E+01 
  38262.9218     0.37334E+01 
  38295.1839     0.37489E+01 
  38327.4461     0.37644E+01 
  38359.7082     0.37798E+01 
  38391.9704     0.37952E+01 
  38424.2326     0.38104E+01 
  38456.4947     0.38256E+01 
  38488.7569     0.38407E+01 
  38521.0190     0.38557E+01 
  38553.2812     0.38706E+01 
  38585.5434     0.38855E+01 
  38617.8055     0.39002E+01 
  38650.0677     0.39149E+01 
  38682.3298     0.39295E+01 
  38714.5920     0.39440E+01 
  38746.8542     0.39584E+01 
  38779.1163     0.39728E+01 
  38811.3785     0.39870E+01 
  38843.6406     0.40011E+01 
  38875.9028     0.40152E+01 
  38908.1650     0.40291E+01 
  38940.4271     0.40430E+01 
  38972.6893     0.40568E+01 
  39004.9514     0.40705E+01 
  39037.2136     0.40840E+01 
  39069.4758     0.40975E+01 
  39101.7379     0.41109E+01 
  39134.0001     0.41242E+01 
  39166.2622     0.41373E+01 
  39198.5244     0.41504E+01 
  39230.7866     0.41634E+01 
  39263.0487     0.41762E+01 
  39295.3109     0.41890E+01 
  39327.5730     0.42016E+01 
  39359.8352     0.42142E+01 
  39392.0974     0.42266E+01 
  39424.3595     0.42389E+01 
  39456.6217     0.42512E+01 
  39488.8838     0.42633E+01 
  39521.1460     0.42753E+01 
  39553.4082     0.42871E+01 
  39585.6703     0.42989E+01 
  39617.9325     0.43106E+01 
  39650.1946     0.43221E+01 
  39682.4568     0.43335E+01 
  39714.7190     0.43448E+01 
  39746.9811     0.43560E+01 
  39779.2433     0.43671E+01 
  39811.5054     0.43781E+01 
  39843.7676     0.43889E+01 
  39876.0298     0.43996E+01 
  39908.2919     0.44102E+01 
  39940.5541     0.44207E+01 
  39972.8162     0.44310E+01 
  40005.0784     0.44412E+01 
  40037.3406     0.44513E+01 
  40069.6027     0.44613E+01 
  40101.8649     0.44712E+01 
  40134.1270     0.44809E+01 
  40166.3892     0.44905E+01 
  40198.6514     0.45000E+01 
  40230.9135     0.45093E+01 
  40263.1757     0.45185E+01 
  40295.4378     0.45276E+01 
  40327.7000     0.45366E+01 
  40359.9622     0.45454E+01 
  40392.2243     0.45541E+01 
  40424.4865     0.45627E+01 
  40456.7486     0.45711E+01 
  40489.0108     0.45794E+01 
  40521.2730     0.45876E+01 
  40553.5351     0.45956E+01 
  40585.7973     0.46035E+01 
  40618.0594     0.46113E+01 
  40650.3216     0.46189E+01 
  40682.5838     0.46264E+01 
  40714.8459     0.46338E+01 
  40747.1081     0.46410E+01 
  40779.3702     0.46481E+01 
  40811.6324     0.46551E+01 
  40843.8946     0.46619E+01 
  40876.1567     0.46686E+01 
  40908.4189     0.46752E+01 
  40940.6810     0.46816E+01 
  40972.9432     0.46879E+01 
  41005.2054     0.46940E+01 
  41037.4675     0.47000E+01 
  41069.7297     0.47059E+01 
  41101.9918     0.47116E+01 
  41134.2540     0.47172E+01 
  41166.5162     0.47226E+01 
  41198.7783     0.47279E+01 
  41231.0405     0.47331E+01 
  41263.3026     0.47381E+01 
  41295.5648     0.47430E+01 
  41327.8270     0.47478E+01 
  41360.0891     0.47524E+01 
  41392.3513     0.47568E+01 
  41424.6134     0.47612E+01 
  41456.8756     0.47653E+01 
  41489.1378     0.47694E+01 
  41521.3999     0.47733E+01 
  41553.6621     0.47771E+01 
  41585.9242     0.47807E+01 
  41618.1864     0.47842E+01 
  41650.4486     0.47875E+01 
  41682.7107     0.47907E+01 
  41714.9729     0.47938E+01 
  41747.2350     0.47967E+01 
  41779.4972     0.47995E+01 
  41811.7594     0.48021E+01 
  41844.0215     0.48046E+01 
  41876.2837     0.48069E+01 
  41908.5458     0.48092E+01 
  41940.8080     0.48112E+01 
  41973.0702     0.48132E+01 
  42005.3323     0.48150E+01 
  42037.5945     0.48166E+01 
  42069.8566     0.48181E+01 
  42102.1188     0.48195E+01 
  42134.3810     0.48207E+01 
  42166.6431     0.48218E+01 
  42198.9053     0.48228E+01 
  42231.1674     0.48236E+01 
  42263.4296     0.48242E+01 
  42295.6918     0.48248E+01 
  42327.9539     0.48252E+01 
  42360.2161     0.48254E+01 
  42392.4782     0.48256E+01 
  42424.7404     0.48255E+01 
  42457.0026     0.48254E+01 
  42489.2647     0.48251E+01 
  42521.5269     0.48247E+01 
  42553.7890     0.48241E+01 
  42586.0512     0.48234E+01 
  42618.3134     0.48225E+01 
  42650.5755     0.48216E+01 
  42682.8377     0.48204E+01 
  42715.0998     0.48192E+01 
  42747.3620     0.48178E+01 
  42779.6242     0.48163E+01 
  42811.8863     0.48146E+01 
  42844.1485     0.48129E+01 
  42876.4106     0.48109E+01 
  42908.6728     0.48089E+01 
  42940.9350     0.48067E+01 
  42973.1971     0.48044E+01 
  43005.4593     0.48019E+01 
  43037.7214     0.47994E+01 
  43069.9836     0.47967E+01 
  43102.2458     0.47938E+01 
  43134.5079     0.47909E+01 
  43166.7701     0.47878E+01 
  43199.0322     0.47845E+01 
  43231.2944     0.47812E+01 
  43263.5566     0.47777E+01 
  43295.8187     0.47741E+01 
  43328.0809     0.47703E+01 
  43360.3430     0.47665E+01 
  43392.6052     0.47625E+01 
  43424.8674     0.47584E+01 
  43457.1295     0.47541E+01 
  43489.3917     0.47498E+01 
  43521.6538     0.47453E+01 
  43553.9160     0.47407E+01 
  43586.1782     0.47360E+01 
  43618.4403     0.47311E+01 
  43650.7025     0.47261E+01 
  43682.9646     0.47211E+01 
  43715.2268     0.47158E+01 
  43747.4890     0.47105E+01 
  43779.7511     0.47051E+01 
  43812.0133     0.46995E+01 
  43844.2754     0.46938E+01 
  43876.5376     0.46880E+01 
  43908.7998     0.46821E+01 
  43941.0619     0.46761E+01 
  43973.3241     0.46699E+01 
  44005.5862     0.46637E+01 
  44037.8484     0.46573E+01 
  44070.1106     0.46508E+01 
  44102.3727     0.46442E+01 
  44134.6349     0.46375E+01 
  44166.8970     0.46307E+01 
  44199.1592     0.46238E+01 
  44231.4214     0.46168E+01 
  44263.6835     0.46096E+01 
  44295.9457     0.46024E+01 
  44328.2078     0.45950E+01 
  44360.4700     0.45876E+01 
  44392.7322     0.45800E+01 
  44424.9943     0.45723E+01 
  44457.2565     0.45646E+01 
  44489.5186     0.45567E+01 
  44521.7808     0.45487E+01 
  44554.0430     0.45406E+01 
  44586.3051     0.45325E+01 
  44618.5673     0.45242E+01 
  44650.8294     0.45158E+01 
  44683.0916     0.45074E+01 
  44715.3538     0.44988E+01 
  44747.6159     0.44901E+01 
  44779.8781     0.44814E+01 
  44812.1402     0.44725E+01 
  44844.4024     0.44636E+01 
  44876.6646     0.44545E+01 
  44908.9267     0.44454E+01 
  44941.1889     0.44362E+01 
  44973.4510     0.44269E+01 
  45005.7132     0.44175E+01 
  45037.9754     0.44080E+01 
  45070.2375     0.43984E+01 
  45102.4997     0.43887E+01 
  45134.7618     0.43790E+01 
  45167.0240     0.43691E+01 
  45199.2862     0.43592E+01 
  45231.5483     0.43492E+01 
  45263.8105     0.43391E+01 
  45296.0726     0.43289E+01 
  45328.3348     0.43187E+01 
  45360.5970     0.43084E+01 
  45392.8591     0.42980E+01 
  45425.1213     0.42875E+01 
  45457.3834     0.42769E+01 
  45489.6456     0.42663E+01 
  45521.9078     0.42556E+01 
  45554.1699     0.42448E+01 
  45586.4321     0.42339E+01 
  45618.6942     0.42230E+01 
  45650.9564     0.42119E+01 
  45683.2186     0.42009E+01 
  45715.4807     0.41897E+01 
  45747.7429     0.41785E+01 
  45780.0050     0.41672E+01 
  45812.2672     0.41558E+01 
  45844.5294     0.41444E+01 
  45876.7915     0.41329E+01 
  45909.0537     0.41214E+01 
  45941.3158     0.41097E+01 
  45973.5780     0.40981E+01 
  46005.8402     0.40863E+01 
  46038.1023     0.40745E+01 
  46070.3645     0.40626E+01 
  46102.6266     0.40507E+01 
  46134.8888     0.40387E+01 
  46167.1510     0.40267E+01 
  46199.4131     0.40146E+01 
  46231.6753     0.40024E+01 
  46263.9374     0.39902E+01 
  46296.1996     0.39779E+01 
  46328.4618     0.39656E+01 
  46360.7239     0.39532E+01 
  46392.9861     0.39408E+01 
  46425.2482     0.39283E+01 
  46457.5104     0.39158E+01 
  46489.7726     0.39032E+01 
  46522.0347     0.38906E+01 
  46554.2969     0.38779E+01 
  46586.5590     0.38652E+01 
  46618.8212     0.38524E+01 
  46651.0834     0.38396E+01 
  46683.3455     0.38267E+01 
  46715.6077     0.38138E+01 
  46747.8698     0.38009E+01 
  46780.1320     0.37879E+01 
  46812.3942     0.37749E+01 
  46844.6563     0.37618E+01 
  46876.9185     0.37487E+01 
  46909.1806     0.37356E+01 
  46941.4428     0.37224E+01 
  46973.7050     0.37092E+01 
  47005.9671     0.36959E+01 
  47038.2293     0.36826E+01 
  47070.4914     0.36693E+01 
  47102.7536     0.36560E+01 
  47135.0158     0.36426E+01 
  47167.2779     0.36292E+01 
  47199.5401     0.36157E+01 
  47231.8022     0.36022E+01 
  47264.0644     0.35887E+01 
  47296.3266     0.35752E+01 
  47328.5887     0.35616E+01 
  47360.8509     0.35480E+01 
  47393.1130     0.35344E+01 
  47425.3752     0.35208E+01 
  47457.6374     0.35071E+01 
  47489.8995     0.34934E+01 
  47522.1617     0.34797E+01 
  47554.4238     0.34660E+01 
  47586.6860     0.34522E+01 
  47618.9482     0.34385E+01 
  47651.2103     0.34247E+01 
  47683.4725     0.34108E+01 
  47715.7346     0.33970E+01 
  47747.9968     0.33832E+01 
  47780.2590     0.33693E+01 
  47812.5211     0.33554E+01 
  47844.7833     0.33415E+01 
  47877.0454     0.33276E+01 
  47909.3076     0.33137E+01 
  47941.5698     0.32998E+01 
  47973.8319     0.32858E+01 
  48006.0941     0.32718E+01 
  48038.3562     0.32579E+01 
  48070.6184     0.32439E+01 
  48102.8806     0.32299E+01 
  48135.1427     0.32159E+01 
  48167.4049     0.32019E+01 
  48199.6670     0.31879E+01 
  48231.9292     0.31739E+01 
  48264.1914     0.31598E+01 
  48296.4535     0.31458E+01 
  48328.7157     0.31318E+01 
  48360.9778     0.31177E+01 
  48393.2400     0.31037E+01 
  48425.5022     0.30897E+01 
  48457.7643     0.30756E+01 
  48490.0265     0.30616E+01 
  48522.2886     0.30475E+01 
  48554.5508     0.30335E+01 
  48586.8130     0.30194E+01 
  48619.0751     0.30054E+01 
  48651.3373     0.29914E+01 
  48683.5994     0.29773E+01 
  48715.8616     0.29633E+01 
  48748.1238     0.29493E+01 
  48780.3859     0.29353E+01 
  48812.6481     0.29212E+01 
  48844.9102     0.29072E+01 
  48877.1724     0.28932E+01 
  48909.4346     0.28792E+01 
  48941.6967     0.28652E+01 
  48973.9589     0.28513E+01 
  49006.2210     0.28373E+01 
  49038.4832     0.28233E+01 
  49070.7454     0.28094E+01 
  49103.0075     0.27954E+01 
  49135.2697     0.27815E+01 
  49167.5318     0.27676E+01 
  49199.7940     0.27537E+01 
  49232.0562     0.27398E+01 
  49264.3183     0.27259E+01 
  49296.5805     0.27120E+01 
  49328.8426     0.26982E+01 
  49361.1048     0.26844E+01 
  49393.3670     0.26705E+01 
  49425.6291     0.26567E+01 
  49457.8913     0.26430E+01 
  49490.1534     0.26292E+01 
  49522.4156     0.26154E+01 
  49554.6778     0.26017E+01 
  49586.9399     0.25880E+01 
  49619.2021     0.25743E+01 
  49651.4642     0.25606E+01 
  49683.7264     0.25470E+01 
  49715.9886     0.25333E+01 
  49748.2507     0.25197E+01 
  49780.5129     0.25061E+01 
  49812.7750     0.24926E+01 
  49845.0372     0.24790E+01 
  49877.2994     0.24655E+01 
  49909.5615     0.24520E+01 
  49941.8237     0.24385E+01 
  49974.0858     0.24251E+01 
  50006.3480     0.24117E+01 
  50038.6102     0.23983E+01 
  50070.8723     0.23849E+01 
  50103.1345     0.23715E+01 
  50135.3966     0.23582E+01 
  50167.6588     0.23449E+01 
  50199.9210     0.23317E+01 
  50232.1831     0.23184E+01 
  50264.4453     0.23052E+01 
  50296.7074     0.22920E+01 
  50328.9696     0.22789E+01 
  50361.2318     0.22657E+01 
  50393.4939     0.22526E+01 
  50425.7561     0.22396E+01 
  50458.0182     0.22265E+01 
  50490.2804     0.22135E+01 
  50522.5426     0.22006E+01 
  50554.8047     0.21876E+01 
  50587.0669     0.21747E+01 
  50619.3290     0.21618E+01 
  50651.5912     0.21490E+01 
  50683.8534     0.21362E+01 
  50716.1155     0.21234E+01 
  50748.3777     0.21106E+01 
  50780.6398     0.20979E+01 
  50812.9020     0.20852E+01 
  50845.1642     0.20726E+01 
  50877.4263     0.20600E+01 
  50909.6885     0.20474E+01 
  50941.9506     0.20349E+01 
  50974.2128     0.20224E+01 
  51006.4750     0.20099E+01 
  51038.7371     0.19974E+01 
  51070.9993     0.19850E+01 
  51103.2614     0.19727E+01 
  51135.5236     0.19604E+01 
  51167.7858     0.19481E+01 
  51200.0479     0.19358E+01 
  51232.3101     0.19236E+01 
  51264.5722     0.19114E+01 
  51296.8344     0.18993E+01 
  51329.0966     0.18872E+01 
  51361.3587     0.18751E+01 
  51393.6209     0.18631E+01 
  51425.8830     0.18511E+01 
  51458.1452     0.18392E+01 
  51490.4074     0.18273E+01 
  51522.6695     0.18154E+01 
  51554.9317     0.18036E+01 
  51587.1938     0.17918E+01 
  51619.4560     0.17800E+01 
  51651.7182     0.17683E+01 
  51683.9803     0.17567E+01 
  51716.2425     0.17450E+01 
  51748.5046     0.17334E+01 
  51780.7668     0.17219E+01 
  51813.0290     0.17104E+01 
  51845.2911     0.16989E+01 
  51877.5533     0.16875E+01 
  51909.8154     0.16761E+01 
  51942.0776     0.16648E+01 
  51974.3398     0.16535E+01 
  52006.6019     0.16422E+01 
  52038.8641     0.16310E+01 
  52071.1262     0.16199E+01 
  52103.3884     0.16087E+01 
  52135.6506     0.15976E+01 
  52167.9127     0.15866E+01 
  52200.1749     0.15756E+01 
  52232.4370     0.15646E+01 
  52264.6992     0.15537E+01 
  52296.9614     0.15429E+01 
  52329.2235     0.15320E+01 
  52361.4857     0.15212E+01 
  52393.7478     0.15105E+01 
  52426.0100     0.14998E+01 
  52458.2722     0.14891E+01 
  52490.5343     0.14785E+01 
  52522.7965     0.14680E+01 
  52555.0586     0.14574E+01 
  52587.3208     0.14470E+01 
  52619.5830     0.14365E+01 
  52651.8451     0.14261E+01 
  52684.1073     0.14158E+01 
  52716.3694     0.14055E+01 
  52748.6316     0.13952E+01 
  52780.8938     0.13850E+01 
  52813.1559     0.13748E+01 
  52845.4181     0.13647E+01 
  52877.6802     0.13546E+01 
  52909.9424     0.13446E+01 
  52942.2046     0.13346E+01 
  52974.4667     0.13246E+01 
  53006.7289     0.13147E+01 
  53038.9910     0.13049E+01 
  53071.2532     0.12951E+01 
  53103.5154     0.12853E+01 
  53135.7775     0.12756E+01 
  53168.0397     0.12659E+01 
  53200.3018     0.12563E+01 
  53232.5640     0.12467E+01 
  53264.8262     0.12371E+01 
  53297.0883     0.12276E+01 
  53329.3505     0.12182E+01 
  53361.6126     0.12087E+01 
  53393.8748     0.11994E+01 
  53426.1370     0.11900E+01 
  53458.3991     0.11808E+01 
  53490.6613     0.11715E+01 
  53522.9234     0.11623E+01 
  53555.1856     0.11532E+01 
  53587.4478     0.11441E+01 
  53619.7099     0.11350E+01 
  53651.9721     0.11260E+01 
  53684.2342     0.11171E+01 
  53716.4964     0.11081E+01 
  53748.7586     0.10993E+01 
  53781.0207     0.10904E+01 
  53813.2829     0.10816E+01 
  53845.5450     0.10729E+01 
  53877.8072     0.10642E+01 
  53910.0694     0.10555E+01 
  53942.3315     0.10469E+01 
  53974.5937     0.10384E+01 
  54006.8558     0.10298E+01 
  54039.1180     0.10214E+01 
  54071.3802     0.10129E+01 
  54103.6423     0.10045E+01 
  54135.9045     0.99619E+00 
  54168.1666     0.98788E+00 
  54200.4288     0.97963E+00 
  54232.6910     0.97141E+00 
  54264.9531     0.96324E+00 
  54297.2153     0.95511E+00 
  54329.4774     0.94703E+00 
  54361.7396     0.93899E+00 
  54394.0018     0.93099E+00 
  54426.2639     0.92303E+00 
  54458.5261     0.91512E+00 
  54490.7882     0.90726E+00 
  54523.0504     0.89943E+00 
  54555.3126     0.89165E+00 
  54587.5747     0.88391E+00 
  54619.8369     0.87622E+00 
  54652.0990     0.86856E+00 
  54684.3612     0.86095E+00 
  54716.6234     0.85339E+00 
  54748.8855     0.84586E+00 
  54781.1477     0.83838E+00 
  54813.4098     0.83094E+00 
  54845.6720     0.82354E+00 
  54877.9342     0.81619E+00 
  54910.1963     0.80887E+00 
  54942.4585     0.80160E+00 
  54974.7206     0.79437E+00 
  55006.9828     0.78719E+00 
  55039.2450     0.78004E+00 
  55071.5071     0.77294E+00 
  55103.7693     0.76587E+00 
  55136.0314     0.75885E+00 
  55168.2936     0.75187E+00 
  55200.5558     0.74493E+00 
  55232.8179     0.73803E+00 
  55265.0801     0.73118E+00 
  55297.3422     0.72436E+00 
  55329.6044     0.71759E+00 
  55361.8666     0.71085E+00 
  55394.1287     0.70416E+00 
  55426.3909     0.69750E+00 
  55458.6530     0.69089E+00 
  55490.9152     0.68432E+00 
  55523.1774     0.67778E+00 
  55555.4395     0.67129E+00 
  55587.7017     0.66484E+00 
  55619.9638     0.65842E+00 
  55652.2260     0.65205E+00 
  55684.4882     0.64571E+00 
  55716.7503     0.63942E+00 
  55749.0125     0.63316E+00 
  55781.2746     0.62694E+00 
  55813.5368     0.62076E+00 
  55845.7990     0.61462E+00 
  55878.0611     0.60852E+00 
  55910.3233     0.60246E+00 
  55942.5854     0.59644E+00 
  55974.8476     0.59045E+00 
  56007.1098     0.58450E+00 
  56039.3719     0.57859E+00 
  56071.6341     0.57272E+00 
  56103.8962     0.56689E+00 
  56136.1584     0.56109E+00 
  56168.4206     0.55533E+00 
  56200.6827     0.54961E+00 
  56232.9449     0.54393E+00 
  56265.2070     0.53828E+00 
  56297.4692     0.53267E+00 
  56329.7314     0.52710E+00 
  56361.9935     0.52156E+00 
  56394.2557     0.51606E+00 
  56426.5178     0.51060E+00 
  56458.7800     0.50517E+00 
  56491.0422     0.49978E+00 
  56523.3043     0.49443E+00 
  56555.5665     0.48911E+00 
  56587.8286     0.48383E+00 
  56620.0908     0.47858E+00 
  56652.3530     0.47337E+00 
  56684.6151     0.46819E+00 
  56716.8773     0.46305E+00 
  56749.1394     0.45795E+00 
  56781.4016     0.45288E+00 
  56813.6638     0.44784E+00 
  56845.9259     0.44284E+00 
  56878.1881     0.43787E+00 
  56910.4502     0.43294E+00 
  56942.7124     0.42804E+00 
  56974.9746     0.42318E+00 
  57007.2367     0.41835E+00 
  57039.4989     0.41356E+00 
  57071.7610     0.40879E+00 
  57104.0232     0.40407E+00 
  57136.2854     0.39937E+00 
  57168.5475     0.39471E+00 
  57200.8097     0.39008E+00 
  57233.0718     0.38549E+00 
  57265.3340     0.38093E+00 
  57297.5962     0.37640E+00 
  57329.8583     0.37190E+00 
  57362.1205     0.36744E+00 
  57394.3826     0.36301E+00 
  57426.6448     0.35861E+00 
  57458.9070     0.35425E+00 
  57491.1691     0.34991E+00 
  57523.4313     0.34561E+00 
  57555.6934     0.34134E+00 
  57587.9556     0.33710E+00 
  57620.2178     0.33289E+00 
  57652.4799     0.32872E+00 
  57684.7421     0.32457E+00 
  57717.0042     0.32046E+00 
  57749.2664     0.31638E+00 
  57781.5286     0.31233E+00 
  57813.7907     0.30831E+00 
  57846.0529     0.30432E+00 
  57878.3150     0.30036E+00 
  57910.5772     0.29643E+00 
  57942.8394     0.29253E+00 
  57975.1015     0.28866E+00 
  58007.3637     0.28483E+00 
  58039.6258     0.28102E+00 
  58071.8880     0.27724E+00 
  58104.1502     0.27349E+00 
  58136.4123     0.26977E+00 
  58168.6745     0.26608E+00 
  58200.9366     0.26242E+00 
  58233.1988     0.25879E+00 
  58265.4610     0.25519E+00 
  58297.7231     0.25162E+00 
  58329.9853     0.24807E+00 
  58362.2474     0.24456E+00 
  58394.5096     0.24107E+00 
  58426.7718     0.23761E+00 
  58459.0339     0.23419E+00 
  58491.2961     0.23078E+00 
  58523.5582     0.22741E+00 
  58555.8204     0.22407E+00 
  58588.0826     0.22075E+00 
  58620.3447     0.21746E+00 
  58652.6069     0.21420E+00 
  58684.8690     0.21097E+00 
  58717.1312     0.20776E+00 
  58749.3934     0.20459E+00 
  58781.6555     0.20144E+00 
  58813.9177     0.19831E+00 
  58846.1798     0.19522E+00 
  58878.4420     0.19215E+00 
  58910.7042     0.18911E+00 
  58942.9663     0.18609E+00 
  58975.2285     0.18310E+00 
  59007.4906     0.18014E+00 
  59039.7528     0.17721E+00 
  59072.0150     0.17430E+00 
  59104.2771     0.17142E+00 
  59136.5393     0.16856E+00 
  59168.8014     0.16574E+00 
  59201.0636     0.16293E+00 
  59233.3258     0.16016E+00 
  59265.5879     0.15741E+00 
  59297.8501     0.15468E+00 
  59330.1122     0.15199E+00 
  59362.3744     0.14931E+00 
  59394.6366     0.14667E+00 
  59426.8987     0.14405E+00 
  59459.1609     0.14145E+00 
  59491.4230     0.13888E+00 
  59523.6852     0.13634E+00 
  59555.9474     0.13382E+00 
  59588.2095     0.13133E+00 
  59620.4717     0.12886E+00 
  59652.7338     0.12641E+00 
  59684.9960     0.12400E+00 
  59717.2582     0.12161E+00 
  59749.5203     0.11924E+00 
  59781.7825     0.11690E+00 
  59814.0446     0.11458E+00 
  59846.3068     0.11229E+00 
  59878.5690     0.11002E+00 
  59910.8311     0.10778E+00 
  59943.0933     0.10556E+00 
  59975.3554     0.10337E+00 
  60007.6176     0.10120E+00 
  60039.8798     0.99056E-01 
  60072.1419     0.96937E-01 
  60104.4041     0.94843E-01 
  60136.6662     0.92774E-01 
  60168.9284     0.90729E-01 
  60201.1906     0.88709E-01 
  60233.4527     0.86713E-01 
  60265.7149     0.84742E-01 
  60297.9770     0.82795E-01 
  60330.2392     0.80873E-01 
  60362.5014     0.78976E-01 
  60394.7635     0.77102E-01 
  60427.0257     0.75254E-01 
  60459.2878     0.73429E-01 
  60491.5500     0.71630E-01 
  60523.8122     0.69854E-01 
  60556.0743     0.68104E-01 
  60588.3365     0.66377E-01 
  60620.5986     0.64675E-01 
  60652.8608     0.62998E-01 
  60685.1230     0.61345E-01 
  60717.3851     0.59717E-01 
  60749.6473     0.58113E-01 
  60781.9094     0.56534E-01 
  60814.1716     0.54979E-01 
  60846.4338     0.53449E-01 
  60878.6959     0.51944E-01 
  60910.9581     0.50463E-01 
  60943.2202     0.49008E-01 
  60975.4824     0.47577E-01 
  61007.7446     0.46171E-01 
  61040.0067     0.44789E-01 
  61072.2689     0.43433E-01 
  61104.5310     0.42102E-01 
  61136.7932     0.40796E-01 
  61169.0554     0.39515E-01 
  61201.3175     0.38259E-01 
  61233.5797     0.37029E-01 
  61265.8418     0.35824E-01 
  61298.1040     0.34645E-01 
  61330.3662     0.33491E-01 
  61362.6283     0.32363E-01 
  61394.8905     0.31260E-01 
  61427.1526     0.30184E-01 
  61459.4148     0.29133E-01 
  61491.6770     0.28108E-01 
  61523.9391     0.27110E-01 
  61556.2013     0.26138E-01 
  61588.4634     0.25193E-01 
  61620.7256     0.24274E-01 
  61652.9878     0.23381E-01 
  61685.2499     0.22516E-01 
  61717.5121     0.21677E-01 
  61749.7742     0.20866E-01 
  61782.0364     0.20082E-01 
  61814.2986     0.19326E-01 
  61846.5607     0.18597E-01 
  61878.8229     0.17896E-01 
  61911.0850     0.17223E-01 
  61943.3472     0.16578E-01 
  61975.6094     0.15961E-01 
  62007.8715     0.15374E-01 
  62040.1337     0.14814E-01 
  62072.3958     0.14284E-01 
  62104.6580     0.13783E-01 
  62136.9202     0.13312E-01 
  62169.1823     0.12870E-01 
  62201.4445     0.12458E-01 
  62233.7066     0.12076E-01 
  62265.9688     0.11725E-01 
  62298.2310     0.11404E-01 
  62330.4931     0.11114E-01 
  62362.7553     0.10855E-01 
  62395.0174     0.10628E-01 
  62427.2796     0.10433E-01 
  62459.5418     0.10269E-01 
  62491.8039     0.10138E-01 
  62524.0661     0.10040E-01 
  62556.3282     0.99747E-02 
  62588.5904     0.99427E-02 
  62620.8526     0.99444E-02 
  62653.1147     0.99801E-02 
  62685.3769     0.10050E-01 
  62717.6390     0.10155E-01 
  62749.9012     0.10295E-01 
  62782.1634     0.10470E-01 
  62814.4255     0.10682E-01 
  62846.6877     0.10929E-01 
  62878.9498     0.11214E-01 
  62911.2120     0.11535E-01 
  62943.4742     0.11894E-01 
  62975.7363     0.12291E-01 
  63007.9985     0.12727E-01 
  63040.2606     0.13201E-01 
  63072.5228     0.13715E-01 
  63104.7850     0.14269E-01 
  63137.0471     0.14864E-01 
  63169.3093     0.15499E-01 
  63201.5714     0.16175E-01 
  63233.8336     0.16894E-01 
  63266.0958     0.17655E-01 
  63298.3579     0.18460E-01 
  63330.6201     0.19308E-01 
  63362.8822     0.20200E-01 
  63395.1444     0.21137E-01 
  63427.4066     0.22120E-01 
  63459.6687     0.23149E-01 
  63491.9309     0.24224E-01 
  63524.1930     0.25347E-01 
  63556.4552     0.26518E-01 
  63588.7174     0.27738E-01 
  63620.9795     0.29007E-01 
  63653.2417     0.30327E-01 
  63685.5038     0.31697E-01 
  63717.7660     0.33119E-01 
  63750.0282     0.34594E-01 
  63782.2903     0.36122E-01 
  63814.5525     0.37703E-01 
  63846.8146     0.39340E-01 
  63879.0768     0.41032E-01 
  63911.3390     0.42781E-01 
  63943.6011     0.44587E-01 
  63975.8633     0.46452E-01 
  64008.1254     0.48375E-01 
  64040.3876     0.50359E-01 
  64072.6498     0.52404E-01 
  64104.9119     0.54511E-01 
  64137.1741     0.56680E-01 
  64169.4362     0.58914E-01 
  64201.6984     0.61213E-01 
  64233.9606     0.63577E-01 
  64266.2227     0.66009E-01 
  64298.4849     0.68509E-01 
  64330.7470     0.71078E-01 
  64363.0092     0.73717E-01 
  64395.2714     0.76429E-01 
  64427.5335     0.79212E-01 
  64459.7957     0.82070E-01 
  64492.0578     0.85003E-01 
  64524.3200     0.88012E-01 
  64556.5822     0.91099E-01 
  64588.8443     0.94264E-01 
  64621.1065     0.97510E-01 
  64653.3686     0.10084E+00 
  64685.6308     0.10425E+00 
  64717.8930     0.10774E+00 
  64750.1551     0.11132E+00 
  64782.4173     0.11499E+00 
  64814.6794     0.11875E+00 
  64846.9416     0.12259E+00 
  64879.2038     0.12653E+00 
  64911.4659     0.13056E+00 
  64943.7281     0.13469E+00 
  64975.9902     0.13891E+00 
  65008.2524     0.14323E+00 
  65040.5146     0.14765E+00 
  65072.7767     0.15217E+00 
  65105.0389     0.15679E+00 
  65137.3010     0.16152E+00 
  65169.5632     0.16636E+00 
  65201.8254     0.17130E+00 
  65234.0875     0.17635E+00 
  65266.3497     0.18152E+00 
  65298.6118     0.18680E+00 
  65330.8740     0.19220E+00 
  65363.1362     0.19771E+00 
  65395.3983     0.20334E+00 
  65427.6605     0.20910E+00 
  65459.9226     0.21498E+00 
  65492.1848     0.22099E+00 
  65524.4470     0.22712E+00 
  65556.7091     0.23339E+00 
  65588.9713     0.23979E+00 
  65621.2334     0.24632E+00 
  65653.4956     0.25299E+00 
  65685.7578     0.25980E+00 
  65718.0199     0.26675E+00 
  65750.2821     0.27385E+00 
  65782.5442     0.28110E+00 
  65814.8064     0.28849E+00 
  65847.0686     0.29604E+00 
  65879.3307     0.30374E+00 
  65911.5929     0.31159E+00 
  65943.8550     0.31961E+00 
  65976.1172     0.32779E+00 
  66008.3794     0.33614E+00 
  66040.6415     0.34465E+00 
  66072.9037     0.35333E+00 
  66105.1658     0.36219E+00 
  66137.4280     0.37123E+00 
  66169.6902     0.38044E+00 
  66201.9523     0.38984E+00 
  66234.2145     0.39942E+00 
  66266.4766     0.40919E+00 
  66298.7388     0.41915E+00 
  66331.0010     0.42931E+00 
  66363.2631     0.43967E+00 
  66395.5253     0.45023E+00 
  66427.7874     0.46099E+00 
  66460.0496     0.47196E+00 
  66492.3118     0.48315E+00 
  66524.5739     0.49454E+00 
  66556.8361     0.50616E+00 
  66589.0982     0.51800E+00 
  66621.3604     0.53007E+00 
  66653.6226     0.54236E+00 
  66685.8847     0.55489E+00 
  66718.1469     0.56766E+00 
  66750.4090     0.58066E+00 
  66782.6712     0.59391E+00 
  66814.9334     0.60741E+00 
  66847.1955     0.62117E+00 
  66879.4577     0.63517E+00 
  66911.7198     0.64944E+00 
  66943.9820     0.66398E+00 
  66976.2442     0.67878E+00 
  67008.5063     0.69386E+00 
  67040.7685     0.70921E+00 
  67073.0306     0.72485E+00 
  67105.2928     0.74077E+00 
  67137.5550     0.75699E+00 
  67169.8171     0.77350E+00 
  67202.0793     0.79031E+00 
  67234.3414     0.80742E+00 
  67266.6036     0.82484E+00 
  67298.8658     0.84258E+00 
  67331.1279     0.86063E+00 
  67363.3901     0.87901E+00 
  67395.6522     0.89772E+00 
  67427.9144     0.91676E+00 
  67460.1766     0.93614E+00 
  67492.4387     0.95586E+00 
  67524.7009     0.97594E+00 
  67556.9630     0.99636E+00 
  67589.2252     0.10171E+01 
  67621.4874     0.10383E+01 
  67653.7495     0.10598E+01 
  67686.0117     0.10817E+01 
  67718.2738     0.11040E+01 
  67750.5360     0.11266E+01 
  67782.7982     0.11497E+01 
  67815.0603     0.11731E+01 
  67847.3225     0.11970E+01 
  67879.5846     0.12213E+01 
  67911.8468     0.12459E+01 
  67944.1090     0.12710E+01 
  67976.3711     0.12965E+01 
  68008.6333     0.13225E+01 
  68040.8954     0.13489E+01 
  68073.1576     0.13757E+01 
  68105.4198     0.14030E+01 
  68137.6819     0.14308E+01 
  68169.9441     0.14590E+01 
  68202.2062     0.14876E+01 
  68234.4684     0.15168E+01 
  68266.7306     0.15464E+01 
  68298.9927     0.15766E+01 
  68331.2549     0.16072E+01 
  68363.5170     0.16383E+01 
  68395.7792     0.16699E+01 
  68428.0414     0.17021E+01 
  68460.3035     0.17347E+01 
  68492.5657     0.17679E+01 
  68524.8278     0.18017E+01 
  68557.0900     0.18359E+01 
  68589.3522     0.18708E+01 
  68621.6143     0.19061E+01 
  68653.8765     0.19421E+01 
  68686.1386     0.19786E+01 
  68718.4008     0.20157E+01 
  68750.6630     0.20534E+01 
  68782.9251     0.20916E+01 
  68815.1873     0.21305E+01 
  68847.4494     0.21700E+01 
  68879.7116     0.22101E+01 
  68911.9738     0.22508E+01 
  68944.2359     0.22921E+01 
  68976.4981     0.23341E+01 
  69008.7602     0.23767E+01 
  69041.0224     0.24200E+01 
  69073.2846     0.24639E+01 
  69105.5467     0.25085E+01 
  69137.8089     0.25538E+01 
  69170.0710     0.25998E+01 
  69202.3332     0.26464E+01 
  69234.5954     0.26938E+01 
  69266.8575     0.27418E+01 
  69299.1197     0.27906E+01 
  69331.3818     0.28401E+01 
  69363.6440     0.28903E+01 
  69395.9062     0.29413E+01 
  69428.1683     0.29930E+01 
  69460.4305     0.30455E+01 
  69492.6926     0.30987E+01 
  69524.9548     0.31527E+01 
  69557.2170     0.32075E+01 
  69589.4791     0.32630E+01 
  69621.7413     0.33194E+01 
  69654.0034     0.33766E+01 
  69686.2656     0.34345E+01 
  69718.5278     0.34933E+01 
  69750.7899     0.35530E+01 
  69783.0521     0.36134E+01 
  69815.3142     0.36748E+01 
  69847.5764     0.37369E+01 
  69879.8386     0.37999E+01 
  69912.1007     0.38638E+01 
  69944.3629     0.39286E+01 
  69976.6250     0.39943E+01 
  70008.8872     0.40608E+01 
  70041.1494     0.41283E+01 
  70073.4115     0.41967E+01 
  70105.6737     0.42660E+01 
  70137.9358     0.43362E+01 
  70170.1980     0.44074E+01 
  70202.4602     0.44795E+01 
  70234.7223     0.45526E+01 
  70266.9845     0.46266E+01 
  70299.2466     0.47016E+01 
  70331.5088     0.47776E+01 
  70363.7710     0.48546E+01 
  70396.0331     0.49326E+01 
  70428.2953     0.50116E+01 
  70460.5574     0.50916E+01 
  70492.8196     0.51726E+01 
  70525.0818     0.52546E+01 
  70557.3439     0.53377E+01 
  70589.6061     0.54219E+01 
  70621.8682     0.55070E+01 
  70654.1304     0.55933E+01 
  70686.3926     0.56806E+01 
  70718.6547     0.57690E+01 
  70750.9169     0.58585E+01 
  70783.1790     0.59491E+01 
  70815.4412     0.60408E+01 
  70847.7034     0.61337E+01 
  70879.9655     0.62276E+01 
  70912.2277     0.63227E+01 
  70944.4898     0.64189E+01 
  70976.7520     0.65162E+01 
  71009.0142     0.66147E+01 
  71041.2763     0.67144E+01 
  71073.5385     0.68152E+01 
  71105.8006     0.69172E+01 
  71138.0628     0.70204E+01 
  71170.3250     0.71248E+01 
  71202.5871     0.72303E+01 
  71234.8493     0.73371E+01 
  71267.1114     0.74451E+01 
  71299.3736     0.75543E+01 
  71331.6358     0.76648E+01 
  71363.8979     0.77765E+01 
  71396.1601     0.78894E+01 
  71428.4222     0.80036E+01 
  71460.6844     0.81190E+01 
  71492.9466     0.82357E+01 
  71525.2087     0.83536E+01 
  71557.4709     0.84729E+01 
  71589.7330     0.85934E+01 
  71621.9952     0.87152E+01 
  71654.2574     0.88383E+01 
  71686.5195     0.89627E+01 
  71718.7817     0.90884E+01 
  71751.0438     0.92155E+01 
  71783.3060     0.93438E+01 
  71815.5682     0.94735E+01 
  71847.8303     0.96045E+01 
  71880.0925     0.97368E+01 
  71912.3546     0.98705E+01 
  71944.6168     0.10006E+02 
  71976.8790     0.10142E+02 
  72009.1411     0.10280E+02 
  72041.4033     0.10419E+02 
  72073.6654     0.10559E+02 
  72105.9276     0.10701E+02 
  72138.1898     0.10844E+02 
  72170.4519     0.10989E+02 
  72202.7141     0.11135E+02 
  72234.9762     0.11282E+02 
  72267.2384     0.11431E+02 
  72299.5006     0.11581E+02 
  72331.7627     0.11733E+02 
  72364.0249     0.11886E+02 
  72396.2870     0.12040E+02 
  72428.5492     0.12196E+02 
  72460.8114     0.12354E+02 
  72493.0735     0.12512E+02 
  72525.3357     0.12672E+02 
  72557.5978     0.12834E+02 
  72589.8600     0.12997E+02 
