  32262.1600     0.24621E+02 
  32294.4222     0.24944E+02 
  32326.6843     0.25270E+02 
  32358.9465     0.25599E+02 
  32391.2086     0.25931E+02 
  32423.4708     0.26266E+02 
  32455.7330     0.26605E+02 
  32487.9951     0.26946E+02 
  32520.2573     0.27291E+02 
  32552.5194     0.27638E+02 
  32584.7816     0.27989E+02 
  32617.0438     0.28343E+02 
  32649.3059     0.28700E+02 
  32681.5681     0.29060E+02 
  32713.8302     0.29423E+02 
  32746.0924     0.29789E+02 
  32778.3546     0.30158E+02 
  32810.6167     0.30531E+02 
  32842.8789     0.30907E+02 
  32875.1410     0.31286E+02 
  32907.4032     0.31668E+02 
  32939.6654     0.32053E+02 
  32971.9275     0.32441E+02 
  33004.1897     0.32833E+02 
  33036.4518     0.33227E+02 
  33068.7140     0.33625E+02 
  33100.9762     0.34026E+02 
  33133.2383     0.34430E+02 
  33165.5005     0.34838E+02 
  33197.7626     0.35248E+02 
  33230.0248     0.35662E+02 
  33262.2870     0.36079E+02 
  33294.5491     0.36499E+02 
  33326.8113     0.36922E+02 
  33359.0734     0.37348E+02 
  33391.3356     0.37778E+02 
  33423.5978     0.38210E+02 
  33455.8599     0.38646E+02 
  33488.1221     0.39085E+02 
  33520.3842     0.39527E+02 
  33552.6464     0.39972E+02 
  33584.9086     0.40421E+02 
  33617.1707     0.40872E+02 
  33649.4329     0.41327E+02 
  33681.6950     0.41784E+02 
  33713.9572     0.42245E+02 
  33746.2194     0.42709E+02 
  33778.4815     0.43176E+02 
  33810.7437     0.43646E+02 
  33843.0058     0.44119E+02 
  33875.2680     0.44595E+02 
  33907.5302     0.45075E+02 
  33939.7923     0.45557E+02 
  33972.0545     0.46042E+02 
  34004.3166     0.46531E+02 
  34036.5788     0.47022E+02 
  34068.8410     0.47516E+02 
  34101.1031     0.48014E+02 
  34133.3653     0.48514E+02 
  34165.6274     0.49017E+02 
  34197.8896     0.49524E+02 
  34230.1518     0.50033E+02 
  34262.4139     0.50545E+02 
  34294.6761     0.51060E+02 
  34326.9382     0.51578E+02 
  34359.2004     0.52098E+02 
  34391.4626     0.52622E+02 
  34423.7247     0.53148E+02 
  34455.9869     0.53677E+02 
  34488.2490     0.54209E+02 
  34520.5112     0.54744E+02 
  34552.7734     0.55282E+02 
  34585.0355     0.55822E+02 
  34617.2977     0.56365E+02 
  34649.5598     0.56910E+02 
  34681.8220     0.57459E+02 
  34714.0842     0.58010E+02 
  34746.3463     0.58563E+02 
  34778.6085     0.59119E+02 
  34810.8706     0.59678E+02 
  34843.1328     0.60239E+02 
  34875.3950     0.60803E+02 
  34907.6571     0.61370E+02 
  34939.9193     0.61938E+02 
  34972.1814     0.62510E+02 
  35004.4436     0.63083E+02 
  35036.7058     0.63659E+02 
  35068.9679     0.64238E+02 
  35101.2301     0.64819E+02 
  35133.4922     0.65402E+02 
  35165.7544     0.65987E+02 
  35198.0166     0.66575E+02 
  35230.2787     0.67165E+02 
  35262.5409     0.67757E+02 
  35294.8030     0.68351E+02 
  35327.0652     0.68947E+02 
  35359.3274     0.69546E+02 
  35391.5895     0.70146E+02 
  35423.8517     0.70749E+02 
  35456.1138     0.71353E+02 
  35488.3760     0.71960E+02 
  35520.6382     0.72568E+02 
  35552.9003     0.73179E+02 
  35585.1625     0.73791E+02 
  35617.4246     0.74405E+02 
  35649.6868     0.75021E+02 
  35681.9490     0.75639E+02 
  35714.2111     0.76258E+02 
  35746.4733     0.76879E+02 
  35778.7354     0.77501E+02 
  35810.9976     0.78126E+02 
  35843.2598     0.78751E+02 
  35875.5219     0.79379E+02 
  35907.7841     0.80008E+02 
  35940.0462     0.80638E+02 
  35972.3084     0.81270E+02 
  36004.5706     0.81903E+02 
  36036.8327     0.82537E+02 
  36069.0949     0.83173E+02 
  36101.3570     0.83809E+02 
  36133.6192     0.84448E+02 
  36165.8814     0.85087E+02 
  36198.1435     0.85727E+02 
  36230.4057     0.86369E+02 
  36262.6678     0.87011E+02 
  36294.9300     0.87655E+02 
  36327.1922     0.88299E+02 
  36359.4543     0.88944E+02 
  36391.7165     0.89590E+02 
  36423.9786     0.90237E+02 
  36456.2408     0.90885E+02 
  36488.5030     0.91533E+02 
  36520.7651     0.92182E+02 
  36553.0273     0.92832E+02 
  36585.2894     0.93482E+02 
  36617.5516     0.94133E+02 
  36649.8138     0.94784E+02 
  36682.0759     0.95436E+02 
  36714.3381     0.96088E+02 
  36746.6002     0.96741E+02 
  36778.8624     0.97393E+02 
  36811.1246     0.98046E+02 
  36843.3867     0.98700E+02 
  36875.6489     0.99353E+02 
  36907.9110     0.10001E+03 
  36940.1732     0.10066E+03 
  36972.4354     0.10131E+03 
  37004.6975     0.10197E+03 
  37036.9597     0.10262E+03 
  37069.2218     0.10327E+03 
  37101.4840     0.10393E+03 
  37133.7462     0.10458E+03 
  37166.0083     0.10523E+03 
  37198.2705     0.10588E+03 
  37230.5326     0.10653E+03 
  37262.7948     0.10718E+03 
  37295.0570     0.10784E+03 
  37327.3191     0.10849E+03 
  37359.5813     0.10913E+03 
  37391.8434     0.10978E+03 
  37424.1056     0.11043E+03 
  37456.3678     0.11108E+03 
  37488.6299     0.11172E+03 
  37520.8921     0.11237E+03 
  37553.1542     0.11301E+03 
  37585.4164     0.11366E+03 
  37617.6786     0.11430E+03 
  37649.9407     0.11494E+03 
  37682.2029     0.11558E+03 
  37714.4650     0.11622E+03 
  37746.7272     0.11686E+03 
  37778.9894     0.11750E+03 
  37811.2515     0.11813E+03 
  37843.5137     0.11876E+03 
  37875.7758     0.11940E+03 
  37908.0380     0.12003E+03 
  37940.3002     0.12066E+03 
  37972.5623     0.12128E+03 
  38004.8245     0.12191E+03 
  38037.0866     0.12253E+03 
  38069.3488     0.12316E+03 
  38101.6110     0.12378E+03 
  38133.8731     0.12440E+03 
  38166.1353     0.12501E+03 
  38198.3974     0.12563E+03 
  38230.6596     0.12624E+03 
  38262.9218     0.12685E+03 
  38295.1839     0.12746E+03 
  38327.4461     0.12807E+03 
  38359.7082     0.12867E+03 
  38391.9704     0.12927E+03 
  38424.2326     0.12987E+03 
  38456.4947     0.13047E+03 
  38488.7569     0.13106E+03 
  38521.0190     0.13165E+03 
  38553.2812     0.13224E+03 
  38585.5434     0.13283E+03 
  38617.8055     0.13342E+03 
  38650.0677     0.13400E+03 
  38682.3298     0.13458E+03 
  38714.5920     0.13515E+03 
  38746.8542     0.13573E+03 
  38779.1163     0.13630E+03 
  38811.3785     0.13686E+03 
  38843.6406     0.13743E+03 
  38875.9028     0.13799E+03 
  38908.1650     0.13855E+03 
  38940.4271     0.13910E+03 
  38972.6893     0.13965E+03 
  39004.9514     0.14020E+03 
  39037.2136     0.14075E+03 
  39069.4758     0.14129E+03 
  39101.7379     0.14183E+03 
  39134.0001     0.14236E+03 
  39166.2622     0.14289E+03 
  39198.5244     0.14342E+03 
  39230.7866     0.14395E+03 
  39263.0487     0.14447E+03 
  39295.3109     0.14499E+03 
  39327.5730     0.14550E+03 
  39359.8352     0.14601E+03 
  39392.0974     0.14652E+03 
  39424.3595     0.14702E+03 
  39456.6217     0.14752E+03 
  39488.8838     0.14801E+03 
  39521.1460     0.14850E+03 
  39553.4082     0.14899E+03 
  39585.6703     0.14947E+03 
  39617.9325     0.14995E+03 
  39650.1946     0.15042E+03 
  39682.4568     0.15089E+03 
  39714.7190     0.15136E+03 
  39746.9811     0.15182E+03 
  39779.2433     0.15228E+03 
  39811.5054     0.15273E+03 
  39843.7676     0.15318E+03 
  39876.0298     0.15363E+03 
  39908.2919     0.15407E+03 
  39940.5541     0.15450E+03 
  39972.8162     0.15493E+03 
  40005.0784     0.15536E+03 
  40037.3406     0.15578E+03 
  40069.6027     0.15620E+03 
  40101.8649     0.15661E+03 
  40134.1270     0.15702E+03 
  40166.3892     0.15742E+03 
  40198.6514     0.15782E+03 
  40230.9135     0.15822E+03 
  40263.1757     0.15860E+03 
  40295.4378     0.15899E+03 
  40327.7000     0.15937E+03 
  40359.9622     0.15974E+03 
  40392.2243     0.16011E+03 
  40424.4865     0.16048E+03 
  40456.7486     0.16084E+03 
  40489.0108     0.16119E+03 
  40521.2730     0.16154E+03 
  40553.5351     0.16189E+03 
  40585.7973     0.16223E+03 
  40618.0594     0.16256E+03 
  40650.3216     0.16289E+03 
  40682.5838     0.16321E+03 
  40714.8459     0.16353E+03 
  40747.1081     0.16385E+03 
  40779.3702     0.16416E+03 
  40811.6324     0.16446E+03 
  40843.8946     0.16476E+03 
  40876.1567     0.16505E+03 
  40908.4189     0.16534E+03 
  40940.6810     0.16562E+03 
  40972.9432     0.16590E+03 
  41005.2054     0.16617E+03 
  41037.4675     0.16643E+03 
  41069.7297     0.16670E+03 
  41101.9918     0.16695E+03 
  41134.2540     0.16720E+03 
  41166.5162     0.16744E+03 
  41198.7783     0.16768E+03 
  41231.0405     0.16792E+03 
  41263.3026     0.16815E+03 
  41295.5648     0.16837E+03 
  41327.8270     0.16858E+03 
  41360.0891     0.16880E+03 
  41392.3513     0.16900E+03 
  41424.6134     0.16920E+03 
  41456.8756     0.16940E+03 
  41489.1378     0.16959E+03 
  41521.3999     0.16977E+03 
  41553.6621     0.16995E+03 
  41585.9242     0.17012E+03 
  41618.1864     0.17029E+03 
  41650.4486     0.17045E+03 
  41682.7107     0.17060E+03 
  41714.9729     0.17075E+03 
  41747.2350     0.17090E+03 
  41779.4972     0.17104E+03 
  41811.7594     0.17117E+03 
  41844.0215     0.17130E+03 
  41876.2837     0.17142E+03 
  41908.5458     0.17154E+03 
  41940.8080     0.17165E+03 
  41973.0702     0.17175E+03 
  42005.3323     0.17185E+03 
  42037.5945     0.17194E+03 
  42069.8566     0.17203E+03 
  42102.1188     0.17211E+03 
  42134.3810     0.17219E+03 
  42166.6431     0.17226E+03 
  42198.9053     0.17233E+03 
  42231.1674     0.17239E+03 
  42263.4296     0.17244E+03 
  42295.6918     0.17249E+03 
  42327.9539     0.17253E+03 
  42360.2161     0.17257E+03 
  42392.4782     0.17260E+03 
  42424.7404     0.17263E+03 
  42457.0026     0.17265E+03 
  42489.2647     0.17266E+03 
  42521.5269     0.17267E+03 
  42553.7890     0.17267E+03 
  42586.0512     0.17267E+03 
  42618.3134     0.17266E+03 
  42650.5755     0.17265E+03 
  42682.8377     0.17263E+03 
  42715.0998     0.17261E+03 
  42747.3620     0.17258E+03 
  42779.6242     0.17254E+03 
  42811.8863     0.17250E+03 
  42844.1485     0.17246E+03 
  42876.4106     0.17241E+03 
  42908.6728     0.17235E+03 
  42940.9350     0.17229E+03 
  42973.1971     0.17222E+03 
  43005.4593     0.17215E+03 
  43037.7214     0.17207E+03 
  43069.9836     0.17198E+03 
  43102.2458     0.17189E+03 
  43134.5079     0.17180E+03 
  43166.7701     0.17170E+03 
  43199.0322     0.17159E+03 
  43231.2944     0.17148E+03 
  43263.5566     0.17137E+03 
  43295.8187     0.17125E+03 
  43328.0809     0.17112E+03 
  43360.3430     0.17099E+03 
  43392.6052     0.17085E+03 
  43424.8674     0.17071E+03 
  43457.1295     0.17056E+03 
  43489.3917     0.17041E+03 
  43521.6538     0.17025E+03 
  43553.9160     0.17009E+03 
  43586.1782     0.16993E+03 
  43618.4403     0.16975E+03 
  43650.7025     0.16958E+03 
  43682.9646     0.16939E+03 
  43715.2268     0.16921E+03 
  43747.4890     0.16902E+03 
  43779.7511     0.16882E+03 
  43812.0133     0.16862E+03 
  43844.2754     0.16841E+03 
  43876.5376     0.16820E+03 
  43908.7998     0.16798E+03 
  43941.0619     0.16776E+03 
  43973.3241     0.16754E+03 
  44005.5862     0.16731E+03 
  44037.8484     0.16707E+03 
  44070.1106     0.16683E+03 
  44102.3727     0.16659E+03 
  44134.6349     0.16634E+03 
  44166.8970     0.16609E+03 
  44199.1592     0.16583E+03 
  44231.4214     0.16557E+03 
  44263.6835     0.16530E+03 
  44295.9457     0.16503E+03 
  44328.2078     0.16475E+03 
  44360.4700     0.16448E+03 
  44392.7322     0.16419E+03 
  44424.9943     0.16390E+03 
  44457.2565     0.16361E+03 
  44489.5186     0.16331E+03 
  44521.7808     0.16301E+03 
  44554.0430     0.16271E+03 
  44586.3051     0.16240E+03 
  44618.5673     0.16208E+03 
  44650.8294     0.16177E+03 
  44683.0916     0.16145E+03 
  44715.3538     0.16112E+03 
  44747.6159     0.16079E+03 
  44779.8781     0.16046E+03 
  44812.1402     0.16012E+03 
  44844.4024     0.15978E+03 
  44876.6646     0.15944E+03 
  44908.9267     0.15909E+03 
  44941.1889     0.15873E+03 
  44973.4510     0.15838E+03 
  45005.7132     0.15802E+03 
  45037.9754     0.15766E+03 
  45070.2375     0.15729E+03 
  45102.4997     0.15692E+03 
  45134.7618     0.15655E+03 
  45167.0240     0.15617E+03 
  45199.2862     0.15579E+03 
  45231.5483     0.15540E+03 
  45263.8105     0.15502E+03 
  45296.0726     0.15462E+03 
  45328.3348     0.15423E+03 
  45360.5970     0.15383E+03 
  45392.8591     0.15343E+03 
  45425.1213     0.15303E+03 
  45457.3834     0.15262E+03 
  45489.6456     0.15221E+03 
  45521.9078     0.15180E+03 
  45554.1699     0.15138E+03 
  45586.4321     0.15096E+03 
  45618.6942     0.15054E+03 
  45650.9564     0.15012E+03 
  45683.2186     0.14969E+03 
  45715.4807     0.14926E+03 
  45747.7429     0.14882E+03 
  45780.0050     0.14839E+03 
  45812.2672     0.14795E+03 
  45844.5294     0.14751E+03 
  45876.7915     0.14706E+03 
  45909.0537     0.14662E+03 
  45941.3158     0.14617E+03 
  45973.5780     0.14571E+03 
  46005.8402     0.14526E+03 
  46038.1023     0.14480E+03 
  46070.3645     0.14434E+03 
  46102.6266     0.14388E+03 
  46134.8888     0.14342E+03 
  46167.1510     0.14295E+03 
  46199.4131     0.14248E+03 
  46231.6753     0.14201E+03 
  46263.9374     0.14154E+03 
  46296.1996     0.14106E+03 
  46328.4618     0.14059E+03 
  46360.7239     0.14011E+03 
  46392.9861     0.13963E+03 
  46425.2482     0.13914E+03 
  46457.5104     0.13866E+03 
  46489.7726     0.13817E+03 
  46522.0347     0.13768E+03 
  46554.2969     0.13719E+03 
  46586.5590     0.13670E+03 
  46618.8212     0.13620E+03 
  46651.0834     0.13571E+03 
  46683.3455     0.13521E+03 
  46715.6077     0.13471E+03 
  46747.8698     0.13421E+03 
  46780.1320     0.13371E+03 
  46812.3942     0.13320E+03 
  46844.6563     0.13270E+03 
  46876.9185     0.13219E+03 
  46909.1806     0.13168E+03 
  46941.4428     0.13117E+03 
  46973.7050     0.13066E+03 
  47005.9671     0.13015E+03 
  47038.2293     0.12963E+03 
  47070.4914     0.12912E+03 
  47102.7536     0.12860E+03 
  47135.0158     0.12808E+03 
  47167.2779     0.12756E+03 
  47199.5401     0.12704E+03 
  47231.8022     0.12652E+03 
  47264.0644     0.12600E+03 
  47296.3266     0.12548E+03 
  47328.5887     0.12496E+03 
  47360.8509     0.12443E+03 
  47393.1130     0.12391E+03 
  47425.3752     0.12338E+03 
  47457.6374     0.12285E+03 
  47489.8995     0.12232E+03 
  47522.1617     0.12179E+03 
  47554.4238     0.12127E+03 
  47586.6860     0.12074E+03 
  47618.9482     0.12020E+03 
  47651.2103     0.11967E+03 
  47683.4725     0.11914E+03 
  47715.7346     0.11861E+03 
  47747.9968     0.11808E+03 
  47780.2590     0.11754E+03 
  47812.5211     0.11701E+03 
  47844.7833     0.11647E+03 
  47877.0454     0.11594E+03 
  47909.3076     0.11540E+03 
  47941.5698     0.11487E+03 
  47973.8319     0.11433E+03 
  48006.0941     0.11380E+03 
  48038.3562     0.11326E+03 
  48070.6184     0.11272E+03 
  48102.8806     0.11219E+03 
  48135.1427     0.11165E+03 
  48167.4049     0.11111E+03 
  48199.6670     0.11058E+03 
  48231.9292     0.11004E+03 
  48264.1914     0.10950E+03 
  48296.4535     0.10897E+03 
  48328.7157     0.10843E+03 
  48360.9778     0.10789E+03 
  48393.2400     0.10736E+03 
  48425.5022     0.10682E+03 
  48457.7643     0.10628E+03 
  48490.0265     0.10575E+03 
  48522.2886     0.10521E+03 
  48554.5508     0.10467E+03 
  48586.8130     0.10414E+03 
  48619.0751     0.10360E+03 
  48651.3373     0.10307E+03 
  48683.5994     0.10253E+03 
  48715.8616     0.10200E+03 
  48748.1238     0.10147E+03 
  48780.3859     0.10093E+03 
  48812.6481     0.10040E+03 
  48844.9102     0.99867E+02 
  48877.1724     0.99335E+02 
  48909.4346     0.98803E+02 
  48941.6967     0.98272E+02 
  48973.9589     0.97742E+02 
  49006.2210     0.97212E+02 
  49038.4832     0.96683E+02 
  49070.7454     0.96155E+02 
  49103.0075     0.95627E+02 
  49135.2697     0.95100E+02 
  49167.5318     0.94574E+02 
  49199.7940     0.94048E+02 
  49232.0562     0.93523E+02 
  49264.3183     0.92999E+02 
  49296.5805     0.92476E+02 
  49328.8426     0.91953E+02 
  49361.1048     0.91432E+02 
  49393.3670     0.90911E+02 
  49425.6291     0.90391E+02 
  49457.8913     0.89872E+02 
  49490.1534     0.89354E+02 
  49522.4156     0.88837E+02 
  49554.6778     0.88321E+02 
  49586.9399     0.87806E+02 
  49619.2021     0.87292E+02 
  49651.4642     0.86779E+02 
  49683.7264     0.86267E+02 
  49715.9886     0.85757E+02 
  49748.2507     0.85247E+02 
  49780.5129     0.84738E+02 
  49812.7750     0.84230E+02 
  49845.0372     0.83724E+02 
  49877.2994     0.83219E+02 
  49909.5615     0.82715E+02 
  49941.8237     0.82212E+02 
  49974.0858     0.81710E+02 
  50006.3480     0.81210E+02 
  50038.6102     0.80710E+02 
  50070.8723     0.80212E+02 
  50103.1345     0.79716E+02 
  50135.3966     0.79220E+02 
  50167.6588     0.78726E+02 
  50199.9210     0.78234E+02 
  50232.1831     0.77742E+02 
  50264.4453     0.77252E+02 
  50296.7074     0.76763E+02 
  50328.9696     0.76276E+02 
  50361.2318     0.75790E+02 
  50393.4939     0.75306E+02 
  50425.7561     0.74822E+02 
  50458.0182     0.74341E+02 
  50490.2804     0.73861E+02 
  50522.5426     0.73382E+02 
  50554.8047     0.72905E+02 
  50587.0669     0.72429E+02 
  50619.3290     0.71954E+02 
  50651.5912     0.71482E+02 
  50683.8534     0.71010E+02 
  50716.1155     0.70541E+02 
  50748.3777     0.70072E+02 
  50780.6398     0.69606E+02 
  50812.9020     0.69141E+02 
  50845.1642     0.68677E+02 
  50877.4263     0.68215E+02 
  50909.6885     0.67755E+02 
  50941.9506     0.67296E+02 
  50974.2128     0.66839E+02 
  51006.4750     0.66384E+02 
  51038.7371     0.65930E+02 
  51070.9993     0.65477E+02 
  51103.2614     0.65027E+02 
  51135.5236     0.64578E+02 
  51167.7858     0.64131E+02 
  51200.0479     0.63685E+02 
  51232.3101     0.63241E+02 
  51264.5722     0.62799E+02 
  51296.8344     0.62359E+02 
  51329.0966     0.61920E+02 
  51361.3587     0.61483E+02 
  51393.6209     0.61048E+02 
  51425.8830     0.60614E+02 
  51458.1452     0.60182E+02 
  51490.4074     0.59752E+02 
  51522.6695     0.59324E+02 
  51554.9317     0.58897E+02 
  51587.1938     0.58472E+02 
  51619.4560     0.58049E+02 
  51651.7182     0.57628E+02 
  51683.9803     0.57208E+02 
  51716.2425     0.56790E+02 
  51748.5046     0.56374E+02 
  51780.7668     0.55960E+02 
  51813.0290     0.55548E+02 
  51845.2911     0.55137E+02 
  51877.5533     0.54728E+02 
  51909.8154     0.54321E+02 
  51942.0776     0.53916E+02 
  51974.3398     0.53513E+02 
  52006.6019     0.53111E+02 
  52038.8641     0.52711E+02 
  52071.1262     0.52314E+02 
  52103.3884     0.51917E+02 
  52135.6506     0.51523E+02 
  52167.9127     0.51131E+02 
  52200.1749     0.50740E+02 
  52232.4370     0.50351E+02 
  52264.6992     0.49965E+02 
  52296.9614     0.49580E+02 
  52329.2235     0.49196E+02 
  52361.4857     0.48815E+02 
  52393.7478     0.48435E+02 
  52426.0100     0.48058E+02 
  52458.2722     0.47682E+02 
  52490.5343     0.47308E+02 
  52522.7965     0.46936E+02 
  52555.0586     0.46566E+02 
  52587.3208     0.46197E+02 
  52619.5830     0.45831E+02 
  52651.8451     0.45466E+02 
  52684.1073     0.45103E+02 
  52716.3694     0.44742E+02 
  52748.6316     0.44383E+02 
  52780.8938     0.44025E+02 
  52813.1559     0.43670E+02 
  52845.4181     0.43316E+02 
  52877.6802     0.42965E+02 
  52909.9424     0.42615E+02 
  52942.2046     0.42267E+02 
  52974.4667     0.41921E+02 
  53006.7289     0.41576E+02 
  53038.9910     0.41234E+02 
  53071.2532     0.40893E+02 
  53103.5154     0.40554E+02 
  53135.7775     0.40217E+02 
  53168.0397     0.39882E+02 
  53200.3018     0.39549E+02 
  53232.5640     0.39218E+02 
  53264.8262     0.38888E+02 
  53297.0883     0.38560E+02 
  53329.3505     0.38234E+02 
  53361.6126     0.37910E+02 
  53393.8748     0.37588E+02 
  53426.1370     0.37267E+02 
  53458.3991     0.36949E+02 
  53490.6613     0.36632E+02 
  53522.9234     0.36317E+02 
  53555.1856     0.36004E+02 
  53587.4478     0.35692E+02 
  53619.7099     0.35383E+02 
  53651.9721     0.35075E+02 
  53684.2342     0.34769E+02 
  53716.4964     0.34465E+02 
  53748.7586     0.34163E+02 
  53781.0207     0.33862E+02 
  53813.2829     0.33563E+02 
  53845.5450     0.33266E+02 
  53877.8072     0.32971E+02 
  53910.0694     0.32678E+02 
  53942.3315     0.32386E+02 
  53974.5937     0.32096E+02 
  54006.8558     0.31808E+02 
  54039.1180     0.31521E+02 
  54071.3802     0.31237E+02 
  54103.6423     0.30954E+02 
  54135.9045     0.30673E+02 
  54168.1666     0.30393E+02 
  54200.4288     0.30116E+02 
  54232.6910     0.29840E+02 
  54264.9531     0.29565E+02 
  54297.2153     0.29293E+02 
  54329.4774     0.29022E+02 
  54361.7396     0.28753E+02 
  54394.0018     0.28486E+02 
  54426.2639     0.28220E+02 
  54458.5261     0.27956E+02 
  54490.7882     0.27694E+02 
  54523.0504     0.27433E+02 
  54555.3126     0.27174E+02 
  54587.5747     0.26917E+02 
  54619.8369     0.26662E+02 
  54652.0990     0.26408E+02 
  54684.3612     0.26156E+02 
  54716.6234     0.25905E+02 
  54748.8855     0.25656E+02 
  54781.1477     0.25409E+02 
  54813.4098     0.25163E+02 
  54845.6720     0.24919E+02 
  54877.9342     0.24677E+02 
  54910.1963     0.24436E+02 
  54942.4585     0.24197E+02 
  54974.7206     0.23959E+02 
  55006.9828     0.23723E+02 
  55039.2450     0.23489E+02 
  55071.5071     0.23256E+02 
  55103.7693     0.23025E+02 
  55136.0314     0.22795E+02 
  55168.2936     0.22567E+02 
  55200.5558     0.22341E+02 
  55232.8179     0.22116E+02 
  55265.0801     0.21893E+02 
  55297.3422     0.21671E+02 
  55329.6044     0.21451E+02 
  55361.8666     0.21232E+02 
  55394.1287     0.21015E+02 
  55426.3909     0.20799E+02 
  55458.6530     0.20585E+02 
  55490.9152     0.20372E+02 
  55523.1774     0.20161E+02 
  55555.4395     0.19952E+02 
  55587.7017     0.19743E+02 
  55619.9638     0.19537E+02 
  55652.2260     0.19332E+02 
  55684.4882     0.19128E+02 
  55716.7503     0.18926E+02 
  55749.0125     0.18725E+02 
  55781.2746     0.18525E+02 
  55813.5368     0.18328E+02 
  55845.7990     0.18131E+02 
  55878.0611     0.17936E+02 
  55910.3233     0.17743E+02 
  55942.5854     0.17550E+02 
  55974.8476     0.17360E+02 
  56007.1098     0.17170E+02 
  56039.3719     0.16982E+02 
  56071.6341     0.16796E+02 
  56103.8962     0.16610E+02 
  56136.1584     0.16427E+02 
  56168.4206     0.16244E+02 
  56200.6827     0.16063E+02 
  56232.9449     0.15884E+02 
  56265.2070     0.15705E+02 
  56297.4692     0.15528E+02 
  56329.7314     0.15352E+02 
  56361.9935     0.15178E+02 
  56394.2557     0.15005E+02 
  56426.5178     0.14833E+02 
  56458.7800     0.14663E+02 
  56491.0422     0.14494E+02 
  56523.3043     0.14326E+02 
  56555.5665     0.14160E+02 
  56587.8286     0.13995E+02 
  56620.0908     0.13831E+02 
  56652.3530     0.13668E+02 
  56684.6151     0.13507E+02 
  56716.8773     0.13347E+02 
  56749.1394     0.13188E+02 
  56781.4016     0.13030E+02 
  56813.6638     0.12874E+02 
  56845.9259     0.12719E+02 
  56878.1881     0.12565E+02 
  56910.4502     0.12412E+02 
  56942.7124     0.12261E+02 
  56974.9746     0.12111E+02 
  57007.2367     0.11962E+02 
  57039.4989     0.11814E+02 
  57071.7610     0.11667E+02 
  57104.0232     0.11522E+02 
  57136.2854     0.11377E+02 
  57168.5475     0.11234E+02 
  57200.8097     0.11092E+02 
  57233.0718     0.10952E+02 
  57265.3340     0.10812E+02 
  57297.5962     0.10674E+02 
  57329.8583     0.10536E+02 
  57362.1205     0.10400E+02 
  57394.3826     0.10265E+02 
  57426.6448     0.10131E+02 
  57458.9070     0.99981E+01 
  57491.1691     0.98664E+01 
  57523.4313     0.97358E+01 
  57555.6934     0.96062E+01 
  57587.9556     0.94778E+01 
  57620.2178     0.93505E+01 
  57652.4799     0.92242E+01 
  57684.7421     0.90990E+01 
  57717.0042     0.89749E+01 
  57749.2664     0.88519E+01 
  57781.5286     0.87299E+01 
  57813.7907     0.86089E+01 
  57846.0529     0.84890E+01 
  57878.3150     0.83702E+01 
  57910.5772     0.82523E+01 
  57942.8394     0.81355E+01 
  57975.1015     0.80198E+01 
  58007.3637     0.79050E+01 
  58039.6258     0.77913E+01 
  58071.8880     0.76785E+01 
  58104.1502     0.75668E+01 
  58136.4123     0.74561E+01 
  58168.6745     0.73463E+01 
  58200.9366     0.72376E+01 
  58233.1988     0.71298E+01 
  58265.4610     0.70230E+01 
  58297.7231     0.69171E+01 
  58329.9853     0.68123E+01 
  58362.2474     0.67084E+01 
  58394.5096     0.66054E+01 
  58426.7718     0.65034E+01 
  58459.0339     0.64023E+01 
  58491.2961     0.63022E+01 
  58523.5582     0.62030E+01 
  58555.8204     0.61048E+01 
  58588.0826     0.60074E+01 
  58620.3447     0.59110E+01 
  58652.6069     0.58155E+01 
  58684.8690     0.57209E+01 
  58717.1312     0.56272E+01 
  58749.3934     0.55345E+01 
  58781.6555     0.54426E+01 
  58813.9177     0.53516E+01 
  58846.1798     0.52615E+01 
  58878.4420     0.51723E+01 
  58910.7042     0.50839E+01 
  58942.9663     0.49965E+01 
  58975.2285     0.49099E+01 
  59007.4906     0.48241E+01 
  59039.7528     0.47393E+01 
  59072.0150     0.46553E+01 
  59104.2771     0.45721E+01 
  59136.5393     0.44898E+01 
  59168.8014     0.44084E+01 
  59201.0636     0.43277E+01 
  59233.3258     0.42480E+01 
  59265.5879     0.41690E+01 
  59297.8501     0.40909E+01 
  59330.1122     0.40137E+01 
  59362.3744     0.39372E+01 
  59394.6366     0.38616E+01 
  59426.8987     0.37868E+01 
  59459.1609     0.37128E+01 
  59491.4230     0.36396E+01 
  59523.6852     0.35672E+01 
  59555.9474     0.34956E+01 
  59588.2095     0.34249E+01 
  59620.4717     0.33549E+01 
  59652.7338     0.32857E+01 
  59684.9960     0.32173E+01 
  59717.2582     0.31497E+01 
  59749.5203     0.30829E+01 
  59781.7825     0.30169E+01 
  59814.0446     0.29517E+01 
  59846.3068     0.28872E+01 
  59878.5690     0.28235E+01 
  59910.8311     0.27606E+01 
  59943.0933     0.26985E+01 
  59975.3554     0.26371E+01 
  60007.6176     0.25765E+01 
  60039.8798     0.25167E+01 
  60072.1419     0.24576E+01 
  60104.4041     0.23993E+01 
  60136.6662     0.23417E+01 
  60168.9284     0.22849E+01 
  60201.1906     0.22289E+01 
  60233.4527     0.21736E+01 
  60265.7149     0.21191E+01 
  60297.9770     0.20653E+01 
  60330.2392     0.20122E+01 
  60362.5014     0.19600E+01 
  60394.7635     0.19084E+01 
  60427.0257     0.18576E+01 
  60459.2878     0.18076E+01 
  60491.5500     0.17583E+01 
  60523.8122     0.17097E+01 
  60556.0743     0.16619E+01 
  60588.3365     0.16148E+01 
  60620.5986     0.15685E+01 
  60652.8608     0.15229E+01 
  60685.1230     0.14780E+01 
  60717.3851     0.14339E+01 
  60749.6473     0.13905E+01 
  60781.9094     0.13479E+01 
  60814.1716     0.13060E+01 
  60846.4338     0.12648E+01 
  60878.6959     0.12244E+01 
  60910.9581     0.11847E+01 
  60943.2202     0.11458E+01 
  60975.4824     0.11076E+01 
  61007.7446     0.10701E+01 
  61040.0067     0.10334E+01 
  61072.2689     0.99745E+00 
  61104.5310     0.96222E+00 
  61136.7932     0.92774E+00 
  61169.0554     0.89400E+00 
  61201.3175     0.86101E+00 
  61233.5797     0.82876E+00 
  61265.8418     0.79727E+00 
  61298.1040     0.76653E+00 
  61330.3662     0.73655E+00 
  61362.6283     0.70732E+00 
  61394.8905     0.67884E+00 
  61427.1526     0.65113E+00 
  61459.4148     0.62418E+00 
  61491.6770     0.59800E+00 
  61523.9391     0.57258E+00 
  61556.2013     0.54793E+00 
  61588.4634     0.52406E+00 
  61620.7256     0.50096E+00 
  61652.9878     0.47864E+00 
  61685.2499     0.45711E+00 
  61717.5121     0.43636E+00 
  61749.7742     0.41640E+00 
  61782.0364     0.39723E+00 
  61814.2986     0.37886E+00 
  61846.5607     0.36130E+00 
  61878.8229     0.34454E+00 
  61911.0850     0.32859E+00 
  61943.3472     0.31345E+00 
  61975.6094     0.29914E+00 
  62007.8715     0.28565E+00 
  62040.1337     0.27299E+00 
  62072.3958     0.26116E+00 
  62104.6580     0.25018E+00 
  62136.9202     0.24004E+00 
  62169.1823     0.23076E+00 
  62201.4445     0.22233E+00 
  62233.7066     0.21477E+00 
  62265.9688     0.20808E+00 
  62298.2310     0.20227E+00 
  62330.4931     0.19734E+00 
  62362.7553     0.19331E+00 
  62395.0174     0.19017E+00 
  62427.2796     0.18795E+00 
  62459.5418     0.18663E+00 
  62491.8039     0.18624E+00 
  62524.0661     0.18678E+00 
  62556.3282     0.18826E+00 
  62588.5904     0.19069E+00 
  62620.8526     0.19407E+00 
  62653.1147     0.19842E+00 
  62685.3769     0.20374E+00 
  62717.6390     0.21005E+00 
  62749.9012     0.21736E+00 
  62782.1634     0.22567E+00 
  62814.4255     0.23499E+00 
  62846.6877     0.24534E+00 
  62878.9498     0.25673E+00 
  62911.2120     0.26917E+00 
  62943.4742     0.28266E+00 
  62975.7363     0.29723E+00 
  63007.9985     0.31288E+00 
  63040.2606     0.32963E+00 
  63072.5228     0.34748E+00 
  63104.7850     0.36646E+00 
  63137.0471     0.38657E+00 
  63169.3093     0.40783E+00 
  63201.5714     0.43026E+00 
  63233.8336     0.45386E+00 
  63266.0958     0.47865E+00 
  63298.3579     0.50465E+00 
  63330.6201     0.53187E+00 
  63362.8822     0.56033E+00 
  63395.1444     0.59004E+00 
  63427.4066     0.62101E+00 
  63459.6687     0.65328E+00 
  63491.9309     0.68685E+00 
  63524.1930     0.72174E+00 
  63556.4552     0.75797E+00 
  63588.7174     0.79555E+00 
  63620.9795     0.83451E+00 
  63653.2417     0.87487E+00 
  63685.5038     0.91664E+00 
  63717.7660     0.95984E+00 
  63750.0282     0.10045E+01 
  63782.2903     0.10506E+01 
  63814.5525     0.10983E+01 
  63846.8146     0.11474E+01 
  63879.0768     0.11981E+01 
  63911.3390     0.12503E+01 
  63943.6011     0.13042E+01 
  63975.8633     0.13596E+01 
  64008.1254     0.14167E+01 
  64040.3876     0.14754E+01 
  64072.6498     0.15358E+01 
  64104.9119     0.15979E+01 
  64137.1741     0.16618E+01 
  64169.4362     0.17274E+01 
  64201.6984     0.17948E+01 
  64233.9606     0.18640E+01 
  64266.2227     0.19350E+01 
  64298.4849     0.20079E+01 
  64330.7470     0.20828E+01 
  64363.0092     0.21595E+01 
  64395.2714     0.22382E+01 
  64427.5335     0.23189E+01 
  64459.7957     0.24016E+01 
  64492.0578     0.24864E+01 
  64524.3200     0.25733E+01 
  64556.5822     0.26623E+01 
  64588.8443     0.27534E+01 
  64621.1065     0.28467E+01 
  64653.3686     0.29423E+01 
  64685.6308     0.30401E+01 
  64717.8930     0.31402E+01 
  64750.1551     0.32426E+01 
  64782.4173     0.33474E+01 
  64814.6794     0.34546E+01 
  64846.9416     0.35643E+01 
  64879.2038     0.36765E+01 
  64911.4659     0.37911E+01 
  64943.7281     0.39084E+01 
  64975.9902     0.40283E+01 
  65008.2524     0.41508E+01 
  65040.5146     0.42760E+01 
  65072.7767     0.44040E+01 
  65105.0389     0.45348E+01 
  65137.3010     0.46684E+01 
  65169.5632     0.48049E+01 
  65201.8254     0.49443E+01 
  65234.0875     0.50867E+01 
  65266.3497     0.52322E+01 
  65298.6118     0.53807E+01 
  65330.8740     0.55324E+01 
  65363.1362     0.56872E+01 
  65395.3983     0.58453E+01 
  65427.6605     0.60067E+01 
  65459.9226     0.61714E+01 
  65492.1848     0.63395E+01 
  65524.4470     0.65111E+01 
  65556.7091     0.66862E+01 
  65588.9713     0.68649E+01 
  65621.2334     0.70472E+01 
  65653.4956     0.72332E+01 
  65685.7578     0.74230E+01 
  65718.0199     0.76166E+01 
  65750.2821     0.78141E+01 
  65782.5442     0.80155E+01 
  65814.8064     0.82210E+01 
  65847.0686     0.84305E+01 
  65879.3307     0.86442E+01 
  65911.5929     0.88621E+01 
  65943.8550     0.90843E+01 
  65976.1172     0.93109E+01 
  66008.3794     0.95419E+01 
  66040.6415     0.97774E+01 
  66072.9037     0.10017E+02 
  66105.1658     0.10262E+02 
  66137.4280     0.10512E+02 
  66169.6902     0.10766E+02 
  66201.9523     0.11025E+02 
  66234.2145     0.11289E+02 
  66266.4766     0.11559E+02 
  66298.7388     0.11833E+02 
  66331.0010     0.12113E+02 
  66363.2631     0.12398E+02 
  66395.5253     0.12688E+02 
  66427.7874     0.12984E+02 
  66460.0496     0.13285E+02 
  66492.3118     0.13592E+02 
  66524.5739     0.13905E+02 
  66556.8361     0.14224E+02 
  66589.0982     0.14548E+02 
  66621.3604     0.14879E+02 
  66653.6226     0.15216E+02 
  66685.8847     0.15559E+02 
  66718.1469     0.15908E+02 
  66750.4090     0.16264E+02 
  66782.6712     0.16627E+02 
  66814.9334     0.16996E+02 
  66847.1955     0.17372E+02 
  66879.4577     0.17754E+02 
  66911.7198     0.18144E+02 
  66943.9820     0.18541E+02 
  66976.2442     0.18945E+02 
  67008.5063     0.19356E+02 
  67040.7685     0.19775E+02 
  67073.0306     0.20201E+02 
  67105.2928     0.20635E+02 
  67137.5550     0.21077E+02 
  67169.8171     0.21527E+02 
  67202.0793     0.21985E+02 
  67234.3414     0.22450E+02 
  67266.6036     0.22925E+02 
  67298.8658     0.23407E+02 
  67331.1279     0.23899E+02 
  67363.3901     0.24398E+02 
  67395.6522     0.24907E+02 
  67427.9144     0.25425E+02 
  67460.1766     0.25951E+02 
  67492.4387     0.26487E+02 
  67524.7009     0.27033E+02 
  67556.9630     0.27588E+02 
  67589.2252     0.28152E+02 
  67621.4874     0.28726E+02 
  67653.7495     0.29311E+02 
  67686.0117     0.29905E+02 
  67718.2738     0.30510E+02 
  67750.5360     0.31125E+02 
  67782.7982     0.31750E+02 
  67815.0603     0.32387E+02 
  67847.3225     0.33034E+02 
  67879.5846     0.33692E+02 
  67911.8468     0.34361E+02 
  67944.1090     0.35042E+02 
  67976.3711     0.35734E+02 
  68008.6333     0.36438E+02 
  68040.8954     0.37154E+02 
  68073.1576     0.37882E+02 
  68105.4198     0.38622E+02 
  68137.6819     0.39374E+02 
  68169.9441     0.40139E+02 
  68202.2062     0.40917E+02 
  68234.4684     0.41707E+02 
  68266.7306     0.42511E+02 
  68298.9927     0.43328E+02 
  68331.2549     0.44159E+02 
  68363.5170     0.45003E+02 
  68395.7792     0.45861E+02 
  68428.0414     0.46732E+02 
  68460.3035     0.47619E+02 
  68492.5657     0.48519E+02 
  68524.8278     0.49434E+02 
  68557.0900     0.50365E+02 
  68589.3522     0.51310E+02 
  68621.6143     0.52270E+02 
  68653.8765     0.53246E+02 
  68686.1386     0.54237E+02 
  68718.4008     0.55244E+02 
  68750.6630     0.56267E+02 
  68782.9251     0.57307E+02 
  68815.1873     0.58363E+02 
  68847.4494     0.59435E+02 
  68879.7116     0.60525E+02 
  68911.9738     0.61631E+02 
  68944.2359     0.62756E+02 
  68976.4981     0.63897E+02 
  69008.7602     0.65056E+02 
  69041.0224     0.66234E+02 
  69073.2846     0.67430E+02 
  69105.5467     0.68644E+02 
  69137.8089     0.69876E+02 
  69170.0710     0.71128E+02 
  69202.3332     0.72399E+02 
  69234.5954     0.73690E+02 
  69266.8575     0.75000E+02 
  69299.1197     0.76330E+02 
  69331.3818     0.77680E+02 
  69363.6440     0.79050E+02 
  69395.9062     0.80441E+02 
  69428.1683     0.81853E+02 
  69460.4305     0.83286E+02 
  69492.6926     0.84741E+02 
  69524.9548     0.86217E+02 
  69557.2170     0.87715E+02 
  69589.4791     0.89235E+02 
  69621.7413     0.90777E+02 
  69654.0034     0.92342E+02 
  69686.2656     0.93930E+02 
  69718.5278     0.95542E+02 
  69750.7899     0.97176E+02 
  69783.0521     0.98835E+02 
  69815.3142     0.10052E+03 
  69847.5764     0.10222E+03 
  69879.8386     0.10395E+03 
  69912.1007     0.10571E+03 
  69944.3629     0.10749E+03 
  69976.6250     0.10930E+03 
  70008.8872     0.11113E+03 
  70041.1494     0.11299E+03 
  70073.4115     0.11487E+03 
  70105.6737     0.11678E+03 
  70137.9358     0.11872E+03 
  70170.1980     0.12068E+03 
  70202.4602     0.12267E+03 
  70234.7223     0.12469E+03 
  70266.9845     0.12674E+03 
  70299.2466     0.12881E+03 
  70331.5088     0.13091E+03 
  70363.7710     0.13304E+03 
  70396.0331     0.13520E+03 
  70428.2953     0.13739E+03 
  70460.5574     0.13961E+03 
  70492.8196     0.14186E+03 
  70525.0818     0.14414E+03 
  70557.3439     0.14645E+03 
  70589.6061     0.14879E+03 
  70621.8682     0.15116E+03 
  70654.1304     0.15356E+03 
  70686.3926     0.15600E+03 
  70718.6547     0.15846E+03 
  70750.9169     0.16096E+03 
  70783.1790     0.16349E+03 
  70815.4412     0.16605E+03 
  70847.7034     0.16865E+03 
  70879.9655     0.17127E+03 
  70912.2277     0.17394E+03 
  70944.4898     0.17663E+03 
  70976.7520     0.17936E+03 
  71009.0142     0.18213E+03 
  71041.2763     0.18493E+03 
  71073.5385     0.18776E+03 
  71105.8006     0.19063E+03 
  71138.0628     0.19354E+03 
  71170.3250     0.19648E+03 
  71202.5871     0.19945E+03 
  71234.8493     0.20247E+03 
  71267.1114     0.20552E+03 
  71299.3736     0.20861E+03 
  71331.6358     0.21173E+03 
  71363.8979     0.21489E+03 
  71396.1601     0.21809E+03 
  71428.4222     0.22133E+03 
  71460.6844     0.22461E+03 
  71492.9466     0.22792E+03 
  71525.2087     0.23128E+03 
  71557.4709     0.23467E+03 
  71589.7330     0.23811E+03 
  71621.9952     0.24158E+03 
  71654.2574     0.24509E+03 
  71686.5195     0.24865E+03 
  71718.7817     0.25224E+03 
  71751.0438     0.25588E+03 
  71783.3060     0.25955E+03 
  71815.5682     0.26327E+03 
  71847.8303     0.26703E+03 
  71880.0925     0.27083E+03 
  71912.3546     0.27468E+03 
  71944.6168     0.27856E+03 
  71976.8790     0.28249E+03 
  72009.1411     0.28646E+03 
  72041.4033     0.29048E+03 
  72073.6654     0.29454E+03 
  72105.9276     0.29864E+03 
  72138.1898     0.30279E+03 
  72170.4519     0.30698E+03 
  72202.7141     0.31122E+03 
  72234.9762     0.31550E+03 
  72267.2384     0.31982E+03 
  72299.5006     0.32419E+03 
  72331.7627     0.32861E+03 
  72364.0249     0.33307E+03 
  72396.2870     0.33758E+03 
  72428.5492     0.34213E+03 
  72460.8114     0.34673E+03 
  72493.0735     0.35138E+03 
  72525.3357     0.35607E+03 
  72557.5978     0.36081E+03 
  72589.8600     0.36560E+03 
