  32262.1600     0.18158E-04 
  32294.4222     0.18391E-04 
  32326.6843     0.18626E-04 
  32358.9465     0.18863E-04 
  32391.2086     0.19102E-04 
  32423.4708     0.19343E-04 
  32455.7330     0.19586E-04 
  32487.9951     0.19831E-04 
  32520.2573     0.20079E-04 
  32552.5194     0.20328E-04 
  32584.7816     0.20579E-04 
  32617.0438     0.20833E-04 
  32649.3059     0.21089E-04 
  32681.5681     0.21346E-04 
  32713.8302     0.21606E-04 
  32746.0924     0.21868E-04 
  32778.3546     0.22132E-04 
  32810.6167     0.22398E-04 
  32842.8789     0.22667E-04 
  32875.1410     0.22937E-04 
  32907.4032     0.23210E-04 
  32939.6654     0.23484E-04 
  32971.9275     0.23761E-04 
  33004.1897     0.24039E-04 
  33036.4518     0.24320E-04 
  33068.7140     0.24603E-04 
  33100.9762     0.24888E-04 
  33133.2383     0.25175E-04 
  33165.5005     0.25464E-04 
  33197.7626     0.25755E-04 
  33230.0248     0.26049E-04 
  33262.2870     0.26344E-04 
  33294.5491     0.26642E-04 
  33326.8113     0.26941E-04 
  33359.0734     0.27243E-04 
  33391.3356     0.27546E-04 
  33423.5978     0.27852E-04 
  33455.8599     0.28160E-04 
  33488.1221     0.28469E-04 
  33520.3842     0.28781E-04 
  33552.6464     0.29095E-04 
  33584.9086     0.29411E-04 
  33617.1707     0.29729E-04 
  33649.4329     0.30048E-04 
  33681.6950     0.30370E-04 
  33713.9572     0.30694E-04 
  33746.2194     0.31020E-04 
  33778.4815     0.31348E-04 
  33810.7437     0.31677E-04 
  33843.0058     0.32009E-04 
  33875.2680     0.32343E-04 
  33907.5302     0.32678E-04 
  33939.7923     0.33016E-04 
  33972.0545     0.33355E-04 
  34004.3166     0.33696E-04 
  34036.5788     0.34039E-04 
  34068.8410     0.34384E-04 
  34101.1031     0.34731E-04 
  34133.3653     0.35080E-04 
  34165.6274     0.35431E-04 
  34197.8896     0.35783E-04 
  34230.1518     0.36138E-04 
  34262.4139     0.36494E-04 
  34294.6761     0.36851E-04 
  34326.9382     0.37211E-04 
  34359.2004     0.37573E-04 
  34391.4626     0.37936E-04 
  34423.7247     0.38301E-04 
  34455.9869     0.38667E-04 
  34488.2490     0.39036E-04 
  34520.5112     0.39406E-04 
  34552.7734     0.39777E-04 
  34585.0355     0.40151E-04 
  34617.2977     0.40525E-04 
  34649.5598     0.40902E-04 
  34681.8220     0.41280E-04 
  34714.0842     0.41660E-04 
  34746.3463     0.42041E-04 
  34778.6085     0.42424E-04 
  34810.8706     0.42809E-04 
  34843.1328     0.43195E-04 
  34875.3950     0.43582E-04 
  34907.6571     0.43971E-04 
  34939.9193     0.44361E-04 
  34972.1814     0.44753E-04 
  35004.4436     0.45146E-04 
  35036.7058     0.45541E-04 
  35068.9679     0.45937E-04 
  35101.2301     0.46334E-04 
  35133.4922     0.46733E-04 
  35165.7544     0.47133E-04 
  35198.0166     0.47534E-04 
  35230.2787     0.47936E-04 
  35262.5409     0.48340E-04 
  35294.8030     0.48745E-04 
  35327.0652     0.49151E-04 
  35359.3274     0.49558E-04 
  35391.5895     0.49967E-04 
  35423.8517     0.50376E-04 
  35456.1138     0.50787E-04 
  35488.3760     0.51199E-04 
  35520.6382     0.51611E-04 
  35552.9003     0.52025E-04 
  35585.1625     0.52440E-04 
  35617.4246     0.52856E-04 
  35649.6868     0.53272E-04 
  35681.9490     0.53690E-04 
  35714.2111     0.54109E-04 
  35746.4733     0.54528E-04 
  35778.7354     0.54948E-04 
  35810.9976     0.55369E-04 
  35843.2598     0.55791E-04 
  35875.5219     0.56214E-04 
  35907.7841     0.56637E-04 
  35940.0462     0.57061E-04 
  35972.3084     0.57486E-04 
  36004.5706     0.57911E-04 
  36036.8327     0.58337E-04 
  36069.0949     0.58763E-04 
  36101.3570     0.59190E-04 
  36133.6192     0.59618E-04 
  36165.8814     0.60046E-04 
  36198.1435     0.60475E-04 
  36230.4057     0.60904E-04 
  36262.6678     0.61333E-04 
  36294.9300     0.61763E-04 
  36327.1922     0.62193E-04 
  36359.4543     0.62624E-04 
  36391.7165     0.63055E-04 
  36423.9786     0.63486E-04 
  36456.2408     0.63917E-04 
  36488.5030     0.64348E-04 
  36520.7651     0.64780E-04 
  36553.0273     0.65212E-04 
  36585.2894     0.65644E-04 
  36617.5516     0.66075E-04 
  36649.8138     0.66507E-04 
  36682.0759     0.66939E-04 
  36714.3381     0.67371E-04 
  36746.6002     0.67803E-04 
  36778.8624     0.68235E-04 
  36811.1246     0.68667E-04 
  36843.3867     0.69098E-04 
  36875.6489     0.69530E-04 
  36907.9110     0.69961E-04 
  36940.1732     0.70392E-04 
  36972.4354     0.70822E-04 
  37004.6975     0.71253E-04 
  37036.9597     0.71683E-04 
  37069.2218     0.72112E-04 
  37101.4840     0.72541E-04 
  37133.7462     0.72970E-04 
  37166.0083     0.73398E-04 
  37198.2705     0.73826E-04 
  37230.5326     0.74253E-04 
  37262.7948     0.74680E-04 
  37295.0570     0.75106E-04 
  37327.3191     0.75531E-04 
  37359.5813     0.75956E-04 
  37391.8434     0.76380E-04 
  37424.1056     0.76803E-04 
  37456.3678     0.77225E-04 
  37488.6299     0.77647E-04 
  37520.8921     0.78067E-04 
  37553.1542     0.78487E-04 
  37585.4164     0.78906E-04 
  37617.6786     0.79324E-04 
  37649.9407     0.79741E-04 
  37682.2029     0.80157E-04 
  37714.4650     0.80572E-04 
  37746.7272     0.80986E-04 
  37778.9894     0.81399E-04 
  37811.2515     0.81811E-04 
  37843.5137     0.82221E-04 
  37875.7758     0.82630E-04 
  37908.0380     0.83038E-04 
  37940.3002     0.83445E-04 
  37972.5623     0.83850E-04 
  38004.8245     0.84254E-04 
  38037.0866     0.84657E-04 
  38069.3488     0.85058E-04 
  38101.6110     0.85458E-04 
  38133.8731     0.85857E-04 
  38166.1353     0.86253E-04 
  38198.3974     0.86649E-04 
  38230.6596     0.87043E-04 
  38262.9218     0.87435E-04 
  38295.1839     0.87825E-04 
  38327.4461     0.88214E-04 
  38359.7082     0.88601E-04 
  38391.9704     0.88987E-04 
  38424.2326     0.89370E-04 
  38456.4947     0.89752E-04 
  38488.7569     0.90132E-04 
  38521.0190     0.90511E-04 
  38553.2812     0.90887E-04 
  38585.5434     0.91261E-04 
  38617.8055     0.91634E-04 
  38650.0677     0.92004E-04 
  38682.3298     0.92373E-04 
  38714.5920     0.92739E-04 
  38746.8542     0.93104E-04 
  38779.1163     0.93466E-04 
  38811.3785     0.93826E-04 
  38843.6406     0.94184E-04 
  38875.9028     0.94540E-04 
  38908.1650     0.94894E-04 
  38940.4271     0.95245E-04 
  38972.6893     0.95595E-04 
  39004.9514     0.95942E-04 
  39037.2136     0.96286E-04 
  39069.4758     0.96628E-04 
  39101.7379     0.96968E-04 
  39134.0001     0.97306E-04 
  39166.2622     0.97641E-04 
  39198.5244     0.97973E-04 
  39230.7866     0.98303E-04 
  39263.0487     0.98631E-04 
  39295.3109     0.98956E-04 
  39327.5730     0.99279E-04 
  39359.8352     0.99599E-04 
  39392.0974     0.99916E-04 
  39424.3595     0.10023E-03 
  39456.6217     0.10054E-03 
  39488.8838     0.10085E-03 
  39521.1460     0.10116E-03 
  39553.4082     0.10146E-03 
  39585.6703     0.10176E-03 
  39617.9325     0.10206E-03 
  39650.1946     0.10236E-03 
  39682.4568     0.10265E-03 
  39714.7190     0.10294E-03 
  39746.9811     0.10323E-03 
  39779.2433     0.10351E-03 
  39811.5054     0.10379E-03 
  39843.7676     0.10407E-03 
  39876.0298     0.10435E-03 
  39908.2919     0.10462E-03 
  39940.5541     0.10489E-03 
  39972.8162     0.10515E-03 
  40005.0784     0.10542E-03 
  40037.3406     0.10568E-03 
  40069.6027     0.10594E-03 
  40101.8649     0.10619E-03 
  40134.1270     0.10644E-03 
  40166.3892     0.10669E-03 
  40198.6514     0.10693E-03 
  40230.9135     0.10718E-03 
  40263.1757     0.10741E-03 
  40295.4378     0.10765E-03 
  40327.7000     0.10788E-03 
  40359.9622     0.10811E-03 
  40392.2243     0.10834E-03 
  40424.4865     0.10856E-03 
  40456.7486     0.10878E-03 
  40489.0108     0.10899E-03 
  40521.2730     0.10921E-03 
  40553.5351     0.10941E-03 
  40585.7973     0.10962E-03 
  40618.0594     0.10982E-03 
  40650.3216     0.11002E-03 
  40682.5838     0.11022E-03 
  40714.8459     0.11041E-03 
  40747.1081     0.11060E-03 
  40779.3702     0.11078E-03 
  40811.6324     0.11097E-03 
  40843.8946     0.11115E-03 
  40876.1567     0.11132E-03 
  40908.4189     0.11149E-03 
  40940.6810     0.11166E-03 
  40972.9432     0.11183E-03 
  41005.2054     0.11199E-03 
  41037.4675     0.11215E-03 
  41069.7297     0.11230E-03 
  41101.9918     0.11245E-03 
  41134.2540     0.11260E-03 
  41166.5162     0.11274E-03 
  41198.7783     0.11288E-03 
  41231.0405     0.11302E-03 
  41263.3026     0.11315E-03 
  41295.5648     0.11328E-03 
  41327.8270     0.11341E-03 
  41360.0891     0.11353E-03 
  41392.3513     0.11365E-03 
  41424.6134     0.11377E-03 
  41456.8756     0.11388E-03 
  41489.1378     0.11399E-03 
  41521.3999     0.11409E-03 
  41553.6621     0.11419E-03 
  41585.9242     0.11429E-03 
  41618.1864     0.11439E-03 
  41650.4486     0.11448E-03 
  41682.7107     0.11456E-03 
  41714.9729     0.11465E-03 
  41747.2350     0.11473E-03 
  41779.4972     0.11480E-03 
  41811.7594     0.11488E-03 
  41844.0215     0.11495E-03 
  41876.2837     0.11501E-03 
  41908.5458     0.11507E-03 
  41940.8080     0.11513E-03 
  41973.0702     0.11519E-03 
  42005.3323     0.11524E-03 
  42037.5945     0.11529E-03 
  42069.8566     0.11533E-03 
  42102.1188     0.11537E-03 
  42134.3810     0.11541E-03 
  42166.6431     0.11544E-03 
  42198.9053     0.11547E-03 
  42231.1674     0.11550E-03 
  42263.4296     0.11552E-03 
  42295.6918     0.11554E-03 
  42327.9539     0.11555E-03 
  42360.2161     0.11557E-03 
  42392.4782     0.11557E-03 
  42424.7404     0.11558E-03 
  42457.0026     0.11558E-03 
  42489.2647     0.11558E-03 
  42521.5269     0.11557E-03 
  42553.7890     0.11556E-03 
  42586.0512     0.11555E-03 
  42618.3134     0.11553E-03 
  42650.5755     0.11552E-03 
  42682.8377     0.11549E-03 
  42715.0998     0.11547E-03 
  42747.3620     0.11544E-03 
  42779.6242     0.11540E-03 
  42811.8863     0.11537E-03 
  42844.1485     0.11533E-03 
  42876.4106     0.11528E-03 
  42908.6728     0.11523E-03 
  42940.9350     0.11518E-03 
  42973.1971     0.11513E-03 
  43005.4593     0.11507E-03 
  43037.7214     0.11501E-03 
  43069.9836     0.11495E-03 
  43102.2458     0.11488E-03 
  43134.5079     0.11481E-03 
  43166.7701     0.11474E-03 
  43199.0322     0.11466E-03 
  43231.2944     0.11458E-03 
  43263.5566     0.11449E-03 
  43295.8187     0.11441E-03 
  43328.0809     0.11432E-03 
  43360.3430     0.11422E-03 
  43392.6052     0.11413E-03 
  43424.8674     0.11403E-03 
  43457.1295     0.11392E-03 
  43489.3917     0.11382E-03 
  43521.6538     0.11371E-03 
  43553.9160     0.11359E-03 
  43586.1782     0.11348E-03 
  43618.4403     0.11336E-03 
  43650.7025     0.11324E-03 
  43682.9646     0.11311E-03 
  43715.2268     0.11298E-03 
  43747.4890     0.11285E-03 
  43779.7511     0.11272E-03 
  43812.0133     0.11258E-03 
  43844.2754     0.11244E-03 
  43876.5376     0.11230E-03 
  43908.7998     0.11215E-03 
  43941.0619     0.11200E-03 
  43973.3241     0.11185E-03 
  44005.5862     0.11170E-03 
  44037.8484     0.11154E-03 
  44070.1106     0.11138E-03 
  44102.3727     0.11121E-03 
  44134.6349     0.11105E-03 
  44166.8970     0.11088E-03 
  44199.1592     0.11071E-03 
  44231.4214     0.11053E-03 
  44263.6835     0.11035E-03 
  44295.9457     0.11017E-03 
  44328.2078     0.10999E-03 
  44360.4700     0.10980E-03 
  44392.7322     0.10962E-03 
  44424.9943     0.10942E-03 
  44457.2565     0.10923E-03 
  44489.5186     0.10903E-03 
  44521.7808     0.10884E-03 
  44554.0430     0.10863E-03 
  44586.3051     0.10843E-03 
  44618.5673     0.10822E-03 
  44650.8294     0.10801E-03 
  44683.0916     0.10780E-03 
  44715.3538     0.10759E-03 
  44747.6159     0.10737E-03 
  44779.8781     0.10715E-03 
  44812.1402     0.10693E-03 
  44844.4024     0.10671E-03 
  44876.6646     0.10648E-03 
  44908.9267     0.10625E-03 
  44941.1889     0.10602E-03 
  44973.4510     0.10579E-03 
  45005.7132     0.10555E-03 
  45037.9754     0.10532E-03 
  45070.2375     0.10508E-03 
  45102.4997     0.10483E-03 
  45134.7618     0.10459E-03 
  45167.0240     0.10434E-03 
  45199.2862     0.10410E-03 
  45231.5483     0.10384E-03 
  45263.8105     0.10359E-03 
  45296.0726     0.10334E-03 
  45328.3348     0.10308E-03 
  45360.5970     0.10282E-03 
  45392.8591     0.10256E-03 
  45425.1213     0.10230E-03 
  45457.3834     0.10203E-03 
  45489.6456     0.10177E-03 
  45521.9078     0.10150E-03 
  45554.1699     0.10123E-03 
  45586.4321     0.10096E-03 
  45618.6942     0.10068E-03 
  45650.9564     0.10040E-03 
  45683.2186     0.10013E-03 
  45715.4807     0.99848E-04 
  45747.7429     0.99566E-04 
  45780.0050     0.99283E-04 
  45812.2672     0.98999E-04 
  45844.5294     0.98712E-04 
  45876.7915     0.98424E-04 
  45909.0537     0.98134E-04 
  45941.3158     0.97843E-04 
  45973.5780     0.97550E-04 
  46005.8402     0.97256E-04 
  46038.1023     0.96960E-04 
  46070.3645     0.96663E-04 
  46102.6266     0.96364E-04 
  46134.8888     0.96063E-04 
  46167.1510     0.95761E-04 
  46199.4131     0.95458E-04 
  46231.6753     0.95153E-04 
  46263.9374     0.94847E-04 
  46296.1996     0.94540E-04 
  46328.4618     0.94231E-04 
  46360.7239     0.93921E-04 
  46392.9861     0.93610E-04 
  46425.2482     0.93298E-04 
  46457.5104     0.92984E-04 
  46489.7726     0.92669E-04 
  46522.0347     0.92353E-04 
  46554.2969     0.92036E-04 
  46586.5590     0.91717E-04 
  46618.8212     0.91398E-04 
  46651.0834     0.91077E-04 
  46683.3455     0.90755E-04 
  46715.6077     0.90433E-04 
  46747.8698     0.90109E-04 
  46780.1320     0.89784E-04 
  46812.3942     0.89458E-04 
  46844.6563     0.89132E-04 
  46876.9185     0.88804E-04 
  46909.1806     0.88475E-04 
  46941.4428     0.88146E-04 
  46973.7050     0.87816E-04 
  47005.9671     0.87484E-04 
  47038.2293     0.87152E-04 
  47070.4914     0.86820E-04 
  47102.7536     0.86486E-04 
  47135.0158     0.86152E-04 
  47167.2779     0.85817E-04 
  47199.5401     0.85481E-04 
  47231.8022     0.85145E-04 
  47264.0644     0.84807E-04 
  47296.3266     0.84470E-04 
  47328.5887     0.84131E-04 
  47360.8509     0.83792E-04 
  47393.1130     0.83453E-04 
  47425.3752     0.83113E-04 
  47457.6374     0.82772E-04 
  47489.8995     0.82431E-04 
  47522.1617     0.82089E-04 
  47554.4238     0.81747E-04 
  47586.6860     0.81404E-04 
  47618.9482     0.81061E-04 
  47651.2103     0.80717E-04 
  47683.4725     0.80374E-04 
  47715.7346     0.80029E-04 
  47747.9968     0.79685E-04 
  47780.2590     0.79340E-04 
  47812.5211     0.78994E-04 
  47844.7833     0.78649E-04 
  47877.0454     0.78303E-04 
  47909.3076     0.77957E-04 
  47941.5698     0.77610E-04 
  47973.8319     0.77264E-04 
  48006.0941     0.76917E-04 
  48038.3562     0.76570E-04 
  48070.6184     0.76223E-04 
  48102.8806     0.75875E-04 
  48135.1427     0.75528E-04 
  48167.4049     0.75180E-04 
  48199.6670     0.74833E-04 
  48231.9292     0.74485E-04 
  48264.1914     0.74137E-04 
  48296.4535     0.73789E-04 
  48328.7157     0.73441E-04 
  48360.9778     0.73093E-04 
  48393.2400     0.72746E-04 
  48425.5022     0.72398E-04 
  48457.7643     0.72050E-04 
  48490.0265     0.71702E-04 
  48522.2886     0.71355E-04 
  48554.5508     0.71007E-04 
  48586.8130     0.70660E-04 
  48619.0751     0.70313E-04 
  48651.3373     0.69966E-04 
  48683.5994     0.69619E-04 
  48715.8616     0.69272E-04 
  48748.1238     0.68925E-04 
  48780.3859     0.68579E-04 
  48812.6481     0.68233E-04 
  48844.9102     0.67887E-04 
  48877.1724     0.67542E-04 
  48909.4346     0.67196E-04 
  48941.6967     0.66851E-04 
  48973.9589     0.66507E-04 
  49006.2210     0.66162E-04 
  49038.4832     0.65818E-04 
  49070.7454     0.65474E-04 
  49103.0075     0.65131E-04 
  49135.2697     0.64788E-04 
  49167.5318     0.64446E-04 
  49199.7940     0.64103E-04 
  49232.0562     0.63762E-04 
  49264.3183     0.63421E-04 
  49296.5805     0.63080E-04 
  49328.8426     0.62739E-04 
  49361.1048     0.62399E-04 
  49393.3670     0.62060E-04 
  49425.6291     0.61721E-04 
  49457.8913     0.61383E-04 
  49490.1534     0.61045E-04 
  49522.4156     0.60708E-04 
  49554.6778     0.60371E-04 
  49586.9399     0.60035E-04 
  49619.2021     0.59699E-04 
  49651.4642     0.59364E-04 
  49683.7264     0.59030E-04 
  49715.9886     0.58696E-04 
  49748.2507     0.58363E-04 
  49780.5129     0.58030E-04 
  49812.7750     0.57699E-04 
  49845.0372     0.57367E-04 
  49877.2994     0.57037E-04 
  49909.5615     0.56707E-04 
  49941.8237     0.56378E-04 
  49974.0858     0.56050E-04 
  50006.3480     0.55722E-04 
  50038.6102     0.55395E-04 
  50070.8723     0.55069E-04 
  50103.1345     0.54743E-04 
  50135.3966     0.54418E-04 
  50167.6588     0.54094E-04 
  50199.9210     0.53771E-04 
  50232.1831     0.53449E-04 
  50264.4453     0.53127E-04 
  50296.7074     0.52806E-04 
  50328.9696     0.52486E-04 
  50361.2318     0.52167E-04 
  50393.4939     0.51849E-04 
  50425.7561     0.51531E-04 
  50458.0182     0.51215E-04 
  50490.2804     0.50899E-04 
  50522.5426     0.50584E-04 
  50554.8047     0.50270E-04 
  50587.0669     0.49957E-04 
  50619.3290     0.49645E-04 
  50651.5912     0.49333E-04 
  50683.8534     0.49023E-04 
  50716.1155     0.48713E-04 
  50748.3777     0.48405E-04 
  50780.6398     0.48097E-04 
  50812.9020     0.47790E-04 
  50845.1642     0.47484E-04 
  50877.4263     0.47179E-04 
  50909.6885     0.46876E-04 
  50941.9506     0.46573E-04 
  50974.2128     0.46271E-04 
  51006.4750     0.45970E-04 
  51038.7371     0.45670E-04 
  51070.9993     0.45371E-04 
  51103.2614     0.45073E-04 
  51135.5236     0.44776E-04 
  51167.7858     0.44479E-04 
  51200.0479     0.44184E-04 
  51232.3101     0.43890E-04 
  51264.5722     0.43597E-04 
  51296.8344     0.43306E-04 
  51329.0966     0.43015E-04 
  51361.3587     0.42725E-04 
  51393.6209     0.42436E-04 
  51425.8830     0.42148E-04 
  51458.1452     0.41861E-04 
  51490.4074     0.41576E-04 
  51522.6695     0.41291E-04 
  51554.9317     0.41008E-04 
  51587.1938     0.40725E-04 
  51619.4560     0.40444E-04 
  51651.7182     0.40163E-04 
  51683.9803     0.39884E-04 
  51716.2425     0.39606E-04 
  51748.5046     0.39329E-04 
  51780.7668     0.39053E-04 
  51813.0290     0.38778E-04 
  51845.2911     0.38504E-04 
  51877.5533     0.38232E-04 
  51909.8154     0.37960E-04 
  51942.0776     0.37689E-04 
  51974.3398     0.37420E-04 
  52006.6019     0.37152E-04 
  52038.8641     0.36885E-04 
  52071.1262     0.36619E-04 
  52103.3884     0.36354E-04 
  52135.6506     0.36090E-04 
  52167.9127     0.35827E-04 
  52200.1749     0.35566E-04 
  52232.4370     0.35306E-04 
  52264.6992     0.35046E-04 
  52296.9614     0.34788E-04 
  52329.2235     0.34531E-04 
  52361.4857     0.34276E-04 
  52393.7478     0.34021E-04 
  52426.0100     0.33767E-04 
  52458.2722     0.33515E-04 
  52490.5343     0.33264E-04 
  52522.7965     0.33014E-04 
  52555.0586     0.32765E-04 
  52587.3208     0.32517E-04 
  52619.5830     0.32270E-04 
  52651.8451     0.32025E-04 
  52684.1073     0.31780E-04 
  52716.3694     0.31537E-04 
  52748.6316     0.31295E-04 
  52780.8938     0.31054E-04 
  52813.1559     0.30814E-04 
  52845.4181     0.30576E-04 
  52877.6802     0.30338E-04 
  52909.9424     0.30102E-04 
  52942.2046     0.29867E-04 
  52974.4667     0.29633E-04 
  53006.7289     0.29400E-04 
  53038.9910     0.29168E-04 
  53071.2532     0.28938E-04 
  53103.5154     0.28708E-04 
  53135.7775     0.28480E-04 
  53168.0397     0.28253E-04 
  53200.3018     0.28027E-04 
  53232.5640     0.27802E-04 
  53264.8262     0.27579E-04 
  53297.0883     0.27356E-04 
  53329.3505     0.27135E-04 
  53361.6126     0.26915E-04 
  53393.8748     0.26696E-04 
  53426.1370     0.26478E-04 
  53458.3991     0.26261E-04 
  53490.6613     0.26046E-04 
  53522.9234     0.25831E-04 
  53555.1856     0.25618E-04 
  53587.4478     0.25406E-04 
  53619.7099     0.25195E-04 
  53651.9721     0.24985E-04 
  53684.2342     0.24776E-04 
  53716.4964     0.24569E-04 
  53748.7586     0.24362E-04 
  53781.0207     0.24157E-04 
  53813.2829     0.23953E-04 
  53845.5450     0.23750E-04 
  53877.8072     0.23548E-04 
  53910.0694     0.23347E-04 
  53942.3315     0.23147E-04 
  53974.5937     0.22949E-04 
  54006.8558     0.22751E-04 
  54039.1180     0.22555E-04 
  54071.3802     0.22360E-04 
  54103.6423     0.22166E-04 
  54135.9045     0.21973E-04 
  54168.1666     0.21781E-04 
  54200.4288     0.21590E-04 
  54232.6910     0.21400E-04 
  54264.9531     0.21212E-04 
  54297.2153     0.21024E-04 
  54329.4774     0.20838E-04 
  54361.7396     0.20653E-04 
  54394.0018     0.20469E-04 
  54426.2639     0.20286E-04 
  54458.5261     0.20104E-04 
  54490.7882     0.19923E-04 
  54523.0504     0.19743E-04 
  54555.3126     0.19564E-04 
  54587.5747     0.19386E-04 
  54619.8369     0.19210E-04 
  54652.0990     0.19034E-04 
  54684.3612     0.18860E-04 
  54716.6234     0.18686E-04 
  54748.8855     0.18514E-04 
  54781.1477     0.18343E-04 
  54813.4098     0.18173E-04 
  54845.6720     0.18003E-04 
  54877.9342     0.17835E-04 
  54910.1963     0.17668E-04 
  54942.4585     0.17502E-04 
  54974.7206     0.17337E-04 
  55006.9828     0.17173E-04 
  55039.2450     0.17010E-04 
  55071.5071     0.16848E-04 
  55103.7693     0.16688E-04 
  55136.0314     0.16528E-04 
  55168.2936     0.16369E-04 
  55200.5558     0.16211E-04 
  55232.8179     0.16054E-04 
  55265.0801     0.15898E-04 
  55297.3422     0.15744E-04 
  55329.6044     0.15590E-04 
  55361.8666     0.15437E-04 
  55394.1287     0.15285E-04 
  55426.3909     0.15135E-04 
  55458.6530     0.14985E-04 
  55490.9152     0.14836E-04 
  55523.1774     0.14688E-04 
  55555.4395     0.14541E-04 
  55587.7017     0.14395E-04 
  55619.9638     0.14251E-04 
  55652.2260     0.14107E-04 
  55684.4882     0.13964E-04 
  55716.7503     0.13822E-04 
  55749.0125     0.13681E-04 
  55781.2746     0.13541E-04 
  55813.5368     0.13401E-04 
  55845.7990     0.13263E-04 
  55878.0611     0.13126E-04 
  55910.3233     0.12990E-04 
  55942.5854     0.12854E-04 
  55974.8476     0.12720E-04 
  56007.1098     0.12586E-04 
  56039.3719     0.12454E-04 
  56071.6341     0.12322E-04 
  56103.8962     0.12191E-04 
  56136.1584     0.12061E-04 
  56168.4206     0.11932E-04 
  56200.6827     0.11804E-04 
  56232.9449     0.11677E-04 
  56265.2070     0.11551E-04 
  56297.4692     0.11426E-04 
  56329.7314     0.11301E-04 
  56361.9935     0.11178E-04 
  56394.2557     0.11055E-04 
  56426.5178     0.10933E-04 
  56458.7800     0.10812E-04 
  56491.0422     0.10692E-04 
  56523.3043     0.10573E-04 
  56555.5665     0.10454E-04 
  56587.8286     0.10337E-04 
  56620.0908     0.10220E-04 
  56652.3530     0.10105E-04 
  56684.6151     0.99896E-05 
  56716.8773     0.98755E-05 
  56749.1394     0.97623E-05 
  56781.4016     0.96498E-05 
  56813.6638     0.95382E-05 
  56845.9259     0.94275E-05 
  56878.1881     0.93176E-05 
  56910.4502     0.92084E-05 
  56942.7124     0.91001E-05 
  56974.9746     0.89927E-05 
  57007.2367     0.88860E-05 
  57039.4989     0.87801E-05 
  57071.7610     0.86750E-05 
  57104.0232     0.85708E-05 
  57136.2854     0.84673E-05 
  57168.5475     0.83646E-05 
  57200.8097     0.82627E-05 
  57233.0718     0.81616E-05 
  57265.3340     0.80613E-05 
  57297.5962     0.79617E-05 
  57329.8583     0.78629E-05 
  57362.1205     0.77649E-05 
  57394.3826     0.76676E-05 
  57426.6448     0.75711E-05 
  57458.9070     0.74754E-05 
  57491.1691     0.73804E-05 
  57523.4313     0.72862E-05 
  57555.6934     0.71927E-05 
  57587.9556     0.71000E-05 
  57620.2178     0.70079E-05 
  57652.4799     0.69167E-05 
  57684.7421     0.68261E-05 
  57717.0042     0.67363E-05 
  57749.2664     0.66473E-05 
  57781.5286     0.65589E-05 
  57813.7907     0.64712E-05 
  57846.0529     0.63843E-05 
  57878.3150     0.62981E-05 
  57910.5772     0.62126E-05 
  57942.8394     0.61278E-05 
  57975.1015     0.60437E-05 
  58007.3637     0.59603E-05 
  58039.6258     0.58776E-05 
  58071.8880     0.57956E-05 
  58104.1502     0.57142E-05 
  58136.4123     0.56336E-05 
  58168.6745     0.55536E-05 
  58200.9366     0.54744E-05 
  58233.1988     0.53957E-05 
  58265.4610     0.53178E-05 
  58297.7231     0.52405E-05 
  58329.9853     0.51639E-05 
  58362.2474     0.50880E-05 
  58394.5096     0.50127E-05 
  58426.7718     0.49381E-05 
  58459.0339     0.48641E-05 
  58491.2961     0.47908E-05 
  58523.5582     0.47182E-05 
  58555.8204     0.46461E-05 
  58588.0826     0.45747E-05 
  58620.3447     0.45040E-05 
  58652.6069     0.44339E-05 
  58684.8690     0.43644E-05 
  58717.1312     0.42956E-05 
  58749.3934     0.42274E-05 
  58781.6555     0.41598E-05 
  58813.9177     0.40928E-05 
  58846.1798     0.40265E-05 
  58878.4420     0.39607E-05 
  58910.7042     0.38956E-05 
  58942.9663     0.38311E-05 
  58975.2285     0.37672E-05 
  59007.4906     0.37039E-05 
  59039.7528     0.36412E-05 
  59072.0150     0.35791E-05 
  59104.2771     0.35176E-05 
  59136.5393     0.34568E-05 
  59168.8014     0.33965E-05 
  59201.0636     0.33368E-05 
  59233.3258     0.32776E-05 
  59265.5879     0.32191E-05 
  59297.8501     0.31612E-05 
  59330.1122     0.31038E-05 
  59362.3744     0.30470E-05 
  59394.6366     0.29909E-05 
  59426.8987     0.29352E-05 
  59459.1609     0.28802E-05 
  59491.4230     0.28257E-05 
  59523.6852     0.27718E-05 
  59555.9474     0.27185E-05 
  59588.2095     0.26657E-05 
  59620.4717     0.26135E-05 
  59652.7338     0.25619E-05 
  59684.9960     0.25108E-05 
  59717.2582     0.24603E-05 
  59749.5203     0.24103E-05 
  59781.7825     0.23609E-05 
  59814.0446     0.23121E-05 
  59846.3068     0.22638E-05 
  59878.5690     0.22161E-05 
  59910.8311     0.21689E-05 
  59943.0933     0.21223E-05 
  59975.3554     0.20762E-05 
  60007.6176     0.20306E-05 
  60039.8798     0.19856E-05 
  60072.1419     0.19412E-05 
  60104.4041     0.18973E-05 
  60136.6662     0.18539E-05 
  60168.9284     0.18111E-05 
  60201.1906     0.17688E-05 
  60233.4527     0.17271E-05 
  60265.7149     0.16859E-05 
  60297.9770     0.16452E-05 
  60330.2392     0.16051E-05 
  60362.5014     0.15655E-05 
  60394.7635     0.15264E-05 
  60427.0257     0.14879E-05 
  60459.2878     0.14499E-05 
  60491.5500     0.14125E-05 
  60523.8122     0.13756E-05 
  60556.0743     0.13392E-05 
  60588.3365     0.13033E-05 
  60620.5986     0.12680E-05 
  60652.8608     0.12332E-05 
  60685.1230     0.11990E-05 
  60717.3851     0.11653E-05 
  60749.6473     0.11321E-05 
  60781.9094     0.10995E-05 
  60814.1716     0.10673E-05 
  60846.4338     0.10358E-05 
  60878.6959     0.10047E-05 
  60910.9581     0.97421E-06 
  60943.2202     0.94424E-06 
  60975.4824     0.91480E-06 
  61007.7446     0.88590E-06 
  61040.0067     0.85753E-06 
  61072.2689     0.82970E-06 
  61104.5310     0.80242E-06 
  61136.7932     0.77567E-06 
  61169.0554     0.74946E-06 
  61201.3175     0.72380E-06 
  61233.5797     0.69868E-06 
  61265.8418     0.67410E-06 
  61298.1040     0.65007E-06 
  61330.3662     0.62659E-06 
  61362.6283     0.60366E-06 
  61394.8905     0.58127E-06 
  61427.1526     0.55945E-06 
  61459.4148     0.53817E-06 
  61491.6770     0.51745E-06 
  61523.9391     0.49730E-06 
  61556.2013     0.47770E-06 
  61588.4634     0.45866E-06 
  61620.7256     0.44020E-06 
  61652.9878     0.42230E-06 
  61685.2499     0.40497E-06 
  61717.5121     0.38821E-06 
  61749.7742     0.37203E-06 
  61782.0364     0.35643E-06 
  61814.2986     0.34141E-06 
  61846.5607     0.32698E-06 
  61878.8229     0.31314E-06 
  61911.0850     0.29988E-06 
  61943.3472     0.28723E-06 
  61975.6094     0.27517E-06 
  62007.8715     0.26372E-06 
  62040.1337     0.25287E-06 
  62072.3958     0.24264E-06 
  62104.6580     0.23302E-06 
  62136.9202     0.22402E-06 
  62169.1823     0.21564E-06 
  62201.4445     0.20789E-06 
  62233.7066     0.20078E-06 
  62265.9688     0.19430E-06 
  62298.2310     0.18847E-06 
  62330.4931     0.18329E-06 
  62362.7553     0.17876E-06 
  62395.0174     0.17489E-06 
  62427.2796     0.17169E-06 
  62459.5418     0.16915E-06 
  62491.8039     0.16730E-06 
  62524.0661     0.16612E-06 
  62556.3282     0.16564E-06 
  62588.5904     0.16585E-06 
  62620.8526     0.16677E-06 
  62653.1147     0.16839E-06 
  62685.3769     0.17073E-06 
  62717.6390     0.17380E-06 
  62749.9012     0.17759E-06 
  62782.1634     0.18213E-06 
  62814.4255     0.18741E-06 
  62846.6877     0.19345E-06 
  62878.9498     0.20025E-06 
  62911.2120     0.20782E-06 
  62943.4742     0.21617E-06 
  62975.7363     0.22531E-06 
  63007.9985     0.23525E-06 
  63040.2606     0.24599E-06 
  63072.5228     0.25755E-06 
  63104.7850     0.26994E-06 
  63137.0471     0.28317E-06 
  63169.3093     0.29724E-06 
  63201.5714     0.31217E-06 
  63233.8336     0.32797E-06 
  63266.0958     0.34465E-06 
  63298.3579     0.36221E-06 
  63330.6201     0.38068E-06 
  63362.8822     0.40006E-06 
  63395.1444     0.42037E-06 
  63427.4066     0.44162E-06 
  63459.6687     0.46381E-06 
  63491.9309     0.48697E-06 
  63524.1930     0.51111E-06 
  63556.4552     0.53623E-06 
  63588.7174     0.56236E-06 
  63620.9795     0.58951E-06 
  63653.2417     0.61769E-06 
  63685.5038     0.64691E-06 
  63717.7660     0.67720E-06 
  63750.0282     0.70856E-06 
  63782.2903     0.74102E-06 
  63814.5525     0.77458E-06 
  63846.8146     0.80927E-06 
  63879.0768     0.84510E-06 
  63911.3390     0.88209E-06 
  63943.6011     0.92026E-06 
  63975.8633     0.95962E-06 
  64008.1254     0.10002E-05 
  64040.3876     0.10420E-05 
  64072.6498     0.10850E-05 
  64104.9119     0.11294E-05 
  64137.1741     0.11750E-05 
  64169.4362     0.12219E-05 
  64201.6984     0.12701E-05 
  64233.9606     0.13197E-05 
  64266.2227     0.13707E-05 
  64298.4849     0.14230E-05 
  64330.7470     0.14768E-05 
  64363.0092     0.15320E-05 
  64395.2714     0.15887E-05 
  64427.5335     0.16468E-05 
  64459.7957     0.17065E-05 
  64492.0578     0.17676E-05 
  64524.3200     0.18304E-05 
  64556.5822     0.18947E-05 
  64588.8443     0.19607E-05 
  64621.1065     0.20282E-05 
  64653.3686     0.20974E-05 
  64685.6308     0.21684E-05 
  64717.8930     0.22410E-05 
  64750.1551     0.23154E-05 
  64782.4173     0.23915E-05 
  64814.6794     0.24695E-05 
  64846.9416     0.25493E-05 
  64879.2038     0.26309E-05 
  64911.4659     0.27145E-05 
  64943.7281     0.28000E-05 
  64975.9902     0.28874E-05 
  65008.2524     0.29768E-05 
  65040.5146     0.30683E-05 
  65072.7767     0.31618E-05 
  65105.0389     0.32574E-05 
  65137.3010     0.33551E-05 
  65169.5632     0.34550E-05 
  65201.8254     0.35571E-05 
  65234.0875     0.36615E-05 
  65266.3497     0.37681E-05 
  65298.6118     0.38771E-05 
  65330.8740     0.39884E-05 
  65363.1362     0.41021E-05 
  65395.3983     0.42182E-05 
  65427.6605     0.43368E-05 
  65459.9226     0.44579E-05 
  65492.1848     0.45816E-05 
  65524.4470     0.47079E-05 
  65556.7091     0.48369E-05 
  65588.9713     0.49686E-05 
  65621.2334     0.51029E-05 
  65653.4956     0.52401E-05 
  65685.7578     0.53802E-05 
  65718.0199     0.55231E-05 
  65750.2821     0.56689E-05 
  65782.5442     0.58177E-05 
  65814.8064     0.59696E-05 
  65847.0686     0.61246E-05 
  65879.3307     0.62827E-05 
  65911.5929     0.64439E-05 
  65943.8550     0.66085E-05 
  65976.1172     0.67763E-05 
  66008.3794     0.69475E-05 
  66040.6415     0.71221E-05 
  66072.9037     0.73002E-05 
  66105.1658     0.74818E-05 
  66137.4280     0.76670E-05 
  66169.6902     0.78558E-05 
  66201.9523     0.80484E-05 
  66234.2145     0.82447E-05 
  66266.4766     0.84449E-05 
  66298.7388     0.86489E-05 
  66331.0010     0.88570E-05 
  66363.2631     0.90691E-05 
  66395.5253     0.92852E-05 
  66427.7874     0.95056E-05 
  66460.0496     0.97301E-05 
  66492.3118     0.99590E-05 
  66524.5739     0.10192E-04 
  66556.8361     0.10430E-04 
  66589.0982     0.10672E-04 
  66621.3604     0.10919E-04 
  66653.6226     0.11171E-04 
  66685.8847     0.11427E-04 
  66718.1469     0.11688E-04 
  66750.4090     0.11954E-04 
  66782.6712     0.12225E-04 
  66814.9334     0.12501E-04 
  66847.1955     0.12782E-04 
  66879.4577     0.13069E-04 
  66911.7198     0.13360E-04 
  66943.9820     0.13658E-04 
  66976.2442     0.13960E-04 
  67008.5063     0.14269E-04 
  67040.7685     0.14582E-04 
  67073.0306     0.14902E-04 
  67105.2928     0.15228E-04 
  67137.5550     0.15559E-04 
  67169.8171     0.15897E-04 
  67202.0793     0.16240E-04 
  67234.3414     0.16590E-04 
  67266.6036     0.16946E-04 
  67298.8658     0.17309E-04 
  67331.1279     0.17678E-04 
  67363.3901     0.18054E-04 
  67395.6522     0.18436E-04 
  67427.9144     0.18826E-04 
  67460.1766     0.19222E-04 
  67492.4387     0.19625E-04 
  67524.7009     0.20036E-04 
  67556.9630     0.20453E-04 
  67589.2252     0.20878E-04 
  67621.4874     0.21311E-04 
  67653.7495     0.21751E-04 
  67686.0117     0.22199E-04 
  67718.2738     0.22655E-04 
  67750.5360     0.23118E-04 
  67782.7982     0.23590E-04 
  67815.0603     0.24070E-04 
  67847.3225     0.24558E-04 
  67879.5846     0.25055E-04 
  67911.8468     0.25560E-04 
  67944.1090     0.26074E-04 
  67976.3711     0.26596E-04 
  68008.6333     0.27128E-04 
  68040.8954     0.27668E-04 
  68073.1576     0.28218E-04 
  68105.4198     0.28777E-04 
  68137.6819     0.29346E-04 
  68169.9441     0.29924E-04 
  68202.2062     0.30512E-04 
  68234.4684     0.31109E-04 
  68266.7306     0.31717E-04 
  68298.9927     0.32335E-04 
  68331.2549     0.32963E-04 
  68363.5170     0.33602E-04 
  68395.7792     0.34251E-04 
  68428.0414     0.34910E-04 
  68460.3035     0.35581E-04 
  68492.5657     0.36263E-04 
  68524.8278     0.36955E-04 
  68557.0900     0.37659E-04 
  68589.3522     0.38375E-04 
  68621.6143     0.39102E-04 
  68653.8765     0.39841E-04 
  68686.1386     0.40592E-04 
  68718.4008     0.41354E-04 
  68750.6630     0.42130E-04 
  68782.9251     0.42917E-04 
  68815.1873     0.43717E-04 
  68847.4494     0.44530E-04 
  68879.7116     0.45355E-04 
  68911.9738     0.46194E-04 
  68944.2359     0.47045E-04 
  68976.4981     0.47911E-04 
  69008.7602     0.48789E-04 
  69041.0224     0.49682E-04 
  69073.2846     0.50588E-04 
  69105.5467     0.51508E-04 
  69137.8089     0.52443E-04 
  69170.0710     0.53392E-04 
  69202.3332     0.54355E-04 
  69234.5954     0.55333E-04 
  69266.8575     0.56326E-04 
  69299.1197     0.57334E-04 
  69331.3818     0.58358E-04 
  69363.6440     0.59397E-04 
  69395.9062     0.60451E-04 
  69428.1683     0.61522E-04 
  69460.4305     0.62608E-04 
  69492.6926     0.63711E-04 
  69524.9548     0.64830E-04 
  69557.2170     0.65965E-04 
  69589.4791     0.67117E-04 
  69621.7413     0.68286E-04 
  69654.0034     0.69473E-04 
  69686.2656     0.70676E-04 
  69718.5278     0.71897E-04 
  69750.7899     0.73136E-04 
  69783.0521     0.74393E-04 
  69815.3142     0.75667E-04 
  69847.5764     0.76960E-04 
  69879.8386     0.78272E-04 
  69912.1007     0.79602E-04 
  69944.3629     0.80951E-04 
  69976.6250     0.82319E-04 
  70008.8872     0.83706E-04 
  70041.1494     0.85113E-04 
  70073.4115     0.86539E-04 
  70105.6737     0.87985E-04 
  70137.9358     0.89452E-04 
  70170.1980     0.90938E-04 
  70202.4602     0.92445E-04 
  70234.7223     0.93972E-04 
  70266.9845     0.95521E-04 
  70299.2466     0.97090E-04 
  70331.5088     0.98681E-04 
  70363.7710     0.10029E-03 
  70396.0331     0.10193E-03 
  70428.2953     0.10358E-03 
  70460.5574     0.10526E-03 
  70492.8196     0.10696E-03 
  70525.0818     0.10868E-03 
  70557.3439     0.11043E-03 
  70589.6061     0.11219E-03 
  70621.8682     0.11399E-03 
  70654.1304     0.11580E-03 
  70686.3926     0.11764E-03 
  70718.6547     0.11950E-03 
  70750.9169     0.12138E-03 
  70783.1790     0.12329E-03 
  70815.4412     0.12523E-03 
  70847.7034     0.12718E-03 
  70879.9655     0.12917E-03 
  70912.2277     0.13117E-03 
  70944.4898     0.13321E-03 
  70976.7520     0.13526E-03 
  71009.0142     0.13735E-03 
  71041.2763     0.13946E-03 
  71073.5385     0.14159E-03 
  71105.8006     0.14375E-03 
  71138.0628     0.14594E-03 
  71170.3250     0.14815E-03 
  71202.5871     0.15039E-03 
  71234.8493     0.15266E-03 
  71267.1114     0.15495E-03 
  71299.3736     0.15727E-03 
  71331.6358     0.15962E-03 
  71363.8979     0.16200E-03 
  71396.1601     0.16440E-03 
  71428.4222     0.16683E-03 
  71460.6844     0.16929E-03 
  71492.9466     0.17178E-03 
  71525.2087     0.17430E-03 
  71557.4709     0.17684E-03 
  71589.7330     0.17942E-03 
  71621.9952     0.18202E-03 
  71654.2574     0.18466E-03 
  71686.5195     0.18732E-03 
  71718.7817     0.19001E-03 
  71751.0438     0.19273E-03 
  71783.3060     0.19548E-03 
  71815.5682     0.19826E-03 
  71847.8303     0.20107E-03 
  71880.0925     0.20392E-03 
  71912.3546     0.20679E-03 
  71944.6168     0.20969E-03 
  71976.8790     0.21263E-03 
  72009.1411     0.21559E-03 
  72041.4033     0.21859E-03 
  72073.6654     0.22162E-03 
  72105.9276     0.22468E-03 
  72138.1898     0.22777E-03 
  72170.4519     0.23089E-03 
  72202.7141     0.23404E-03 
  72234.9762     0.23723E-03 
  72267.2384     0.24045E-03 
  72299.5006     0.24370E-03 
  72331.7627     0.24699E-03 
  72364.0249     0.25030E-03 
  72396.2870     0.25365E-03 
  72428.5492     0.25703E-03 
  72460.8114     0.26045E-03 
  72493.0735     0.26390E-03 
  72525.3357     0.26738E-03 
  72557.5978     0.27089E-03 
  72589.8600     0.27444E-03 
