  32262.1600     0.12435E+02 
  32294.4222     0.12575E+02 
  32326.6843     0.12716E+02 
  32358.9465     0.12858E+02 
  32391.2086     0.13001E+02 
  32423.4708     0.13145E+02 
  32455.7330     0.13290E+02 
  32487.9951     0.13436E+02 
  32520.2573     0.13583E+02 
  32552.5194     0.13731E+02 
  32584.7816     0.13880E+02 
  32617.0438     0.14030E+02 
  32649.3059     0.14181E+02 
  32681.5681     0.14333E+02 
  32713.8302     0.14486E+02 
  32746.0924     0.14640E+02 
  32778.3546     0.14795E+02 
  32810.6167     0.14951E+02 
  32842.8789     0.15108E+02 
  32875.1410     0.15266E+02 
  32907.4032     0.15425E+02 
  32939.6654     0.15585E+02 
  32971.9275     0.15746E+02 
  33004.1897     0.15907E+02 
  33036.4518     0.16070E+02 
  33068.7140     0.16234E+02 
  33100.9762     0.16398E+02 
  33133.2383     0.16564E+02 
  33165.5005     0.16730E+02 
  33197.7626     0.16898E+02 
  33230.0248     0.17066E+02 
  33262.2870     0.17236E+02 
  33294.5491     0.17406E+02 
  33326.8113     0.17577E+02 
  33359.0734     0.17749E+02 
  33391.3356     0.17922E+02 
  33423.5978     0.18096E+02 
  33455.8599     0.18271E+02 
  33488.1221     0.18447E+02 
  33520.3842     0.18624E+02 
  33552.6464     0.18801E+02 
  33584.9086     0.18980E+02 
  33617.1707     0.19159E+02 
  33649.4329     0.19339E+02 
  33681.6950     0.19520E+02 
  33713.9572     0.19702E+02 
  33746.2194     0.19885E+02 
  33778.4815     0.20069E+02 
  33810.7437     0.20253E+02 
  33843.0058     0.20439E+02 
  33875.2680     0.20625E+02 
  33907.5302     0.20812E+02 
  33939.7923     0.21000E+02 
  33972.0545     0.21188E+02 
  34004.3166     0.21378E+02 
  34036.5788     0.21568E+02 
  34068.8410     0.21759E+02 
  34101.1031     0.21951E+02 
  34133.3653     0.22143E+02 
  34165.6274     0.22337E+02 
  34197.8896     0.22531E+02 
  34230.1518     0.22726E+02 
  34262.4139     0.22922E+02 
  34294.6761     0.23118E+02 
  34326.9382     0.23315E+02 
  34359.2004     0.23513E+02 
  34391.4626     0.23712E+02 
  34423.7247     0.23911E+02 
  34455.9869     0.24111E+02 
  34488.2490     0.24311E+02 
  34520.5112     0.24513E+02 
  34552.7734     0.24715E+02 
  34585.0355     0.24917E+02 
  34617.2977     0.25121E+02 
  34649.5598     0.25325E+02 
  34681.8220     0.25529E+02 
  34714.0842     0.25735E+02 
  34746.3463     0.25940E+02 
  34778.6085     0.26147E+02 
  34810.8706     0.26354E+02 
  34843.1328     0.26562E+02 
  34875.3950     0.26770E+02 
  34907.6571     0.26979E+02 
  34939.9193     0.27188E+02 
  34972.1814     0.27398E+02 
  35004.4436     0.27608E+02 
  35036.7058     0.27819E+02 
  35068.9679     0.28031E+02 
  35101.2301     0.28242E+02 
  35133.4922     0.28455E+02 
  35165.7544     0.28668E+02 
  35198.0166     0.28881E+02 
  35230.2787     0.29095E+02 
  35262.5409     0.29309E+02 
  35294.8030     0.29524E+02 
  35327.0652     0.29739E+02 
  35359.3274     0.29955E+02 
  35391.5895     0.30171E+02 
  35423.8517     0.30387E+02 
  35456.1138     0.30604E+02 
  35488.3760     0.30821E+02 
  35520.6382     0.31038E+02 
  35552.9003     0.31256E+02 
  35585.1625     0.31474E+02 
  35617.4246     0.31693E+02 
  35649.6868     0.31912E+02 
  35681.9490     0.32131E+02 
  35714.2111     0.32350E+02 
  35746.4733     0.32570E+02 
  35778.7354     0.32789E+02 
  35810.9976     0.33009E+02 
  35843.2598     0.33230E+02 
  35875.5219     0.33450E+02 
  35907.7841     0.33671E+02 
  35940.0462     0.33892E+02 
  35972.3084     0.34113E+02 
  36004.5706     0.34334E+02 
  36036.8327     0.34556E+02 
  36069.0949     0.34777E+02 
  36101.3570     0.34999E+02 
  36133.6192     0.35221E+02 
  36165.8814     0.35443E+02 
  36198.1435     0.35665E+02 
  36230.4057     0.35887E+02 
  36262.6678     0.36109E+02 
  36294.9300     0.36331E+02 
  36327.1922     0.36553E+02 
  36359.4543     0.36775E+02 
  36391.7165     0.36998E+02 
  36423.9786     0.37220E+02 
  36456.2408     0.37442E+02 
  36488.5030     0.37664E+02 
  36520.7651     0.37886E+02 
  36553.0273     0.38108E+02 
  36585.2894     0.38330E+02 
  36617.5516     0.38552E+02 
  36649.8138     0.38774E+02 
  36682.0759     0.38995E+02 
  36714.3381     0.39217E+02 
  36746.6002     0.39438E+02 
  36778.8624     0.39659E+02 
  36811.1246     0.39880E+02 
  36843.3867     0.40101E+02 
  36875.6489     0.40322E+02 
  36907.9110     0.40542E+02 
  36940.1732     0.40762E+02 
  36972.4354     0.40982E+02 
  37004.6975     0.41202E+02 
  37036.9597     0.41421E+02 
  37069.2218     0.41640E+02 
  37101.4840     0.41859E+02 
  37133.7462     0.42077E+02 
  37166.0083     0.42295E+02 
  37198.2705     0.42513E+02 
  37230.5326     0.42731E+02 
  37262.7948     0.42948E+02 
  37295.0570     0.43164E+02 
  37327.3191     0.43380E+02 
  37359.5813     0.43596E+02 
  37391.8434     0.43811E+02 
  37424.1056     0.44026E+02 
  37456.3678     0.44241E+02 
  37488.6299     0.44455E+02 
  37520.8921     0.44668E+02 
  37553.1542     0.44881E+02 
  37585.4164     0.45094E+02 
  37617.6786     0.45306E+02 
  37649.9407     0.45517E+02 
  37682.2029     0.45728E+02 
  37714.4650     0.45938E+02 
  37746.7272     0.46148E+02 
  37778.9894     0.46357E+02 
  37811.2515     0.46565E+02 
  37843.5137     0.46773E+02 
  37875.7758     0.46980E+02 
  37908.0380     0.47186E+02 
  37940.3002     0.47392E+02 
  37972.5623     0.47597E+02 
  38004.8245     0.47802E+02 
  38037.0866     0.48005E+02 
  38069.3488     0.48208E+02 
  38101.6110     0.48410E+02 
  38133.8731     0.48612E+02 
  38166.1353     0.48813E+02 
  38198.3974     0.49013E+02 
  38230.6596     0.49212E+02 
  38262.9218     0.49410E+02 
  38295.1839     0.49607E+02 
  38327.4461     0.49804E+02 
  38359.7082     0.50000E+02 
  38391.9704     0.50195E+02 
  38424.2326     0.50389E+02 
  38456.4947     0.50582E+02 
  38488.7569     0.50774E+02 
  38521.0190     0.50966E+02 
  38553.2812     0.51156E+02 
  38585.5434     0.51345E+02 
  38617.8055     0.51534E+02 
  38650.0677     0.51722E+02 
  38682.3298     0.51908E+02 
  38714.5920     0.52094E+02 
  38746.8542     0.52278E+02 
  38779.1163     0.52462E+02 
  38811.3785     0.52644E+02 
  38843.6406     0.52826E+02 
  38875.9028     0.53006E+02 
  38908.1650     0.53186E+02 
  38940.4271     0.53364E+02 
  38972.6893     0.53541E+02 
  39004.9514     0.53717E+02 
  39037.2136     0.53892E+02 
  39069.4758     0.54066E+02 
  39101.7379     0.54239E+02 
  39134.0001     0.54411E+02 
  39166.2622     0.54581E+02 
  39198.5244     0.54750E+02 
  39230.7866     0.54918E+02 
  39263.0487     0.55085E+02 
  39295.3109     0.55251E+02 
  39327.5730     0.55415E+02 
  39359.8352     0.55579E+02 
  39392.0974     0.55741E+02 
  39424.3595     0.55902E+02 
  39456.6217     0.56061E+02 
  39488.8838     0.56219E+02 
  39521.1460     0.56376E+02 
  39553.4082     0.56532E+02 
  39585.6703     0.56687E+02 
  39617.9325     0.56840E+02 
  39650.1946     0.56991E+02 
  39682.4568     0.57142E+02 
  39714.7190     0.57291E+02 
  39746.9811     0.57439E+02 
  39779.2433     0.57585E+02 
  39811.5054     0.57730E+02 
  39843.7676     0.57874E+02 
  39876.0298     0.58016E+02 
  39908.2919     0.58157E+02 
  39940.5541     0.58297E+02 
  39972.8162     0.58435E+02 
  40005.0784     0.58572E+02 
  40037.3406     0.58707E+02 
  40069.6027     0.58841E+02 
  40101.8649     0.58974E+02 
  40134.1270     0.59105E+02 
  40166.3892     0.59234E+02 
  40198.6514     0.59362E+02 
  40230.9135     0.59489E+02 
  40263.1757     0.59614E+02 
  40295.4378     0.59738E+02 
  40327.7000     0.59860E+02 
  40359.9622     0.59980E+02 
  40392.2243     0.60100E+02 
  40424.4865     0.60217E+02 
  40456.7486     0.60333E+02 
  40489.0108     0.60448E+02 
  40521.2730     0.60561E+02 
  40553.5351     0.60673E+02 
  40585.7973     0.60783E+02 
  40618.0594     0.60891E+02 
  40650.3216     0.60998E+02 
  40682.5838     0.61103E+02 
  40714.8459     0.61207E+02 
  40747.1081     0.61309E+02 
  40779.3702     0.61410E+02 
  40811.6324     0.61509E+02 
  40843.8946     0.61606E+02 
  40876.1567     0.61702E+02 
  40908.4189     0.61796E+02 
  40940.6810     0.61889E+02 
  40972.9432     0.61980E+02 
  41005.2054     0.62069E+02 
  41037.4675     0.62157E+02 
  41069.7297     0.62243E+02 
  41101.9918     0.62328E+02 
  41134.2540     0.62411E+02 
  41166.5162     0.62492E+02 
  41198.7783     0.62572E+02 
  41231.0405     0.62650E+02 
  41263.3026     0.62726E+02 
  41295.5648     0.62801E+02 
  41327.8270     0.62874E+02 
  41360.0891     0.62946E+02 
  41392.3513     0.63015E+02 
  41424.6134     0.63083E+02 
  41456.8756     0.63150E+02 
  41489.1378     0.63215E+02 
  41521.3999     0.63278E+02 
  41553.6621     0.63339E+02 
  41585.9242     0.63399E+02 
  41618.1864     0.63457E+02 
  41650.4486     0.63514E+02 
  41682.7107     0.63568E+02 
  41714.9729     0.63622E+02 
  41747.2350     0.63673E+02 
  41779.4972     0.63723E+02 
  41811.7594     0.63771E+02 
  41844.0215     0.63817E+02 
  41876.2837     0.63862E+02 
  41908.5458     0.63905E+02 
  41940.8080     0.63946E+02 
  41973.0702     0.63986E+02 
  42005.3323     0.64024E+02 
  42037.5945     0.64060E+02 
  42069.8566     0.64095E+02 
  42102.1188     0.64128E+02 
  42134.3810     0.64159E+02 
  42166.6431     0.64188E+02 
  42198.9053     0.64216E+02 
  42231.1674     0.64243E+02 
  42263.4296     0.64267E+02 
  42295.6918     0.64290E+02 
  42327.9539     0.64311E+02 
  42360.2161     0.64331E+02 
  42392.4782     0.64348E+02 
  42424.7404     0.64365E+02 
  42457.0026     0.64379E+02 
  42489.2647     0.64392E+02 
  42521.5269     0.64403E+02 
  42553.7890     0.64412E+02 
  42586.0512     0.64420E+02 
  42618.3134     0.64426E+02 
  42650.5755     0.64431E+02 
  42682.8377     0.64434E+02 
  42715.0998     0.64435E+02 
  42747.3620     0.64434E+02 
  42779.6242     0.64432E+02 
  42811.8863     0.64428E+02 
  42844.1485     0.64423E+02 
  42876.4106     0.64416E+02 
  42908.6728     0.64407E+02 
  42940.9350     0.64397E+02 
  42973.1971     0.64385E+02 
  43005.4593     0.64371E+02 
  43037.7214     0.64356E+02 
  43069.9836     0.64339E+02 
  43102.2458     0.64321E+02 
  43134.5079     0.64301E+02 
  43166.7701     0.64279E+02 
  43199.0322     0.64256E+02 
  43231.2944     0.64231E+02 
  43263.5566     0.64204E+02 
  43295.8187     0.64176E+02 
  43328.0809     0.64147E+02 
  43360.3430     0.64115E+02 
  43392.6052     0.64082E+02 
  43424.8674     0.64048E+02 
  43457.1295     0.64012E+02 
  43489.3917     0.63975E+02 
  43521.6538     0.63936E+02 
  43553.9160     0.63895E+02 
  43586.1782     0.63853E+02 
  43618.4403     0.63809E+02 
  43650.7025     0.63764E+02 
  43682.9646     0.63717E+02 
  43715.2268     0.63669E+02 
  43747.4890     0.63619E+02 
  43779.7511     0.63568E+02 
  43812.0133     0.63515E+02 
  43844.2754     0.63461E+02 
  43876.5376     0.63405E+02 
  43908.7998     0.63347E+02 
  43941.0619     0.63289E+02 
  43973.3241     0.63228E+02 
  44005.5862     0.63167E+02 
  44037.8484     0.63104E+02 
  44070.1106     0.63039E+02 
  44102.3727     0.62973E+02 
  44134.6349     0.62905E+02 
  44166.8970     0.62837E+02 
  44199.1592     0.62766E+02 
  44231.4214     0.62694E+02 
  44263.6835     0.62621E+02 
  44295.9457     0.62547E+02 
  44328.2078     0.62471E+02 
  44360.4700     0.62393E+02 
  44392.7322     0.62315E+02 
  44424.9943     0.62235E+02 
  44457.2565     0.62153E+02 
  44489.5186     0.62070E+02 
  44521.7808     0.61986E+02 
  44554.0430     0.61901E+02 
  44586.3051     0.61814E+02 
  44618.5673     0.61726E+02 
  44650.8294     0.61636E+02 
  44683.0916     0.61546E+02 
  44715.3538     0.61453E+02 
  44747.6159     0.61360E+02 
  44779.8781     0.61265E+02 
  44812.1402     0.61170E+02 
  44844.4024     0.61072E+02 
  44876.6646     0.60974E+02 
  44908.9267     0.60874E+02 
  44941.1889     0.60773E+02 
  44973.4510     0.60671E+02 
  45005.7132     0.60568E+02 
  45037.9754     0.60463E+02 
  45070.2375     0.60358E+02 
  45102.4997     0.60251E+02 
  45134.7618     0.60142E+02 
  45167.0240     0.60033E+02 
  45199.2862     0.59923E+02 
  45231.5483     0.59811E+02 
  45263.8105     0.59698E+02 
  45296.0726     0.59584E+02 
  45328.3348     0.59469E+02 
  45360.5970     0.59353E+02 
  45392.8591     0.59236E+02 
  45425.1213     0.59117E+02 
  45457.3834     0.58998E+02 
  45489.6456     0.58877E+02 
  45521.9078     0.58755E+02 
  45554.1699     0.58633E+02 
  45586.4321     0.58509E+02 
  45618.6942     0.58384E+02 
  45650.9564     0.58258E+02 
  45683.2186     0.58131E+02 
  45715.4807     0.58003E+02 
  45747.7429     0.57874E+02 
  45780.0050     0.57744E+02 
  45812.2672     0.57614E+02 
  45844.5294     0.57482E+02 
  45876.7915     0.57349E+02 
  45909.0537     0.57215E+02 
  45941.3158     0.57080E+02 
  45973.5780     0.56945E+02 
  46005.8402     0.56808E+02 
  46038.1023     0.56670E+02 
  46070.3645     0.56532E+02 
  46102.6266     0.56393E+02 
  46134.8888     0.56252E+02 
  46167.1510     0.56111E+02 
  46199.4131     0.55969E+02 
  46231.6753     0.55826E+02 
  46263.9374     0.55683E+02 
  46296.1996     0.55538E+02 
  46328.4618     0.55393E+02 
  46360.7239     0.55247E+02 
  46392.9861     0.55100E+02 
  46425.2482     0.54952E+02 
  46457.5104     0.54803E+02 
  46489.7726     0.54654E+02 
  46522.0347     0.54504E+02 
  46554.2969     0.54353E+02 
  46586.5590     0.54201E+02 
  46618.8212     0.54049E+02 
  46651.0834     0.53896E+02 
  46683.3455     0.53742E+02 
  46715.6077     0.53587E+02 
  46747.8698     0.53432E+02 
  46780.1320     0.53276E+02 
  46812.3942     0.53119E+02 
  46844.6563     0.52962E+02 
  46876.9185     0.52804E+02 
  46909.1806     0.52646E+02 
  46941.4428     0.52486E+02 
  46973.7050     0.52326E+02 
  47005.9671     0.52166E+02 
  47038.2293     0.52005E+02 
  47070.4914     0.51843E+02 
  47102.7536     0.51681E+02 
  47135.0158     0.51518E+02 
  47167.2779     0.51355E+02 
  47199.5401     0.51191E+02 
  47231.8022     0.51026E+02 
  47264.0644     0.50861E+02 
  47296.3266     0.50695E+02 
  47328.5887     0.50529E+02 
  47360.8509     0.50362E+02 
  47393.1130     0.50195E+02 
  47425.3752     0.50028E+02 
  47457.6374     0.49859E+02 
  47489.8995     0.49691E+02 
  47522.1617     0.49522E+02 
  47554.4238     0.49352E+02 
  47586.6860     0.49182E+02 
  47618.9482     0.49012E+02 
  47651.2103     0.48841E+02 
  47683.4725     0.48670E+02 
  47715.7346     0.48498E+02 
  47747.9968     0.48326E+02 
  47780.2590     0.48154E+02 
  47812.5211     0.47981E+02 
  47844.7833     0.47808E+02 
  47877.0454     0.47634E+02 
  47909.3076     0.47460E+02 
  47941.5698     0.47286E+02 
  47973.8319     0.47111E+02 
  48006.0941     0.46937E+02 
  48038.3562     0.46761E+02 
  48070.6184     0.46586E+02 
  48102.8806     0.46410E+02 
  48135.1427     0.46234E+02 
  48167.4049     0.46058E+02 
  48199.6670     0.45881E+02 
  48231.9292     0.45704E+02 
  48264.1914     0.45527E+02 
  48296.4535     0.45350E+02 
  48328.7157     0.45172E+02 
  48360.9778     0.44994E+02 
  48393.2400     0.44816E+02 
  48425.5022     0.44638E+02 
  48457.7643     0.44459E+02 
  48490.0265     0.44281E+02 
  48522.2886     0.44102E+02 
  48554.5508     0.43923E+02 
  48586.8130     0.43744E+02 
  48619.0751     0.43565E+02 
  48651.3373     0.43385E+02 
  48683.5994     0.43206E+02 
  48715.8616     0.43026E+02 
  48748.1238     0.42846E+02 
  48780.3859     0.42666E+02 
  48812.6481     0.42486E+02 
  48844.9102     0.42306E+02 
  48877.1724     0.42126E+02 
  48909.4346     0.41945E+02 
  48941.6967     0.41765E+02 
  48973.9589     0.41585E+02 
  49006.2210     0.41404E+02 
  49038.4832     0.41223E+02 
  49070.7454     0.41043E+02 
  49103.0075     0.40862E+02 
  49135.2697     0.40682E+02 
  49167.5318     0.40501E+02 
  49199.7940     0.40320E+02 
  49232.0562     0.40140E+02 
  49264.3183     0.39959E+02 
  49296.5805     0.39778E+02 
  49328.8426     0.39598E+02 
  49361.1048     0.39417E+02 
  49393.3670     0.39236E+02 
  49425.6291     0.39056E+02 
  49457.8913     0.38875E+02 
  49490.1534     0.38695E+02 
  49522.4156     0.38515E+02 
  49554.6778     0.38334E+02 
  49586.9399     0.38154E+02 
  49619.2021     0.37974E+02 
  49651.4642     0.37794E+02 
  49683.7264     0.37614E+02 
  49715.9886     0.37434E+02 
  49748.2507     0.37255E+02 
  49780.5129     0.37075E+02 
  49812.7750     0.36895E+02 
  49845.0372     0.36716E+02 
  49877.2994     0.36537E+02 
  49909.5615     0.36358E+02 
  49941.8237     0.36179E+02 
  49974.0858     0.36000E+02 
  50006.3480     0.35822E+02 
  50038.6102     0.35643E+02 
  50070.8723     0.35465E+02 
  50103.1345     0.35287E+02 
  50135.3966     0.35109E+02 
  50167.6588     0.34931E+02 
  50199.9210     0.34754E+02 
  50232.1831     0.34577E+02 
  50264.4453     0.34400E+02 
  50296.7074     0.34223E+02 
  50328.9696     0.34046E+02 
  50361.2318     0.33870E+02 
  50393.4939     0.33694E+02 
  50425.7561     0.33518E+02 
  50458.0182     0.33342E+02 
  50490.2804     0.33167E+02 
  50522.5426     0.32992E+02 
  50554.8047     0.32817E+02 
  50587.0669     0.32642E+02 
  50619.3290     0.32468E+02 
  50651.5912     0.32294E+02 
  50683.8534     0.32120E+02 
  50716.1155     0.31947E+02 
  50748.3777     0.31774E+02 
  50780.6398     0.31601E+02 
  50812.9020     0.31428E+02 
  50845.1642     0.31256E+02 
  50877.4263     0.31084E+02 
  50909.6885     0.30912E+02 
  50941.9506     0.30741E+02 
  50974.2128     0.30570E+02 
  51006.4750     0.30400E+02 
  51038.7371     0.30229E+02 
  51070.9993     0.30059E+02 
  51103.2614     0.29890E+02 
  51135.5236     0.29720E+02 
  51167.7858     0.29552E+02 
  51200.0479     0.29383E+02 
  51232.3101     0.29215E+02 
  51264.5722     0.29047E+02 
  51296.8344     0.28880E+02 
  51329.0966     0.28713E+02 
  51361.3587     0.28546E+02 
  51393.6209     0.28380E+02 
  51425.8830     0.28214E+02 
  51458.1452     0.28048E+02 
  51490.4074     0.27883E+02 
  51522.6695     0.27718E+02 
  51554.9317     0.27554E+02 
  51587.1938     0.27390E+02 
  51619.4560     0.27227E+02 
  51651.7182     0.27064E+02 
  51683.9803     0.26901E+02 
  51716.2425     0.26739E+02 
  51748.5046     0.26577E+02 
  51780.7668     0.26416E+02 
  51813.0290     0.26255E+02 
  51845.2911     0.26094E+02 
  51877.5533     0.25934E+02 
  51909.8154     0.25774E+02 
  51942.0776     0.25615E+02 
  51974.3398     0.25456E+02 
  52006.6019     0.25298E+02 
  52038.8641     0.25140E+02 
  52071.1262     0.24983E+02 
  52103.3884     0.24826E+02 
  52135.6506     0.24670E+02 
  52167.9127     0.24514E+02 
  52200.1749     0.24358E+02 
  52232.4370     0.24203E+02 
  52264.6992     0.24048E+02 
  52296.9614     0.23894E+02 
  52329.2235     0.23741E+02 
  52361.4857     0.23587E+02 
  52393.7478     0.23435E+02 
  52426.0100     0.23283E+02 
  52458.2722     0.23131E+02 
  52490.5343     0.22980E+02 
  52522.7965     0.22829E+02 
  52555.0586     0.22679E+02 
  52587.3208     0.22529E+02 
  52619.5830     0.22380E+02 
  52651.8451     0.22231E+02 
  52684.1073     0.22083E+02 
  52716.3694     0.21935E+02 
  52748.6316     0.21788E+02 
  52780.8938     0.21641E+02 
  52813.1559     0.21495E+02 
  52845.4181     0.21349E+02 
  52877.6802     0.21204E+02 
  52909.9424     0.21059E+02 
  52942.2046     0.20915E+02 
  52974.4667     0.20771E+02 
  53006.7289     0.20628E+02 
  53038.9910     0.20486E+02 
  53071.2532     0.20344E+02 
  53103.5154     0.20202E+02 
  53135.7775     0.20061E+02 
  53168.0397     0.19920E+02 
  53200.3018     0.19781E+02 
  53232.5640     0.19641E+02 
  53264.8262     0.19502E+02 
  53297.0883     0.19364E+02 
  53329.3505     0.19226E+02 
  53361.6126     0.19089E+02 
  53393.8748     0.18952E+02 
  53426.1370     0.18815E+02 
  53458.3991     0.18680E+02 
  53490.6613     0.18545E+02 
  53522.9234     0.18410E+02 
  53555.1856     0.18276E+02 
  53587.4478     0.18142E+02 
  53619.7099     0.18009E+02 
  53651.9721     0.17877E+02 
  53684.2342     0.17745E+02 
  53716.4964     0.17613E+02 
  53748.7586     0.17482E+02 
  53781.0207     0.17352E+02 
  53813.2829     0.17222E+02 
  53845.5450     0.17093E+02 
  53877.8072     0.16964E+02 
  53910.0694     0.16836E+02 
  53942.3315     0.16709E+02 
  53974.5937     0.16582E+02 
  54006.8558     0.16455E+02 
  54039.1180     0.16329E+02 
  54071.3802     0.16204E+02 
  54103.6423     0.16079E+02 
  54135.9045     0.15955E+02 
  54168.1666     0.15831E+02 
  54200.4288     0.15708E+02 
  54232.6910     0.15585E+02 
  54264.9531     0.15463E+02 
  54297.2153     0.15341E+02 
  54329.4774     0.15220E+02 
  54361.7396     0.15100E+02 
  54394.0018     0.14980E+02 
  54426.2639     0.14861E+02 
  54458.5261     0.14742E+02 
  54490.7882     0.14624E+02 
  54523.0504     0.14506E+02 
  54555.3126     0.14389E+02 
  54587.5747     0.14272E+02 
  54619.8369     0.14156E+02 
  54652.0990     0.14040E+02 
  54684.3612     0.13926E+02 
  54716.6234     0.13811E+02 
  54748.8855     0.13697E+02 
  54781.1477     0.13584E+02 
  54813.4098     0.13471E+02 
  54845.6720     0.13359E+02 
  54877.9342     0.13247E+02 
  54910.1963     0.13136E+02 
  54942.4585     0.13025E+02 
  54974.7206     0.12915E+02 
  55006.9828     0.12806E+02 
  55039.2450     0.12697E+02 
  55071.5071     0.12589E+02 
  55103.7693     0.12481E+02 
  55136.0314     0.12373E+02 
  55168.2936     0.12267E+02 
  55200.5558     0.12160E+02 
  55232.8179     0.12055E+02 
  55265.0801     0.11949E+02 
  55297.3422     0.11845E+02 
  55329.6044     0.11741E+02 
  55361.8666     0.11637E+02 
  55394.1287     0.11534E+02 
  55426.3909     0.11432E+02 
  55458.6530     0.11330E+02 
  55490.9152     0.11228E+02 
  55523.1774     0.11127E+02 
  55555.4395     0.11027E+02 
  55587.7017     0.10927E+02 
  55619.9638     0.10828E+02 
  55652.2260     0.10729E+02 
  55684.4882     0.10631E+02 
  55716.7503     0.10533E+02 
  55749.0125     0.10436E+02 
  55781.2746     0.10340E+02 
  55813.5368     0.10243E+02 
  55845.7990     0.10148E+02 
  55878.0611     0.10053E+02 
  55910.3233     0.99583E+01 
  55942.5854     0.98643E+01 
  55974.8476     0.97708E+01 
  56007.1098     0.96779E+01 
  56039.3719     0.95854E+01 
  56071.6341     0.94935E+01 
  56103.8962     0.94021E+01 
  56136.1584     0.93112E+01 
  56168.4206     0.92208E+01 
  56200.6827     0.91310E+01 
  56232.9449     0.90416E+01 
  56265.2070     0.89528E+01 
  56297.4692     0.88645E+01 
  56329.7314     0.87766E+01 
  56361.9935     0.86893E+01 
  56394.2557     0.86025E+01 
  56426.5178     0.85163E+01 
  56458.7800     0.84305E+01 
  56491.0422     0.83452E+01 
  56523.3043     0.82604E+01 
  56555.5665     0.81761E+01 
  56587.8286     0.80924E+01 
  56620.0908     0.80091E+01 
  56652.3530     0.79263E+01 
  56684.6151     0.78440E+01 
  56716.8773     0.77622E+01 
  56749.1394     0.76809E+01 
  56781.4016     0.76001E+01 
  56813.6638     0.75198E+01 
  56845.9259     0.74400E+01 
  56878.1881     0.73607E+01 
  56910.4502     0.72819E+01 
  56942.7124     0.72035E+01 
  56974.9746     0.71257E+01 
  57007.2367     0.70483E+01 
  57039.4989     0.69714E+01 
  57071.7610     0.68950E+01 
  57104.0232     0.68190E+01 
  57136.2854     0.67436E+01 
  57168.5475     0.66686E+01 
  57200.8097     0.65941E+01 
  57233.0718     0.65201E+01 
  57265.3340     0.64465E+01 
  57297.5962     0.63735E+01 
  57329.8583     0.63009E+01 
  57362.1205     0.62287E+01 
  57394.3826     0.61571E+01 
  57426.6448     0.60859E+01 
  57458.9070     0.60152E+01 
  57491.1691     0.59449E+01 
  57523.4313     0.58751E+01 
  57555.6934     0.58058E+01 
  57587.9556     0.57369E+01 
  57620.2178     0.56685E+01 
  57652.4799     0.56005E+01 
  57684.7421     0.55331E+01 
  57717.0042     0.54660E+01 
  57749.2664     0.53994E+01 
  57781.5286     0.53333E+01 
  57813.7907     0.52677E+01 
  57846.0529     0.52024E+01 
  57878.3150     0.51377E+01 
  57910.5772     0.50734E+01 
  57942.8394     0.50095E+01 
  57975.1015     0.49461E+01 
  58007.3637     0.48831E+01 
  58039.6258     0.48206E+01 
  58071.8880     0.47585E+01 
  58104.1502     0.46968E+01 
  58136.4123     0.46356E+01 
  58168.6745     0.45749E+01 
  58200.9366     0.45145E+01 
  58233.1988     0.44547E+01 
  58265.4610     0.43952E+01 
  58297.7231     0.43362E+01 
  58329.9853     0.42776E+01 
  58362.2474     0.42195E+01 
  58394.5096     0.41618E+01 
  58426.7718     0.41045E+01 
  58459.0339     0.40476E+01 
  58491.2961     0.39912E+01 
  58523.5582     0.39352E+01 
  58555.8204     0.38797E+01 
  58588.0826     0.38245E+01 
  58620.3447     0.37698E+01 
  58652.6069     0.37155E+01 
  58684.8690     0.36617E+01 
  58717.1312     0.36082E+01 
  58749.3934     0.35552E+01 
  58781.6555     0.35026E+01 
  58813.9177     0.34505E+01 
  58846.1798     0.33987E+01 
  58878.4420     0.33474E+01 
  58910.7042     0.32964E+01 
  58942.9663     0.32459E+01 
  58975.2285     0.31958E+01 
  59007.4906     0.31462E+01 
  59039.7528     0.30969E+01 
  59072.0150     0.30481E+01 
  59104.2771     0.29996E+01 
  59136.5393     0.29516E+01 
  59168.8014     0.29040E+01 
  59201.0636     0.28568E+01 
  59233.3258     0.28100E+01 
  59265.5879     0.27636E+01 
  59297.8501     0.27176E+01 
  59330.1122     0.26721E+01 
  59362.3744     0.26269E+01 
  59394.6366     0.25822E+01 
  59426.8987     0.25378E+01 
  59459.1609     0.24939E+01 
  59491.4230     0.24504E+01 
  59523.6852     0.24073E+01 
  59555.9474     0.23645E+01 
  59588.2095     0.23222E+01 
  59620.4717     0.22803E+01 
  59652.7338     0.22388E+01 
  59684.9960     0.21977E+01 
  59717.2582     0.21570E+01 
  59749.5203     0.21167E+01 
  59781.7825     0.20769E+01 
  59814.0446     0.20374E+01 
  59846.3068     0.19983E+01 
  59878.5690     0.19596E+01 
  59910.8311     0.19213E+01 
  59943.0933     0.18835E+01 
  59975.3554     0.18460E+01 
  60007.6176     0.18089E+01 
  60039.8798     0.17723E+01 
  60072.1419     0.17360E+01 
  60104.4041     0.17002E+01 
  60136.6662     0.16647E+01 
  60168.9284     0.16297E+01 
  60201.1906     0.15951E+01 
  60233.4527     0.15608E+01 
  60265.7149     0.15270E+01 
  60297.9770     0.14936E+01 
  60330.2392     0.14606E+01 
  60362.5014     0.14280E+01 
  60394.7635     0.13958E+01 
  60427.0257     0.13640E+01 
  60459.2878     0.13326E+01 
  60491.5500     0.13017E+01 
  60523.8122     0.12711E+01 
  60556.0743     0.12410E+01 
  60588.3365     0.12113E+01 
  60620.5986     0.11819E+01 
  60652.8608     0.11530E+01 
  60685.1230     0.11246E+01 
  60717.3851     0.10965E+01 
  60749.6473     0.10689E+01 
  60781.9094     0.10416E+01 
  60814.1716     0.10148E+01 
  60846.4338     0.98844E+00 
  60878.6959     0.96249E+00 
  60910.9581     0.93696E+00 
  60943.2202     0.91185E+00 
  60975.4824     0.88718E+00 
  61007.7446     0.86294E+00 
  61040.0067     0.83913E+00 
  61072.2689     0.81575E+00 
  61104.5310     0.79281E+00 
  61136.7932     0.77031E+00 
  61169.0554     0.74825E+00 
  61201.3175     0.72664E+00 
  61233.5797     0.70547E+00 
  61265.8418     0.68475E+00 
  61298.1040     0.66447E+00 
  61330.3662     0.64465E+00 
  61362.6283     0.62529E+00 
  61394.8905     0.60638E+00 
  61427.1526     0.58794E+00 
  61459.4148     0.56995E+00 
  61491.6770     0.55244E+00 
  61523.9391     0.53539E+00 
  61556.2013     0.51882E+00 
  61588.4634     0.50272E+00 
  61620.7256     0.48710E+00 
  61652.9878     0.47197E+00 
  61685.2499     0.45732E+00 
  61717.5121     0.44316E+00 
  61749.7742     0.42950E+00 
  61782.0364     0.41633E+00 
  61814.2986     0.40367E+00 
  61846.5607     0.39151E+00 
  61878.8229     0.37986E+00 
  61911.0850     0.36873E+00 
  61943.3472     0.35811E+00 
  61975.6094     0.34802E+00 
  62007.8715     0.33846E+00 
  62040.1337     0.32943E+00 
  62072.3958     0.32093E+00 
  62104.6580     0.31298E+00 
  62136.9202     0.30558E+00 
  62169.1823     0.29873E+00 
  62201.4445     0.29244E+00 
  62233.7066     0.28672E+00 
  62265.9688     0.28156E+00 
  62298.2310     0.27699E+00 
  62330.4931     0.27299E+00 
  62362.7553     0.26958E+00 
  62395.0174     0.26677E+00 
  62427.2796     0.26456E+00 
  62459.5418     0.26295E+00 
  62491.8039     0.26196E+00 
  62524.0661     0.26159E+00 
  62556.3282     0.26185E+00 
  62588.5904     0.26275E+00 
  62620.8526     0.26429E+00 
  62653.1147     0.26648E+00 
  62685.3769     0.26932E+00 
  62717.6390     0.27284E+00 
  62749.9012     0.27703E+00 
  62782.1634     0.28190E+00 
  62814.4255     0.28747E+00 
  62846.6877     0.29373E+00 
  62878.9498     0.30071E+00 
  62911.2120     0.30840E+00 
  62943.4742     0.31682E+00 
  62975.7363     0.32598E+00 
  63007.9985     0.33589E+00 
  63040.2606     0.34655E+00 
  63072.5228     0.35798E+00 
  63104.7850     0.37018E+00 
  63137.0471     0.38317E+00 
  63169.3093     0.39697E+00 
  63201.5714     0.41157E+00 
  63233.8336     0.42699E+00 
  63266.0958     0.44324E+00 
  63298.3579     0.46034E+00 
  63330.6201     0.47829E+00 
  63362.8822     0.49711E+00 
  63395.1444     0.51681E+00 
  63427.4066     0.53741E+00 
  63459.6687     0.55891E+00 
  63491.9309     0.58133E+00 
  63524.1930     0.60468E+00 
  63556.4552     0.62897E+00 
  63588.7174     0.65423E+00 
  63620.9795     0.68046E+00 
  63653.2417     0.70768E+00 
  63685.5038     0.73590E+00 
  63717.7660     0.76514E+00 
  63750.0282     0.79541E+00 
  63782.2903     0.82674E+00 
  63814.5525     0.85913E+00 
  63846.8146     0.89260E+00 
  63879.0768     0.92716E+00 
  63911.3390     0.96284E+00 
  63943.6011     0.99966E+00 
  63975.8633     0.10376E+01 
  64008.1254     0.10768E+01 
  64040.3876     0.11171E+01 
  64072.6498     0.11586E+01 
  64104.9119     0.12013E+01 
  64137.1741     0.12453E+01 
  64169.4362     0.12905E+01 
  64201.6984     0.13371E+01 
  64233.9606     0.13849E+01 
  64266.2227     0.14340E+01 
  64298.4849     0.14845E+01 
  64330.7470     0.15364E+01 
  64363.0092     0.15896E+01 
  64395.2714     0.16442E+01 
  64427.5335     0.17003E+01 
  64459.7957     0.17578E+01 
  64492.0578     0.18168E+01 
  64524.3200     0.18773E+01 
  64556.5822     0.19393E+01 
  64588.8443     0.20029E+01 
  64621.1065     0.20680E+01 
  64653.3686     0.21347E+01 
  64685.6308     0.22030E+01 
  64717.8930     0.22730E+01 
  64750.1551     0.23447E+01 
  64782.4173     0.24180E+01 
  64814.6794     0.24931E+01 
  64846.9416     0.25700E+01 
  64879.2038     0.26486E+01 
  64911.4659     0.27290E+01 
  64943.7281     0.28113E+01 
  64975.9902     0.28954E+01 
  65008.2524     0.29814E+01 
  65040.5146     0.30694E+01 
  65072.7767     0.31593E+01 
  65105.0389     0.32512E+01 
  65137.3010     0.33451E+01 
  65169.5632     0.34411E+01 
  65201.8254     0.35392E+01 
  65234.0875     0.36393E+01 
  65266.3497     0.37417E+01 
  65298.6118     0.38462E+01 
  65330.8740     0.39529E+01 
  65363.1362     0.40619E+01 
  65395.3983     0.41732E+01 
  65427.6605     0.42868E+01 
  65459.9226     0.44028E+01 
  65492.1848     0.45211E+01 
  65524.4470     0.46419E+01 
  65556.7091     0.47652E+01 
  65588.9713     0.48910E+01 
  65621.2334     0.50193E+01 
  65653.4956     0.51503E+01 
  65685.7578     0.52838E+01 
  65718.0199     0.54201E+01 
  65750.2821     0.55590E+01 
  65782.5442     0.57007E+01 
  65814.8064     0.58452E+01 
  65847.0686     0.59926E+01 
  65879.3307     0.61428E+01 
  65911.5929     0.62959E+01 
  65943.8550     0.64521E+01 
  65976.1172     0.66112E+01 
  66008.3794     0.67734E+01 
  66040.6415     0.69387E+01 
  66072.9037     0.71072E+01 
  66105.1658     0.72788E+01 
  66137.4280     0.74537E+01 
  66169.6902     0.76320E+01 
  66201.9523     0.78135E+01 
  66234.2145     0.79985E+01 
  66266.4766     0.81869E+01 
  66298.7388     0.83788E+01 
  66331.0010     0.85742E+01 
  66363.2631     0.87733E+01 
  66395.5253     0.89760E+01 
  66427.7874     0.91824E+01 
  66460.0496     0.93926E+01 
  66492.3118     0.96066E+01 
  66524.5739     0.98244E+01 
  66556.8361     0.10046E+02 
  66589.0982     0.10272E+02 
  66621.3604     0.10502E+02 
  66653.6226     0.10736E+02 
  66685.8847     0.10974E+02 
  66718.1469     0.11216E+02 
  66750.4090     0.11462E+02 
  66782.6712     0.11713E+02 
  66814.9334     0.11969E+02 
  66847.1955     0.12228E+02 
  66879.4577     0.12492E+02 
  66911.7198     0.12761E+02 
  66943.9820     0.13035E+02 
  66976.2442     0.13313E+02 
  67008.5063     0.13596E+02 
  67040.7685     0.13883E+02 
  67073.0306     0.14176E+02 
  67105.2928     0.14474E+02 
  67137.5550     0.14776E+02 
  67169.8171     0.15084E+02 
  67202.0793     0.15397E+02 
  67234.3414     0.15715E+02 
  67266.6036     0.16038E+02 
  67298.8658     0.16367E+02 
  67331.1279     0.16701E+02 
  67363.3901     0.17041E+02 
  67395.6522     0.17386E+02 
  67427.9144     0.17737E+02 
  67460.1766     0.18094E+02 
  67492.4387     0.18456E+02 
  67524.7009     0.18824E+02 
  67556.9630     0.19199E+02 
  67589.2252     0.19579E+02 
  67621.4874     0.19965E+02 
  67653.7495     0.20358E+02 
  67686.0117     0.20757E+02 
  67718.2738     0.21162E+02 
  67750.5360     0.21573E+02 
  67782.7982     0.21991E+02 
  67815.0603     0.22416E+02 
  67847.3225     0.22847E+02 
  67879.5846     0.23285E+02 
  67911.8468     0.23729E+02 
  67944.1090     0.24181E+02 
  67976.3711     0.24639E+02 
  68008.6333     0.25105E+02 
  68040.8954     0.25577E+02 
  68073.1576     0.26057E+02 
  68105.4198     0.26544E+02 
  68137.6819     0.27039E+02 
  68169.9441     0.27540E+02 
  68202.2062     0.28050E+02 
  68234.4684     0.28567E+02 
  68266.7306     0.29092E+02 
  68298.9927     0.29624E+02 
  68331.2549     0.30164E+02 
  68363.5170     0.30713E+02 
  68395.7792     0.31269E+02 
  68428.0414     0.31834E+02 
  68460.3035     0.32406E+02 
  68492.5657     0.32987E+02 
  68524.8278     0.33577E+02 
  68557.0900     0.34175E+02 
  68589.3522     0.34781E+02 
  68621.6143     0.35396E+02 
  68653.8765     0.36020E+02 
  68686.1386     0.36653E+02 
  68718.4008     0.37295E+02 
  68750.6630     0.37945E+02 
  68782.9251     0.38605E+02 
  68815.1873     0.39274E+02 
  68847.4494     0.39952E+02 
  68879.7116     0.40640E+02 
  68911.9738     0.41337E+02 
  68944.2359     0.42044E+02 
  68976.4981     0.42760E+02 
  69008.7602     0.43486E+02 
  69041.0224     0.44222E+02 
  69073.2846     0.44968E+02 
  69105.5467     0.45724E+02 
  69137.8089     0.46490E+02 
  69170.0710     0.47266E+02 
  69202.3332     0.48053E+02 
  69234.5954     0.48849E+02 
  69266.8575     0.49657E+02 
  69299.1197     0.50475E+02 
  69331.3818     0.51303E+02 
  69363.6440     0.52143E+02 
  69395.9062     0.52993E+02 
  69428.1683     0.53854E+02 
  69460.4305     0.54727E+02 
  69492.6926     0.55610E+02 
  69524.9548     0.56505E+02 
  69557.2170     0.57411E+02 
  69589.4791     0.58328E+02 
  69621.7413     0.59257E+02 
  69654.0034     0.60198E+02 
  69686.2656     0.61150E+02 
  69718.5278     0.62114E+02 
  69750.7899     0.63090E+02 
  69783.0521     0.64078E+02 
  69815.3142     0.65077E+02 
  69847.5764     0.66090E+02 
  69879.8386     0.67114E+02 
  69912.1007     0.68150E+02 
  69944.3629     0.69200E+02 
  69976.6250     0.70261E+02 
  70008.8872     0.71335E+02 
  70041.1494     0.72422E+02 
  70073.4115     0.73522E+02 
  70105.6737     0.74634E+02 
  70137.9358     0.75760E+02 
  70170.1980     0.76899E+02 
  70202.4602     0.78050E+02 
  70234.7223     0.79215E+02 
  70266.9845     0.80393E+02 
  70299.2466     0.81585E+02 
  70331.5088     0.82790E+02 
  70363.7710     0.84009E+02 
  70396.0331     0.85241E+02 
  70428.2953     0.86487E+02 
  70460.5574     0.87747E+02 
  70492.8196     0.89021E+02 
  70525.0818     0.90309E+02 
  70557.3439     0.91610E+02 
  70589.6061     0.92926E+02 
  70621.8682     0.94257E+02 
  70654.1304     0.95601E+02 
  70686.3926     0.96960E+02 
  70718.6547     0.98333E+02 
  70750.9169     0.99721E+02 
  70783.1790     0.10112E+03 
  70815.4412     0.10254E+03 
  70847.7034     0.10397E+03 
  70879.9655     0.10542E+03 
  70912.2277     0.10688E+03 
  70944.4898     0.10836E+03 
  70976.7520     0.10985E+03 
  71009.0142     0.11136E+03 
  71041.2763     0.11288E+03 
  71073.5385     0.11442E+03 
  71105.8006     0.11597E+03 
  71138.0628     0.11754E+03 
  71170.3250     0.11912E+03 
  71202.5871     0.12072E+03 
  71234.8493     0.12233E+03 
  71267.1114     0.12396E+03 
  71299.3736     0.12561E+03 
  71331.6358     0.12727E+03 
  71363.8979     0.12895E+03 
  71396.1601     0.13064E+03 
  71428.4222     0.13235E+03 
  71460.6844     0.13407E+03 
  71492.9466     0.13582E+03 
  71525.2087     0.13757E+03 
  71557.4709     0.13935E+03 
  71589.7330     0.14114E+03 
  71621.9952     0.14294E+03 
  71654.2574     0.14476E+03 
  71686.5195     0.14660E+03 
  71718.7817     0.14846E+03 
  71751.0438     0.15033E+03 
  71783.3060     0.15222E+03 
  71815.5682     0.15412E+03 
  71847.8303     0.15604E+03 
  71880.0925     0.15798E+03 
  71912.3546     0.15993E+03 
  71944.6168     0.16190E+03 
  71976.8790     0.16389E+03 
  72009.1411     0.16589E+03 
  72041.4033     0.16791E+03 
  72073.6654     0.16995E+03 
  72105.9276     0.17200E+03 
  72138.1898     0.17407E+03 
  72170.4519     0.17616E+03 
  72202.7141     0.17826E+03 
  72234.9762     0.18038E+03 
  72267.2384     0.18252E+03 
  72299.5006     0.18468E+03 
  72331.7627     0.18685E+03 
  72364.0249     0.18903E+03 
  72396.2870     0.19124E+03 
  72428.5492     0.19346E+03 
  72460.8114     0.19570E+03 
  72493.0735     0.19796E+03 
  72525.3357     0.20023E+03 
  72557.5978     0.20252E+03 
  72589.8600     0.20482E+03 
