  32262.1600     0.58978E-03 
  32294.4222     0.59660E-03 
  32326.6843     0.60348E-03 
  32358.9465     0.61040E-03 
  32391.2086     0.61738E-03 
  32423.4708     0.62441E-03 
  32455.7330     0.63150E-03 
  32487.9951     0.63863E-03 
  32520.2573     0.64582E-03 
  32552.5194     0.65306E-03 
  32584.7816     0.66035E-03 
  32617.0438     0.66770E-03 
  32649.3059     0.67509E-03 
  32681.5681     0.68254E-03 
  32713.8302     0.69004E-03 
  32746.0924     0.69759E-03 
  32778.3546     0.70519E-03 
  32810.6167     0.71285E-03 
  32842.8789     0.72056E-03 
  32875.1410     0.72831E-03 
  32907.4032     0.73612E-03 
  32939.6654     0.74399E-03 
  32971.9275     0.75190E-03 
  33004.1897     0.75986E-03 
  33036.4518     0.76788E-03 
  33068.7140     0.77594E-03 
  33100.9762     0.78406E-03 
  33133.2383     0.79223E-03 
  33165.5005     0.80045E-03 
  33197.7626     0.80872E-03 
  33230.0248     0.81704E-03 
  33262.2870     0.82541E-03 
  33294.5491     0.83383E-03 
  33326.8113     0.84230E-03 
  33359.0734     0.85082E-03 
  33391.3356     0.85939E-03 
  33423.5978     0.86801E-03 
  33455.8599     0.87668E-03 
  33488.1221     0.88539E-03 
  33520.3842     0.89416E-03 
  33552.6464     0.90298E-03 
  33584.9086     0.91184E-03 
  33617.1707     0.92075E-03 
  33649.4329     0.92971E-03 
  33681.6950     0.93872E-03 
  33713.9572     0.94777E-03 
  33746.2194     0.95687E-03 
  33778.4815     0.96602E-03 
  33810.7437     0.97522E-03 
  33843.0058     0.98446E-03 
  33875.2680     0.99375E-03 
  33907.5302     0.10031E-02 
  33939.7923     0.10125E-02 
  33972.0545     0.10219E-02 
  34004.3166     0.10314E-02 
  34036.5788     0.10409E-02 
  34068.8410     0.10504E-02 
  34101.1031     0.10600E-02 
  34133.3653     0.10697E-02 
  34165.6274     0.10794E-02 
  34197.8896     0.10891E-02 
  34230.1518     0.10989E-02 
  34262.4139     0.11087E-02 
  34294.6761     0.11186E-02 
  34326.9382     0.11285E-02 
  34359.2004     0.11384E-02 
  34391.4626     0.11484E-02 
  34423.7247     0.11584E-02 
  34455.9869     0.11685E-02 
  34488.2490     0.11786E-02 
  34520.5112     0.11887E-02 
  34552.7734     0.11989E-02 
  34585.0355     0.12091E-02 
  34617.2977     0.12194E-02 
  34649.5598     0.12297E-02 
  34681.8220     0.12400E-02 
  34714.0842     0.12504E-02 
  34746.3463     0.12608E-02 
  34778.6085     0.12712E-02 
  34810.8706     0.12817E-02 
  34843.1328     0.12922E-02 
  34875.3950     0.13028E-02 
  34907.6571     0.13134E-02 
  34939.9193     0.13240E-02 
  34972.1814     0.13346E-02 
  35004.4436     0.13453E-02 
  35036.7058     0.13560E-02 
  35068.9679     0.13667E-02 
  35101.2301     0.13775E-02 
  35133.4922     0.13883E-02 
  35165.7544     0.13992E-02 
  35198.0166     0.14100E-02 
  35230.2787     0.14209E-02 
  35262.5409     0.14318E-02 
  35294.8030     0.14428E-02 
  35327.0652     0.14538E-02 
  35359.3274     0.14648E-02 
  35391.5895     0.14758E-02 
  35423.8517     0.14868E-02 
  35456.1138     0.14979E-02 
  35488.3760     0.15090E-02 
  35520.6382     0.15201E-02 
  35552.9003     0.15313E-02 
  35585.1625     0.15424E-02 
  35617.4246     0.15536E-02 
  35649.6868     0.15648E-02 
  35681.9490     0.15761E-02 
  35714.2111     0.15873E-02 
  35746.4733     0.15986E-02 
  35778.7354     0.16099E-02 
  35810.9976     0.16212E-02 
  35843.2598     0.16325E-02 
  35875.5219     0.16439E-02 
  35907.7841     0.16552E-02 
  35940.0462     0.16666E-02 
  35972.3084     0.16780E-02 
  36004.5706     0.16894E-02 
  36036.8327     0.17008E-02 
  36069.0949     0.17122E-02 
  36101.3570     0.17237E-02 
  36133.6192     0.17351E-02 
  36165.8814     0.17466E-02 
  36198.1435     0.17581E-02 
  36230.4057     0.17695E-02 
  36262.6678     0.17810E-02 
  36294.9300     0.17925E-02 
  36327.1922     0.18040E-02 
  36359.4543     0.18156E-02 
  36391.7165     0.18271E-02 
  36423.9786     0.18386E-02 
  36456.2408     0.18501E-02 
  36488.5030     0.18617E-02 
  36520.7651     0.18732E-02 
  36553.0273     0.18847E-02 
  36585.2894     0.18963E-02 
  36617.5516     0.19078E-02 
  36649.8138     0.19193E-02 
  36682.0759     0.19309E-02 
  36714.3381     0.19424E-02 
  36746.6002     0.19540E-02 
  36778.8624     0.19655E-02 
  36811.1246     0.19770E-02 
  36843.3867     0.19885E-02 
  36875.6489     0.20001E-02 
  36907.9110     0.20116E-02 
  36940.1732     0.20231E-02 
  36972.4354     0.20346E-02 
  37004.6975     0.20461E-02 
  37036.9597     0.20575E-02 
  37069.2218     0.20690E-02 
  37101.4840     0.20805E-02 
  37133.7462     0.20919E-02 
  37166.0083     0.21034E-02 
  37198.2705     0.21148E-02 
  37230.5326     0.21262E-02 
  37262.7948     0.21376E-02 
  37295.0570     0.21490E-02 
  37327.3191     0.21603E-02 
  37359.5813     0.21717E-02 
  37391.8434     0.21830E-02 
  37424.1056     0.21943E-02 
  37456.3678     0.22056E-02 
  37488.6299     0.22169E-02 
  37520.8921     0.22282E-02 
  37553.1542     0.22394E-02 
  37585.4164     0.22506E-02 
  37617.6786     0.22618E-02 
  37649.9407     0.22730E-02 
  37682.2029     0.22841E-02 
  37714.4650     0.22952E-02 
  37746.7272     0.23063E-02 
  37778.9894     0.23174E-02 
  37811.2515     0.23284E-02 
  37843.5137     0.23394E-02 
  37875.7758     0.23504E-02 
  37908.0380     0.23614E-02 
  37940.3002     0.23723E-02 
  37972.5623     0.23832E-02 
  38004.8245     0.23940E-02 
  38037.0866     0.24049E-02 
  38069.3488     0.24157E-02 
  38101.6110     0.24264E-02 
  38133.8731     0.24371E-02 
  38166.1353     0.24478E-02 
  38198.3974     0.24585E-02 
  38230.6596     0.24691E-02 
  38262.9218     0.24797E-02 
  38295.1839     0.24902E-02 
  38327.4461     0.25007E-02 
  38359.7082     0.25112E-02 
  38391.9704     0.25216E-02 
  38424.2326     0.25320E-02 
  38456.4947     0.25423E-02 
  38488.7569     0.25526E-02 
  38521.0190     0.25628E-02 
  38553.2812     0.25730E-02 
  38585.5434     0.25832E-02 
  38617.8055     0.25933E-02 
  38650.0677     0.26034E-02 
  38682.3298     0.26134E-02 
  38714.5920     0.26234E-02 
  38746.8542     0.26333E-02 
  38779.1163     0.26432E-02 
  38811.3785     0.26530E-02 
  38843.6406     0.26628E-02 
  38875.9028     0.26725E-02 
  38908.1650     0.26822E-02 
  38940.4271     0.26918E-02 
  38972.6893     0.27013E-02 
  39004.9514     0.27108E-02 
  39037.2136     0.27203E-02 
  39069.4758     0.27297E-02 
  39101.7379     0.27390E-02 
  39134.0001     0.27483E-02 
  39166.2622     0.27575E-02 
  39198.5244     0.27667E-02 
  39230.7866     0.27758E-02 
  39263.0487     0.27849E-02 
  39295.3109     0.27939E-02 
  39327.5730     0.28028E-02 
  39359.8352     0.28117E-02 
  39392.0974     0.28205E-02 
  39424.3595     0.28292E-02 
  39456.6217     0.28379E-02 
  39488.8838     0.28465E-02 
  39521.1460     0.28551E-02 
  39553.4082     0.28636E-02 
  39585.6703     0.28720E-02 
  39617.9325     0.28804E-02 
  39650.1946     0.28887E-02 
  39682.4568     0.28969E-02 
  39714.7190     0.29050E-02 
  39746.9811     0.29131E-02 
  39779.2433     0.29212E-02 
  39811.5054     0.29291E-02 
  39843.7676     0.29370E-02 
  39876.0298     0.29448E-02 
  39908.2919     0.29525E-02 
  39940.5541     0.29602E-02 
  39972.8162     0.29678E-02 
  40005.0784     0.29753E-02 
  40037.3406     0.29828E-02 
  40069.6027     0.29902E-02 
  40101.8649     0.29975E-02 
  40134.1270     0.30047E-02 
  40166.3892     0.30119E-02 
  40198.6514     0.30190E-02 
  40230.9135     0.30260E-02 
  40263.1757     0.30329E-02 
  40295.4378     0.30397E-02 
  40327.7000     0.30465E-02 
  40359.9622     0.30532E-02 
  40392.2243     0.30598E-02 
  40424.4865     0.30664E-02 
  40456.7486     0.30728E-02 
  40489.0108     0.30792E-02 
  40521.2730     0.30855E-02 
  40553.5351     0.30918E-02 
  40585.7973     0.30979E-02 
  40618.0594     0.31040E-02 
  40650.3216     0.31099E-02 
  40682.5838     0.31159E-02 
  40714.8459     0.31217E-02 
  40747.1081     0.31274E-02 
  40779.3702     0.31331E-02 
  40811.6324     0.31386E-02 
  40843.8946     0.31441E-02 
  40876.1567     0.31495E-02 
  40908.4189     0.31549E-02 
  40940.6810     0.31601E-02 
  40972.9432     0.31652E-02 
  41005.2054     0.31703E-02 
  41037.4675     0.31753E-02 
  41069.7297     0.31802E-02 
  41101.9918     0.31850E-02 
  41134.2540     0.31897E-02 
  41166.5162     0.31944E-02 
  41198.7783     0.31989E-02 
  41231.0405     0.32034E-02 
  41263.3026     0.32078E-02 
  41295.5648     0.32121E-02 
  41327.8270     0.32163E-02 
  41360.0891     0.32204E-02 
  41392.3513     0.32244E-02 
  41424.6134     0.32284E-02 
  41456.8756     0.32322E-02 
  41489.1378     0.32360E-02 
  41521.3999     0.32397E-02 
  41553.6621     0.32433E-02 
  41585.9242     0.32468E-02 
  41618.1864     0.32502E-02 
  41650.4486     0.32535E-02 
  41682.7107     0.32568E-02 
  41714.9729     0.32599E-02 
  41747.2350     0.32630E-02 
  41779.4972     0.32659E-02 
  41811.7594     0.32688E-02 
  41844.0215     0.32716E-02 
  41876.2837     0.32743E-02 
  41908.5458     0.32769E-02 
  41940.8080     0.32795E-02 
  41973.0702     0.32819E-02 
  42005.3323     0.32842E-02 
  42037.5945     0.32865E-02 
  42069.8566     0.32886E-02 
  42102.1188     0.32907E-02 
  42134.3810     0.32927E-02 
  42166.6431     0.32946E-02 
  42198.9053     0.32964E-02 
  42231.1674     0.32981E-02 
  42263.4296     0.32997E-02 
  42295.6918     0.33013E-02 
  42327.9539     0.33027E-02 
  42360.2161     0.33041E-02 
  42392.4782     0.33053E-02 
  42424.7404     0.33065E-02 
  42457.0026     0.33076E-02 
  42489.2647     0.33086E-02 
  42521.5269     0.33095E-02 
  42553.7890     0.33103E-02 
  42586.0512     0.33110E-02 
  42618.3134     0.33116E-02 
  42650.5755     0.33122E-02 
  42682.8377     0.33126E-02 
  42715.0998     0.33130E-02 
  42747.3620     0.33133E-02 
  42779.6242     0.33135E-02 
  42811.8863     0.33136E-02 
  42844.1485     0.33136E-02 
  42876.4106     0.33135E-02 
  42908.6728     0.33133E-02 
  42940.9350     0.33131E-02 
  42973.1971     0.33127E-02 
  43005.4593     0.33123E-02 
  43037.7214     0.33118E-02 
  43069.9836     0.33112E-02 
  43102.2458     0.33105E-02 
  43134.5079     0.33097E-02 
  43166.7701     0.33088E-02 
  43199.0322     0.33078E-02 
  43231.2944     0.33068E-02 
  43263.5566     0.33057E-02 
  43295.8187     0.33045E-02 
  43328.0809     0.33032E-02 
  43360.3430     0.33018E-02 
  43392.6052     0.33003E-02 
  43424.8674     0.32987E-02 
  43457.1295     0.32971E-02 
  43489.3917     0.32954E-02 
  43521.6538     0.32935E-02 
  43553.9160     0.32916E-02 
  43586.1782     0.32897E-02 
  43618.4403     0.32876E-02 
  43650.7025     0.32855E-02 
  43682.9646     0.32832E-02 
  43715.2268     0.32809E-02 
  43747.4890     0.32785E-02 
  43779.7511     0.32760E-02 
  43812.0133     0.32735E-02 
  43844.2754     0.32708E-02 
  43876.5376     0.32681E-02 
  43908.7998     0.32653E-02 
  43941.0619     0.32624E-02 
  43973.3241     0.32594E-02 
  44005.5862     0.32564E-02 
  44037.8484     0.32533E-02 
  44070.1106     0.32501E-02 
  44102.3727     0.32468E-02 
  44134.6349     0.32434E-02 
  44166.8970     0.32400E-02 
  44199.1592     0.32365E-02 
  44231.4214     0.32329E-02 
  44263.6835     0.32292E-02 
  44295.9457     0.32255E-02 
  44328.2078     0.32216E-02 
  44360.4700     0.32177E-02 
  44392.7322     0.32138E-02 
  44424.9943     0.32097E-02 
  44457.2565     0.32056E-02 
  44489.5186     0.32014E-02 
  44521.7808     0.31971E-02 
  44554.0430     0.31928E-02 
  44586.3051     0.31883E-02 
  44618.5673     0.31839E-02 
  44650.8294     0.31793E-02 
  44683.0916     0.31747E-02 
  44715.3538     0.31700E-02 
  44747.6159     0.31652E-02 
  44779.8781     0.31603E-02 
  44812.1402     0.31554E-02 
  44844.4024     0.31504E-02 
  44876.6646     0.31454E-02 
  44908.9267     0.31403E-02 
  44941.1889     0.31351E-02 
  44973.4510     0.31298E-02 
  45005.7132     0.31245E-02 
  45037.9754     0.31191E-02 
  45070.2375     0.31136E-02 
  45102.4997     0.31081E-02 
  45134.7618     0.31025E-02 
  45167.0240     0.30969E-02 
  45199.2862     0.30912E-02 
  45231.5483     0.30854E-02 
  45263.8105     0.30795E-02 
  45296.0726     0.30736E-02 
  45328.3348     0.30677E-02 
  45360.5970     0.30616E-02 
  45392.8591     0.30556E-02 
  45425.1213     0.30494E-02 
  45457.3834     0.30432E-02 
  45489.6456     0.30369E-02 
  45521.9078     0.30306E-02 
  45554.1699     0.30242E-02 
  45586.4321     0.30178E-02 
  45618.6942     0.30113E-02 
  45650.9564     0.30047E-02 
  45683.2186     0.29981E-02 
  45715.4807     0.29914E-02 
  45747.7429     0.29847E-02 
  45780.0050     0.29779E-02 
  45812.2672     0.29711E-02 
  45844.5294     0.29642E-02 
  45876.7915     0.29573E-02 
  45909.0537     0.29503E-02 
  45941.3158     0.29432E-02 
  45973.5780     0.29361E-02 
  46005.8402     0.29290E-02 
  46038.1023     0.29218E-02 
  46070.3645     0.29145E-02 
  46102.6266     0.29072E-02 
  46134.8888     0.28999E-02 
  46167.1510     0.28925E-02 
  46199.4131     0.28850E-02 
  46231.6753     0.28776E-02 
  46263.9374     0.28700E-02 
  46296.1996     0.28624E-02 
  46328.4618     0.28548E-02 
  46360.7239     0.28471E-02 
  46392.9861     0.28394E-02 
  46425.2482     0.28317E-02 
  46457.5104     0.28239E-02 
  46489.7726     0.28160E-02 
  46522.0347     0.28081E-02 
  46554.2969     0.28002E-02 
  46586.5590     0.27922E-02 
  46618.8212     0.27842E-02 
  46651.0834     0.27762E-02 
  46683.3455     0.27681E-02 
  46715.6077     0.27599E-02 
  46747.8698     0.27518E-02 
  46780.1320     0.27436E-02 
  46812.3942     0.27353E-02 
  46844.6563     0.27270E-02 
  46876.9185     0.27187E-02 
  46909.1806     0.27104E-02 
  46941.4428     0.27020E-02 
  46973.7050     0.26936E-02 
  47005.9671     0.26851E-02 
  47038.2293     0.26766E-02 
  47070.4914     0.26681E-02 
  47102.7536     0.26596E-02 
  47135.0158     0.26510E-02 
  47167.2779     0.26424E-02 
  47199.5401     0.26337E-02 
  47231.8022     0.26250E-02 
  47264.0644     0.26163E-02 
  47296.3266     0.26076E-02 
  47328.5887     0.25988E-02 
  47360.8509     0.25900E-02 
  47393.1130     0.25812E-02 
  47425.3752     0.25724E-02 
  47457.6374     0.25635E-02 
  47489.8995     0.25546E-02 
  47522.1617     0.25457E-02 
  47554.4238     0.25368E-02 
  47586.6860     0.25278E-02 
  47618.9482     0.25188E-02 
  47651.2103     0.25098E-02 
  47683.4725     0.25007E-02 
  47715.7346     0.24917E-02 
  47747.9968     0.24826E-02 
  47780.2590     0.24735E-02 
  47812.5211     0.24644E-02 
  47844.7833     0.24552E-02 
  47877.0454     0.24461E-02 
  47909.3076     0.24369E-02 
  47941.5698     0.24277E-02 
  47973.8319     0.24185E-02 
  48006.0941     0.24092E-02 
  48038.3562     0.24000E-02 
  48070.6184     0.23907E-02 
  48102.8806     0.23814E-02 
  48135.1427     0.23721E-02 
  48167.4049     0.23628E-02 
  48199.6670     0.23535E-02 
  48231.9292     0.23442E-02 
  48264.1914     0.23348E-02 
  48296.4535     0.23254E-02 
  48328.7157     0.23161E-02 
  48360.9778     0.23067E-02 
  48393.2400     0.22973E-02 
  48425.5022     0.22879E-02 
  48457.7643     0.22784E-02 
  48490.0265     0.22690E-02 
  48522.2886     0.22596E-02 
  48554.5508     0.22501E-02 
  48586.8130     0.22406E-02 
  48619.0751     0.22312E-02 
  48651.3373     0.22217E-02 
  48683.5994     0.22122E-02 
  48715.8616     0.22027E-02 
  48748.1238     0.21932E-02 
  48780.3859     0.21837E-02 
  48812.6481     0.21742E-02 
  48844.9102     0.21647E-02 
  48877.1724     0.21552E-02 
  48909.4346     0.21457E-02 
  48941.6967     0.21362E-02 
  48973.9589     0.21267E-02 
  49006.2210     0.21171E-02 
  49038.4832     0.21076E-02 
  49070.7454     0.20981E-02 
  49103.0075     0.20885E-02 
  49135.2697     0.20790E-02 
  49167.5318     0.20695E-02 
  49199.7940     0.20600E-02 
  49232.0562     0.20504E-02 
  49264.3183     0.20409E-02 
  49296.5805     0.20314E-02 
  49328.8426     0.20218E-02 
  49361.1048     0.20123E-02 
  49393.3670     0.20028E-02 
  49425.6291     0.19933E-02 
  49457.8913     0.19838E-02 
  49490.1534     0.19743E-02 
  49522.4156     0.19647E-02 
  49554.6778     0.19552E-02 
  49586.9399     0.19457E-02 
  49619.2021     0.19363E-02 
  49651.4642     0.19268E-02 
  49683.7264     0.19173E-02 
  49715.9886     0.19078E-02 
  49748.2507     0.18984E-02 
  49780.5129     0.18889E-02 
  49812.7750     0.18794E-02 
  49845.0372     0.18700E-02 
  49877.2994     0.18606E-02 
  49909.5615     0.18511E-02 
  49941.8237     0.18417E-02 
  49974.0858     0.18323E-02 
  50006.3480     0.18229E-02 
  50038.6102     0.18135E-02 
  50070.8723     0.18042E-02 
  50103.1345     0.17948E-02 
  50135.3966     0.17854E-02 
  50167.6588     0.17761E-02 
  50199.9210     0.17668E-02 
  50232.1831     0.17574E-02 
  50264.4453     0.17481E-02 
  50296.7074     0.17388E-02 
  50328.9696     0.17296E-02 
  50361.2318     0.17203E-02 
  50393.4939     0.17110E-02 
  50425.7561     0.17018E-02 
  50458.0182     0.16926E-02 
  50490.2804     0.16834E-02 
  50522.5426     0.16742E-02 
  50554.8047     0.16650E-02 
  50587.0669     0.16558E-02 
  50619.3290     0.16467E-02 
  50651.5912     0.16375E-02 
  50683.8534     0.16284E-02 
  50716.1155     0.16193E-02 
  50748.3777     0.16102E-02 
  50780.6398     0.16012E-02 
  50812.9020     0.15921E-02 
  50845.1642     0.15831E-02 
  50877.4263     0.15741E-02 
  50909.6885     0.15651E-02 
  50941.9506     0.15561E-02 
  50974.2128     0.15472E-02 
  51006.4750     0.15382E-02 
  51038.7371     0.15293E-02 
  51070.9993     0.15204E-02 
  51103.2614     0.15115E-02 
  51135.5236     0.15027E-02 
  51167.7858     0.14938E-02 
  51200.0479     0.14850E-02 
  51232.3101     0.14762E-02 
  51264.5722     0.14674E-02 
  51296.8344     0.14587E-02 
  51329.0966     0.14499E-02 
  51361.3587     0.14412E-02 
  51393.6209     0.14325E-02 
  51425.8830     0.14239E-02 
  51458.1452     0.14152E-02 
  51490.4074     0.14066E-02 
  51522.6695     0.13980E-02 
  51554.9317     0.13894E-02 
  51587.1938     0.13808E-02 
  51619.4560     0.13723E-02 
  51651.7182     0.13638E-02 
  51683.9803     0.13553E-02 
  51716.2425     0.13469E-02 
  51748.5046     0.13384E-02 
  51780.7668     0.13300E-02 
  51813.0290     0.13216E-02 
  51845.2911     0.13132E-02 
  51877.5533     0.13049E-02 
  51909.8154     0.12966E-02 
  51942.0776     0.12883E-02 
  51974.3398     0.12800E-02 
  52006.6019     0.12718E-02 
  52038.8641     0.12636E-02 
  52071.1262     0.12554E-02 
  52103.3884     0.12472E-02 
  52135.6506     0.12391E-02 
  52167.9127     0.12310E-02 
  52200.1749     0.12229E-02 
  52232.4370     0.12148E-02 
  52264.6992     0.12068E-02 
  52296.9614     0.11988E-02 
  52329.2235     0.11908E-02 
  52361.4857     0.11828E-02 
  52393.7478     0.11749E-02 
  52426.0100     0.11670E-02 
  52458.2722     0.11591E-02 
  52490.5343     0.11513E-02 
  52522.7965     0.11435E-02 
  52555.0586     0.11357E-02 
  52587.3208     0.11279E-02 
  52619.5830     0.11202E-02 
  52651.8451     0.11125E-02 
  52684.1073     0.11048E-02 
  52716.3694     0.10971E-02 
  52748.6316     0.10895E-02 
  52780.8938     0.10819E-02 
  52813.1559     0.10744E-02 
  52845.4181     0.10668E-02 
  52877.6802     0.10593E-02 
  52909.9424     0.10518E-02 
  52942.2046     0.10444E-02 
  52974.4667     0.10369E-02 
  53006.7289     0.10295E-02 
  53038.9910     0.10222E-02 
  53071.2532     0.10148E-02 
  53103.5154     0.10075E-02 
  53135.7775     0.10002E-02 
  53168.0397     0.99299E-03 
  53200.3018     0.98577E-03 
  53232.5640     0.97858E-03 
  53264.8262     0.97141E-03 
  53297.0883     0.96428E-03 
  53329.3505     0.95717E-03 
  53361.6126     0.95010E-03 
  53393.8748     0.94305E-03 
  53426.1370     0.93603E-03 
  53458.3991     0.92905E-03 
  53490.6613     0.92209E-03 
  53522.9234     0.91516E-03 
  53555.1856     0.90826E-03 
  53587.4478     0.90139E-03 
  53619.7099     0.89455E-03 
  53651.9721     0.88774E-03 
  53684.2342     0.88096E-03 
  53716.4964     0.87421E-03 
  53748.7586     0.86749E-03 
  53781.0207     0.86080E-03 
  53813.2829     0.85414E-03 
  53845.5450     0.84751E-03 
  53877.8072     0.84091E-03 
  53910.0694     0.83434E-03 
  53942.3315     0.82780E-03 
  53974.5937     0.82129E-03 
  54006.8558     0.81481E-03 
  54039.1180     0.80836E-03 
  54071.3802     0.80194E-03 
  54103.6423     0.79555E-03 
  54135.9045     0.78918E-03 
  54168.1666     0.78285E-03 
  54200.4288     0.77655E-03 
  54232.6910     0.77028E-03 
  54264.9531     0.76404E-03 
  54297.2153     0.75783E-03 
  54329.4774     0.75165E-03 
  54361.7396     0.74550E-03 
  54394.0018     0.73938E-03 
  54426.2639     0.73328E-03 
  54458.5261     0.72722E-03 
  54490.7882     0.72119E-03 
  54523.0504     0.71519E-03 
  54555.3126     0.70922E-03 
  54587.5747     0.70328E-03 
  54619.8369     0.69736E-03 
  54652.0990     0.69148E-03 
  54684.3612     0.68563E-03 
  54716.6234     0.67981E-03 
  54748.8855     0.67401E-03 
  54781.1477     0.66825E-03 
  54813.4098     0.66252E-03 
  54845.6720     0.65681E-03 
  54877.9342     0.65114E-03 
  54910.1963     0.64549E-03 
  54942.4585     0.63988E-03 
  54974.7206     0.63429E-03 
  55006.9828     0.62874E-03 
  55039.2450     0.62321E-03 
  55071.5071     0.61771E-03 
  55103.7693     0.61224E-03 
  55136.0314     0.60680E-03 
  55168.2936     0.60139E-03 
  55200.5558     0.59601E-03 
  55232.8179     0.59066E-03 
  55265.0801     0.58534E-03 
  55297.3422     0.58005E-03 
  55329.6044     0.57478E-03 
  55361.8666     0.56955E-03 
  55394.1287     0.56434E-03 
  55426.3909     0.55916E-03 
  55458.6530     0.55401E-03 
  55490.9152     0.54889E-03 
  55523.1774     0.54380E-03 
  55555.4395     0.53874E-03 
  55587.7017     0.53371E-03 
  55619.9638     0.52870E-03 
  55652.2260     0.52372E-03 
  55684.4882     0.51877E-03 
  55716.7503     0.51385E-03 
  55749.0125     0.50896E-03 
  55781.2746     0.50410E-03 
  55813.5368     0.49926E-03 
  55845.7990     0.49446E-03 
  55878.0611     0.48968E-03 
  55910.3233     0.48493E-03 
  55942.5854     0.48020E-03 
  55974.8476     0.47551E-03 
  56007.1098     0.47084E-03 
  56039.3719     0.46620E-03 
  56071.6341     0.46159E-03 
  56103.8962     0.45700E-03 
  56136.1584     0.45244E-03 
  56168.4206     0.44791E-03 
  56200.6827     0.44341E-03 
  56232.9449     0.43894E-03 
  56265.2070     0.43449E-03 
  56297.4692     0.43007E-03 
  56329.7314     0.42567E-03 
  56361.9935     0.42131E-03 
  56394.2557     0.41697E-03 
  56426.5178     0.41265E-03 
  56458.7800     0.40837E-03 
  56491.0422     0.40411E-03 
  56523.3043     0.39988E-03 
  56555.5665     0.39567E-03 
  56587.8286     0.39149E-03 
  56620.0908     0.38734E-03 
  56652.3530     0.38321E-03 
  56684.6151     0.37911E-03 
  56716.8773     0.37503E-03 
  56749.1394     0.37099E-03 
  56781.4016     0.36696E-03 
  56813.6638     0.36297E-03 
  56845.9259     0.35900E-03 
  56878.1881     0.35505E-03 
  56910.4502     0.35113E-03 
  56942.7124     0.34724E-03 
  56974.9746     0.34337E-03 
  57007.2367     0.33953E-03 
  57039.4989     0.33571E-03 
  57071.7610     0.33192E-03 
  57104.0232     0.32815E-03 
  57136.2854     0.32441E-03 
  57168.5475     0.32070E-03 
  57200.8097     0.31701E-03 
  57233.0718     0.31334E-03 
  57265.3340     0.30970E-03 
  57297.5962     0.30608E-03 
  57329.8583     0.30249E-03 
  57362.1205     0.29892E-03 
  57394.3826     0.29538E-03 
  57426.6448     0.29186E-03 
  57458.9070     0.28837E-03 
  57491.1691     0.28490E-03 
  57523.4313     0.28145E-03 
  57555.6934     0.27803E-03 
  57587.9556     0.27464E-03 
  57620.2178     0.27126E-03 
  57652.4799     0.26791E-03 
  57684.7421     0.26459E-03 
  57717.0042     0.26129E-03 
  57749.2664     0.25801E-03 
  57781.5286     0.25476E-03 
  57813.7907     0.25153E-03 
  57846.0529     0.24832E-03 
  57878.3150     0.24513E-03 
  57910.5772     0.24197E-03 
  57942.8394     0.23884E-03 
  57975.1015     0.23572E-03 
  58007.3637     0.23263E-03 
  58039.6258     0.22956E-03 
  58071.8880     0.22652E-03 
  58104.1502     0.22350E-03 
  58136.4123     0.22050E-03 
  58168.6745     0.21752E-03 
  58200.9366     0.21457E-03 
  58233.1988     0.21164E-03 
  58265.4610     0.20873E-03 
  58297.7231     0.20584E-03 
  58329.9853     0.20298E-03 
  58362.2474     0.20013E-03 
  58394.5096     0.19732E-03 
  58426.7718     0.19452E-03 
  58459.0339     0.19174E-03 
  58491.2961     0.18899E-03 
  58523.5582     0.18626E-03 
  58555.8204     0.18355E-03 
  58588.0826     0.18086E-03 
  58620.3447     0.17820E-03 
  58652.6069     0.17555E-03 
  58684.8690     0.17293E-03 
  58717.1312     0.17033E-03 
  58749.3934     0.16775E-03 
  58781.6555     0.16519E-03 
  58813.9177     0.16265E-03 
  58846.1798     0.16014E-03 
  58878.4420     0.15765E-03 
  58910.7042     0.15517E-03 
  58942.9663     0.15272E-03 
  58975.2285     0.15029E-03 
  59007.4906     0.14788E-03 
  59039.7528     0.14549E-03 
  59072.0150     0.14313E-03 
  59104.2771     0.14078E-03 
  59136.5393     0.13846E-03 
  59168.8014     0.13615E-03 
  59201.0636     0.13387E-03 
  59233.3258     0.13161E-03 
  59265.5879     0.12936E-03 
  59297.8501     0.12714E-03 
  59330.1122     0.12494E-03 
  59362.3744     0.12276E-03 
  59394.6366     0.12060E-03 
  59426.8987     0.11846E-03 
  59459.1609     0.11634E-03 
  59491.4230     0.11424E-03 
  59523.6852     0.11217E-03 
  59555.9474     0.11011E-03 
  59588.2095     0.10807E-03 
  59620.4717     0.10605E-03 
  59652.7338     0.10406E-03 
  59684.9960     0.10208E-03 
  59717.2582     0.10012E-03 
  59749.5203     0.98189E-04 
  59781.7825     0.96273E-04 
  59814.0446     0.94377E-04 
  59846.3068     0.92502E-04 
  59878.5690     0.90647E-04 
  59910.8311     0.88811E-04 
  59943.0933     0.86996E-04 
  59975.3554     0.85201E-04 
  60007.6176     0.83426E-04 
  60039.8798     0.81671E-04 
  60072.1419     0.79936E-04 
  60104.4041     0.78222E-04 
  60136.6662     0.76527E-04 
  60168.9284     0.74852E-04 
  60201.1906     0.73198E-04 
  60233.4527     0.71563E-04 
  60265.7149     0.69949E-04 
  60297.9770     0.68355E-04 
  60330.2392     0.66781E-04 
  60362.5014     0.65227E-04 
  60394.7635     0.63693E-04 
  60427.0257     0.62179E-04 
  60459.2878     0.60686E-04 
  60491.5500     0.59212E-04 
  60523.8122     0.57759E-04 
  60556.0743     0.56327E-04 
  60588.3365     0.54914E-04 
  60620.5986     0.53522E-04 
  60652.8608     0.52150E-04 
  60685.1230     0.50799E-04 
  60717.3851     0.49468E-04 
  60749.6473     0.48157E-04 
  60781.9094     0.46868E-04 
  60814.1716     0.45598E-04 
  60846.4338     0.44350E-04 
  60878.6959     0.43122E-04 
  60910.9581     0.41915E-04 
  60943.2202     0.40728E-04 
  60975.4824     0.39563E-04 
  61007.7446     0.38419E-04 
  61040.0067     0.37295E-04 
  61072.2689     0.36193E-04 
  61104.5310     0.35112E-04 
  61136.7932     0.34052E-04 
  61169.0554     0.33014E-04 
  61201.3175     0.31997E-04 
  61233.5797     0.31002E-04 
  61265.8418     0.30028E-04 
  61298.1040     0.29076E-04 
  61330.3662     0.28146E-04 
  61362.6283     0.27238E-04 
  61394.8905     0.26352E-04 
  61427.1526     0.25488E-04 
  61459.4148     0.24647E-04 
  61491.6770     0.23828E-04 
  61523.9391     0.23032E-04 
  61556.2013     0.22258E-04 
  61588.4634     0.21507E-04 
  61620.7256     0.20780E-04 
  61652.9878     0.20075E-04 
  61685.2499     0.19394E-04 
  61717.5121     0.18736E-04 
  61749.7742     0.18102E-04 
  61782.0364     0.17492E-04 
  61814.2986     0.16906E-04 
  61846.5607     0.16343E-04 
  61878.8229     0.15806E-04 
  61911.0850     0.15293E-04 
  61943.3472     0.14804E-04 
  61975.6094     0.14341E-04 
  62007.8715     0.13902E-04 
  62040.1337     0.13489E-04 
  62072.3958     0.13102E-04 
  62104.6580     0.12740E-04 
  62136.9202     0.12405E-04 
  62169.1823     0.12095E-04 
  62201.4445     0.11813E-04 
  62233.7066     0.11557E-04 
  62265.9688     0.11328E-04 
  62298.2310     0.11126E-04 
  62330.4931     0.10952E-04 
  62362.7553     0.10805E-04 
  62395.0174     0.10687E-04 
  62427.2796     0.10597E-04 
  62459.5418     0.10536E-04 
  62491.8039     0.10504E-04 
  62524.0661     0.10501E-04 
  62556.3282     0.10528E-04 
  62588.5904     0.10584E-04 
  62620.8526     0.10671E-04 
  62653.1147     0.10789E-04 
  62685.3769     0.10938E-04 
  62717.6390     0.11117E-04 
  62749.9012     0.11329E-04 
  62782.1634     0.11573E-04 
  62814.4255     0.11849E-04 
  62846.6877     0.12158E-04 
  62878.9498     0.12500E-04 
  62911.2120     0.12876E-04 
  62943.4742     0.13285E-04 
  62975.7363     0.13730E-04 
  63007.9985     0.14209E-04 
  63040.2606     0.14724E-04 
  63072.5228     0.15274E-04 
  63104.7850     0.15861E-04 
  63137.0471     0.16484E-04 
  63169.3093     0.17145E-04 
  63201.5714     0.17844E-04 
  63233.8336     0.18580E-04 
  63266.0958     0.19356E-04 
  63298.3579     0.20170E-04 
  63330.6201     0.21025E-04 
  63362.8822     0.21920E-04 
  63395.1444     0.22856E-04 
  63427.4066     0.23833E-04 
  63459.6687     0.24852E-04 
  63491.9309     0.25915E-04 
  63524.1930     0.27020E-04 
  63556.4552     0.28169E-04 
  63588.7174     0.29363E-04 
  63620.9795     0.30602E-04 
  63653.2417     0.31886E-04 
  63685.5038     0.33217E-04 
  63717.7660     0.34596E-04 
  63750.0282     0.36022E-04 
  63782.2903     0.37496E-04 
  63814.5525     0.39020E-04 
  63846.8146     0.40594E-04 
  63879.0768     0.42219E-04 
  63911.3390     0.43895E-04 
  63943.6011     0.45623E-04 
  63975.8633     0.47404E-04 
  64008.1254     0.49239E-04 
  64040.3876     0.51129E-04 
  64072.6498     0.53075E-04 
  64104.9119     0.55076E-04 
  64137.1741     0.57135E-04 
  64169.4362     0.59252E-04 
  64201.6984     0.61428E-04 
  64233.9606     0.63664E-04 
  64266.2227     0.65960E-04 
  64298.4849     0.68318E-04 
  64330.7470     0.70739E-04 
  64363.0092     0.73224E-04 
  64395.2714     0.75773E-04 
  64427.5335     0.78388E-04 
  64459.7957     0.81069E-04 
  64492.0578     0.83819E-04 
  64524.3200     0.86637E-04 
  64556.5822     0.89524E-04 
  64588.8443     0.92483E-04 
  64621.1065     0.95514E-04 
  64653.3686     0.98618E-04 
  64685.6308     0.10180E-03 
  64717.8930     0.10505E-03 
  64750.1551     0.10838E-03 
  64782.4173     0.11179E-03 
  64814.6794     0.11528E-03 
  64846.9416     0.11884E-03 
  64879.2038     0.12249E-03 
  64911.4659     0.12622E-03 
  64943.7281     0.13004E-03 
  64975.9902     0.13394E-03 
  65008.2524     0.13793E-03 
  65040.5146     0.14201E-03 
  65072.7767     0.14617E-03 
  65105.0389     0.15043E-03 
  65137.3010     0.15478E-03 
  65169.5632     0.15922E-03 
  65201.8254     0.16376E-03 
  65234.0875     0.16840E-03 
  65266.3497     0.17313E-03 
  65298.6118     0.17797E-03 
  65330.8740     0.18290E-03 
  65363.1362     0.18794E-03 
  65395.3983     0.19308E-03 
  65427.6605     0.19833E-03 
  65459.9226     0.20369E-03 
  65492.1848     0.20916E-03 
  65524.4470     0.21473E-03 
  65556.7091     0.22042E-03 
  65588.9713     0.22623E-03 
  65621.2334     0.23215E-03 
  65653.4956     0.23819E-03 
  65685.7578     0.24435E-03 
  65718.0199     0.25064E-03 
  65750.2821     0.25704E-03 
  65782.5442     0.26358E-03 
  65814.8064     0.27024E-03 
  65847.0686     0.27702E-03 
  65879.3307     0.28395E-03 
  65911.5929     0.29100E-03 
  65943.8550     0.29819E-03 
  65976.1172     0.30552E-03 
  66008.3794     0.31299E-03 
  66040.6415     0.32060E-03 
  66072.9037     0.32835E-03 
  66105.1658     0.33625E-03 
  66137.4280     0.34430E-03 
  66169.6902     0.35249E-03 
  66201.9523     0.36084E-03 
  66234.2145     0.36935E-03 
  66266.4766     0.37801E-03 
  66298.7388     0.38684E-03 
  66331.0010     0.39582E-03 
  66363.2631     0.40497E-03 
  66395.5253     0.41429E-03 
  66427.7874     0.42377E-03 
  66460.0496     0.43343E-03 
  66492.3118     0.44326E-03 
  66524.5739     0.45327E-03 
  66556.8361     0.46345E-03 
  66589.0982     0.47382E-03 
  66621.3604     0.48438E-03 
  66653.6226     0.49512E-03 
  66685.8847     0.50604E-03 
  66718.1469     0.51717E-03 
  66750.4090     0.52848E-03 
  66782.6712     0.54000E-03 
  66814.9334     0.55171E-03 
  66847.1955     0.56363E-03 
  66879.4577     0.57576E-03 
  66911.7198     0.58809E-03 
  66943.9820     0.60064E-03 
  66976.2442     0.61340E-03 
  67008.5063     0.62638E-03 
  67040.7685     0.63958E-03 
  67073.0306     0.65300E-03 
  67105.2928     0.66665E-03 
  67137.5550     0.68053E-03 
  67169.8171     0.69465E-03 
  67202.0793     0.70900E-03 
  67234.3414     0.72358E-03 
  67266.6036     0.73842E-03 
  67298.8658     0.75349E-03 
  67331.1279     0.76882E-03 
  67363.3901     0.78440E-03 
  67395.6522     0.80023E-03 
  67427.9144     0.81633E-03 
  67460.1766     0.83268E-03 
  67492.4387     0.84930E-03 
  67524.7009     0.86619E-03 
  67556.9630     0.88336E-03 
  67589.2252     0.90080E-03 
  67621.4874     0.91852E-03 
  67653.7495     0.93652E-03 
  67686.0117     0.95481E-03 
  67718.2738     0.97338E-03 
  67750.5360     0.99226E-03 
  67782.7982     0.10114E-02 
  67815.0603     0.10309E-02 
  67847.3225     0.10507E-02 
  67879.5846     0.10708E-02 
  67911.8468     0.10912E-02 
  67944.1090     0.11119E-02 
  67976.3711     0.11329E-02 
  68008.6333     0.11543E-02 
  68040.8954     0.11759E-02 
  68073.1576     0.11980E-02 
  68105.4198     0.12203E-02 
  68137.6819     0.12430E-02 
  68169.9441     0.12660E-02 
  68202.2062     0.12894E-02 
  68234.4684     0.13132E-02 
  68266.7306     0.13372E-02 
  68298.9927     0.13617E-02 
  68331.2549     0.13865E-02 
  68363.5170     0.14117E-02 
  68395.7792     0.14372E-02 
  68428.0414     0.14632E-02 
  68460.3035     0.14895E-02 
  68492.5657     0.15162E-02 
  68524.8278     0.15432E-02 
  68557.0900     0.15707E-02 
  68589.3522     0.15986E-02 
  68621.6143     0.16269E-02 
  68653.8765     0.16555E-02 
  68686.1386     0.16846E-02 
  68718.4008     0.17141E-02 
  68750.6630     0.17440E-02 
  68782.9251     0.17744E-02 
  68815.1873     0.18051E-02 
  68847.4494     0.18364E-02 
  68879.7116     0.18680E-02 
  68911.9738     0.19001E-02 
  68944.2359     0.19326E-02 
  68976.4981     0.19656E-02 
  69008.7602     0.19990E-02 
  69041.0224     0.20329E-02 
  69073.2846     0.20672E-02 
  69105.5467     0.21021E-02 
  69137.8089     0.21373E-02 
  69170.0710     0.21731E-02 
  69202.3332     0.22094E-02 
  69234.5954     0.22461E-02 
  69266.8575     0.22833E-02 
  69299.1197     0.23210E-02 
  69331.3818     0.23593E-02 
  69363.6440     0.23980E-02 
  69395.9062     0.24372E-02 
  69428.1683     0.24770E-02 
  69460.4305     0.25172E-02 
  69492.6926     0.25580E-02 
  69524.9548     0.25993E-02 
  69557.2170     0.26412E-02 
  69589.4791     0.26836E-02 
  69621.7413     0.27265E-02 
  69654.0034     0.27700E-02 
  69686.2656     0.28140E-02 
  69718.5278     0.28586E-02 
  69750.7899     0.29037E-02 
  69783.0521     0.29494E-02 
  69815.3142     0.29957E-02 
  69847.5764     0.30425E-02 
  69879.8386     0.30899E-02 
  69912.1007     0.31379E-02 
  69944.3629     0.31865E-02 
  69976.6250     0.32357E-02 
  70008.8872     0.32855E-02 
  70041.1494     0.33359E-02 
  70073.4115     0.33869E-02 
  70105.6737     0.34385E-02 
  70137.9358     0.34907E-02 
  70170.1980     0.35436E-02 
  70202.4602     0.35970E-02 
  70234.7223     0.36511E-02 
  70266.9845     0.37058E-02 
  70299.2466     0.37612E-02 
  70331.5088     0.38172E-02 
  70363.7710     0.38739E-02 
  70396.0331     0.39312E-02 
  70428.2953     0.39891E-02 
  70460.5574     0.40478E-02 
  70492.8196     0.41071E-02 
  70525.0818     0.41670E-02 
  70557.3439     0.42276E-02 
  70589.6061     0.42890E-02 
  70621.8682     0.43509E-02 
  70654.1304     0.44136E-02 
  70686.3926     0.44770E-02 
  70718.6547     0.45410E-02 
  70750.9169     0.46058E-02 
  70783.1790     0.46713E-02 
  70815.4412     0.47374E-02 
  70847.7034     0.48043E-02 
  70879.9655     0.48719E-02 
  70912.2277     0.49402E-02 
  70944.4898     0.50093E-02 
  70976.7520     0.50791E-02 
  71009.0142     0.51496E-02 
  71041.2763     0.52208E-02 
  71073.5385     0.52928E-02 
  71105.8006     0.53655E-02 
  71138.0628     0.54390E-02 
  71170.3250     0.55132E-02 
  71202.5871     0.55881E-02 
  71234.8493     0.56639E-02 
  71267.1114     0.57404E-02 
  71299.3736     0.58176E-02 
  71331.6358     0.58956E-02 
  71363.8979     0.59744E-02 
  71396.1601     0.60540E-02 
  71428.4222     0.61343E-02 
  71460.6844     0.62155E-02 
  71492.9466     0.62974E-02 
  71525.2087     0.63801E-02 
  71557.4709     0.64636E-02 
  71589.7330     0.65479E-02 
  71621.9952     0.66329E-02 
  71654.2574     0.67188E-02 
  71686.5195     0.68055E-02 
  71718.7817     0.68930E-02 
  71751.0438     0.69813E-02 
  71783.3060     0.70704E-02 
  71815.5682     0.71604E-02 
  71847.8303     0.72511E-02 
  71880.0925     0.73427E-02 
  71912.3546     0.74350E-02 
  71944.6168     0.75282E-02 
  71976.8790     0.76223E-02 
  72009.1411     0.77171E-02 
  72041.4033     0.78128E-02 
  72073.6654     0.79094E-02 
  72105.9276     0.80067E-02 
  72138.1898     0.81049E-02 
  72170.4519     0.82040E-02 
  72202.7141     0.83038E-02 
  72234.9762     0.84045E-02 
  72267.2384     0.85061E-02 
  72299.5006     0.86085E-02 
  72331.7627     0.87118E-02 
  72364.0249     0.88159E-02 
  72396.2870     0.89208E-02 
  72428.5492     0.90266E-02 
  72460.8114     0.91333E-02 
  72493.0735     0.92408E-02 
  72525.3357     0.93491E-02 
  72557.5978     0.94583E-02 
  72589.8600     0.95684E-02 
