  32262.1600     0.19382E+03 
  32294.4222     0.19651E+03 
  32326.6843     0.19923E+03 
  32358.9465     0.20197E+03 
  32391.2086     0.20474E+03 
  32423.4708     0.20753E+03 
  32455.7330     0.21036E+03 
  32487.9951     0.21321E+03 
  32520.2573     0.21608E+03 
  32552.5194     0.21899E+03 
  32584.7816     0.22192E+03 
  32617.0438     0.22487E+03 
  32649.3059     0.22786E+03 
  32681.5681     0.23087E+03 
  32713.8302     0.23391E+03 
  32746.0924     0.23697E+03 
  32778.3546     0.24007E+03 
  32810.6167     0.24319E+03 
  32842.8789     0.24633E+03 
  32875.1410     0.24951E+03 
  32907.4032     0.25271E+03 
  32939.6654     0.25594E+03 
  32971.9275     0.25919E+03 
  33004.1897     0.26248E+03 
  33036.4518     0.26579E+03 
  33068.7140     0.26912E+03 
  33100.9762     0.27249E+03 
  33133.2383     0.27588E+03 
  33165.5005     0.27930E+03 
  33197.7626     0.28275E+03 
  33230.0248     0.28622E+03 
  33262.2870     0.28972E+03 
  33294.5491     0.29325E+03 
  33326.8113     0.29680E+03 
  33359.0734     0.30038E+03 
  33391.3356     0.30399E+03 
  33423.5978     0.30763E+03 
  33455.8599     0.31129E+03 
  33488.1221     0.31498E+03 
  33520.3842     0.31870E+03 
  33552.6464     0.32244E+03 
  33584.9086     0.32621E+03 
  33617.1707     0.33000E+03 
  33649.4329     0.33382E+03 
  33681.6950     0.33767E+03 
  33713.9572     0.34155E+03 
  33746.2194     0.34545E+03 
  33778.4815     0.34937E+03 
  33810.7437     0.35333E+03 
  33843.0058     0.35731E+03 
  33875.2680     0.36131E+03 
  33907.5302     0.36534E+03 
  33939.7923     0.36939E+03 
  33972.0545     0.37347E+03 
  34004.3166     0.37758E+03 
  34036.5788     0.38171E+03 
  34068.8410     0.38587E+03 
  34101.1031     0.39005E+03 
  34133.3653     0.39425E+03 
  34165.6274     0.39848E+03 
  34197.8896     0.40274E+03 
  34230.1518     0.40701E+03 
  34262.4139     0.41132E+03 
  34294.6761     0.41564E+03 
  34326.9382     0.41999E+03 
  34359.2004     0.42436E+03 
  34391.4626     0.42876E+03 
  34423.7247     0.43318E+03 
  34455.9869     0.43762E+03 
  34488.2490     0.44209E+03 
  34520.5112     0.44657E+03 
  34552.7734     0.45108E+03 
  34585.0355     0.45562E+03 
  34617.2977     0.46017E+03 
  34649.5598     0.46474E+03 
  34681.8220     0.46934E+03 
  34714.0842     0.47396E+03 
  34746.3463     0.47860E+03 
  34778.6085     0.48326E+03 
  34810.8706     0.48794E+03 
  34843.1328     0.49264E+03 
  34875.3950     0.49736E+03 
  34907.6571     0.50210E+03 
  34939.9193     0.50685E+03 
  34972.1814     0.51163E+03 
  35004.4436     0.51643E+03 
  35036.7058     0.52124E+03 
  35068.9679     0.52608E+03 
  35101.2301     0.53093E+03 
  35133.4922     0.53580E+03 
  35165.7544     0.54069E+03 
  35198.0166     0.54559E+03 
  35230.2787     0.55051E+03 
  35262.5409     0.55545E+03 
  35294.8030     0.56040E+03 
  35327.0652     0.56537E+03 
  35359.3274     0.57036E+03 
  35391.5895     0.57536E+03 
  35423.8517     0.58037E+03 
  35456.1138     0.58541E+03 
  35488.3760     0.59045E+03 
  35520.6382     0.59551E+03 
  35552.9003     0.60058E+03 
  35585.1625     0.60567E+03 
  35617.4246     0.61076E+03 
  35649.6868     0.61587E+03 
  35681.9490     0.62100E+03 
  35714.2111     0.62613E+03 
  35746.4733     0.63128E+03 
  35778.7354     0.63644E+03 
  35810.9976     0.64161E+03 
  35843.2598     0.64678E+03 
  35875.5219     0.65197E+03 
  35907.7841     0.65717E+03 
  35940.0462     0.66238E+03 
  35972.3084     0.66760E+03 
  36004.5706     0.67282E+03 
  36036.8327     0.67805E+03 
  36069.0949     0.68330E+03 
  36101.3570     0.68854E+03 
  36133.6192     0.69380E+03 
  36165.8814     0.69906E+03 
  36198.1435     0.70433E+03 
  36230.4057     0.70960E+03 
  36262.6678     0.71488E+03 
  36294.9300     0.72017E+03 
  36327.1922     0.72545E+03 
  36359.4543     0.73075E+03 
  36391.7165     0.73604E+03 
  36423.9786     0.74134E+03 
  36456.2408     0.74664E+03 
  36488.5030     0.75195E+03 
  36520.7651     0.75725E+03 
  36553.0273     0.76256E+03 
  36585.2894     0.76787E+03 
  36617.5516     0.77318E+03 
  36649.8138     0.77849E+03 
  36682.0759     0.78380E+03 
  36714.3381     0.78911E+03 
  36746.6002     0.79442E+03 
  36778.8624     0.79972E+03 
  36811.1246     0.80503E+03 
  36843.3867     0.81033E+03 
  36875.6489     0.81563E+03 
  36907.9110     0.82093E+03 
  36940.1732     0.82622E+03 
  36972.4354     0.83151E+03 
  37004.6975     0.83679E+03 
  37036.9597     0.84207E+03 
  37069.2218     0.84734E+03 
  37101.4840     0.85261E+03 
  37133.7462     0.85787E+03 
  37166.0083     0.86312E+03 
  37198.2705     0.86837E+03 
  37230.5326     0.87361E+03 
  37262.7948     0.87884E+03 
  37295.0570     0.88406E+03 
  37327.3191     0.88927E+03 
  37359.5813     0.89447E+03 
  37391.8434     0.89966E+03 
  37424.1056     0.90485E+03 
  37456.3678     0.91002E+03 
  37488.6299     0.91518E+03 
  37520.8921     0.92032E+03 
  37553.1542     0.92546E+03 
  37585.4164     0.93058E+03 
  37617.6786     0.93569E+03 
  37649.9407     0.94079E+03 
  37682.2029     0.94587E+03 
  37714.4650     0.95093E+03 
  37746.7272     0.95598E+03 
  37778.9894     0.96102E+03 
  37811.2515     0.96604E+03 
  37843.5137     0.97104E+03 
  37875.7758     0.97603E+03 
  37908.0380     0.98100E+03 
  37940.3002     0.98595E+03 
  37972.5623     0.99089E+03 
  38004.8245     0.99580E+03 
  38037.0866     0.10007E+04 
  38069.3488     0.10056E+04 
  38101.6110     0.10104E+04 
  38133.8731     0.10153E+04 
  38166.1353     0.10201E+04 
  38198.3974     0.10249E+04 
  38230.6596     0.10296E+04 
  38262.9218     0.10344E+04 
  38295.1839     0.10391E+04 
  38327.4461     0.10438E+04 
  38359.7082     0.10485E+04 
  38391.9704     0.10532E+04 
  38424.2326     0.10578E+04 
  38456.4947     0.10624E+04 
  38488.7569     0.10670E+04 
  38521.0190     0.10716E+04 
  38553.2812     0.10761E+04 
  38585.5434     0.10806E+04 
  38617.8055     0.10851E+04 
  38650.0677     0.10895E+04 
  38682.3298     0.10940E+04 
  38714.5920     0.10983E+04 
  38746.8542     0.11027E+04 
  38779.1163     0.11071E+04 
  38811.3785     0.11114E+04 
  38843.6406     0.11156E+04 
  38875.9028     0.11199E+04 
  38908.1650     0.11241E+04 
  38940.4271     0.11283E+04 
  38972.6893     0.11325E+04 
  39004.9514     0.11366E+04 
  39037.2136     0.11407E+04 
  39069.4758     0.11448E+04 
  39101.7379     0.11488E+04 
  39134.0001     0.11528E+04 
  39166.2622     0.11568E+04 
  39198.5244     0.11607E+04 
  39230.7866     0.11646E+04 
  39263.0487     0.11685E+04 
  39295.3109     0.11723E+04 
  39327.5730     0.11761E+04 
  39359.8352     0.11799E+04 
  39392.0974     0.11836E+04 
  39424.3595     0.11873E+04 
  39456.6217     0.11909E+04 
  39488.8838     0.11946E+04 
  39521.1460     0.11981E+04 
  39553.4082     0.12017E+04 
  39585.6703     0.12052E+04 
  39617.9325     0.12087E+04 
  39650.1946     0.12121E+04 
  39682.4568     0.12155E+04 
  39714.7190     0.12188E+04 
  39746.9811     0.12222E+04 
  39779.2433     0.12254E+04 
  39811.5054     0.12287E+04 
  39843.7676     0.12319E+04 
  39876.0298     0.12350E+04 
  39908.2919     0.12382E+04 
  39940.5541     0.12412E+04 
  39972.8162     0.12443E+04 
  40005.0784     0.12473E+04 
  40037.3406     0.12502E+04 
  40069.6027     0.12532E+04 
  40101.8649     0.12560E+04 
  40134.1270     0.12589E+04 
  40166.3892     0.12617E+04 
  40198.6514     0.12644E+04 
  40230.9135     0.12671E+04 
  40263.1757     0.12698E+04 
  40295.4378     0.12724E+04 
  40327.7000     0.12750E+04 
  40359.9622     0.12775E+04 
  40392.2243     0.12800E+04 
  40424.4865     0.12825E+04 
  40456.7486     0.12849E+04 
  40489.0108     0.12872E+04 
  40521.2730     0.12896E+04 
  40553.5351     0.12918E+04 
  40585.7973     0.12941E+04 
  40618.0594     0.12963E+04 
  40650.3216     0.12984E+04 
  40682.5838     0.13005E+04 
  40714.8459     0.13025E+04 
  40747.1081     0.13046E+04 
  40779.3702     0.13065E+04 
  40811.6324     0.13084E+04 
  40843.8946     0.13103E+04 
  40876.1567     0.13121E+04 
  40908.4189     0.13139E+04 
  40940.6810     0.13157E+04 
  40972.9432     0.13174E+04 
  41005.2054     0.13190E+04 
  41037.4675     0.13206E+04 
  41069.7297     0.13222E+04 
  41101.9918     0.13237E+04 
  41134.2540     0.13251E+04 
  41166.5162     0.13265E+04 
  41198.7783     0.13279E+04 
  41231.0405     0.13292E+04 
  41263.3026     0.13305E+04 
  41295.5648     0.13318E+04 
  41327.8270     0.13329E+04 
  41360.0891     0.13341E+04 
  41392.3513     0.13352E+04 
  41424.6134     0.13362E+04 
  41456.8756     0.13372E+04 
  41489.1378     0.13382E+04 
  41521.3999     0.13391E+04 
  41553.6621     0.13400E+04 
  41585.9242     0.13408E+04 
  41618.1864     0.13415E+04 
  41650.4486     0.13423E+04 
  41682.7107     0.13429E+04 
  41714.9729     0.13436E+04 
  41747.2350     0.13442E+04 
  41779.4972     0.13447E+04 
  41811.7594     0.13452E+04 
  41844.0215     0.13456E+04 
  41876.2837     0.13460E+04 
  41908.5458     0.13464E+04 
  41940.8080     0.13467E+04 
  41973.0702     0.13470E+04 
  42005.3323     0.13472E+04 
  42037.5945     0.13473E+04 
  42069.8566     0.13475E+04 
  42102.1188     0.13476E+04 
  42134.3810     0.13476E+04 
  42166.6431     0.13476E+04 
  42198.9053     0.13475E+04 
  42231.1674     0.13474E+04 
  42263.4296     0.13473E+04 
  42295.6918     0.13471E+04 
  42327.9539     0.13468E+04 
  42360.2161     0.13466E+04 
  42392.4782     0.13462E+04 
  42424.7404     0.13459E+04 
  42457.0026     0.13455E+04 
  42489.2647     0.13450E+04 
  42521.5269     0.13445E+04 
  42553.7890     0.13439E+04 
  42586.0512     0.13434E+04 
  42618.3134     0.13427E+04 
  42650.5755     0.13420E+04 
  42682.8377     0.13413E+04 
  42715.0998     0.13406E+04 
  42747.3620     0.13397E+04 
  42779.6242     0.13389E+04 
  42811.8863     0.13380E+04 
  42844.1485     0.13371E+04 
  42876.4106     0.13361E+04 
  42908.6728     0.13351E+04 
  42940.9350     0.13340E+04 
  42973.1971     0.13329E+04 
  43005.4593     0.13317E+04 
  43037.7214     0.13306E+04 
  43069.9836     0.13293E+04 
  43102.2458     0.13281E+04 
  43134.5079     0.13267E+04 
  43166.7701     0.13254E+04 
  43199.0322     0.13240E+04 
  43231.2944     0.13226E+04 
  43263.5566     0.13211E+04 
  43295.8187     0.13196E+04 
  43328.0809     0.13180E+04 
  43360.3430     0.13164E+04 
  43392.6052     0.13148E+04 
  43424.8674     0.13131E+04 
  43457.1295     0.13114E+04 
  43489.3917     0.13097E+04 
  43521.6538     0.13079E+04 
  43553.9160     0.13061E+04 
  43586.1782     0.13042E+04 
  43618.4403     0.13023E+04 
  43650.7025     0.13004E+04 
  43682.9646     0.12984E+04 
  43715.2268     0.12964E+04 
  43747.4890     0.12944E+04 
  43779.7511     0.12923E+04 
  43812.0133     0.12902E+04 
  43844.2754     0.12880E+04 
  43876.5376     0.12858E+04 
  43908.7998     0.12836E+04 
  43941.0619     0.12814E+04 
  43973.3241     0.12791E+04 
  44005.5862     0.12767E+04 
  44037.8484     0.12744E+04 
  44070.1106     0.12720E+04 
  44102.3727     0.12696E+04 
  44134.6349     0.12671E+04 
  44166.8970     0.12646E+04 
  44199.1592     0.12621E+04 
  44231.4214     0.12595E+04 
  44263.6835     0.12569E+04 
  44295.9457     0.12543E+04 
  44328.2078     0.12517E+04 
  44360.4700     0.12490E+04 
  44392.7322     0.12463E+04 
  44424.9943     0.12435E+04 
  44457.2565     0.12407E+04 
  44489.5186     0.12379E+04 
  44521.7808     0.12351E+04 
  44554.0430     0.12322E+04 
  44586.3051     0.12293E+04 
  44618.5673     0.12264E+04 
  44650.8294     0.12235E+04 
  44683.0916     0.12205E+04 
  44715.3538     0.12175E+04 
  44747.6159     0.12145E+04 
  44779.8781     0.12114E+04 
  44812.1402     0.12083E+04 
  44844.4024     0.12052E+04 
  44876.6646     0.12021E+04 
  44908.9267     0.11989E+04 
  44941.1889     0.11957E+04 
  44973.4510     0.11925E+04 
  45005.7132     0.11892E+04 
  45037.9754     0.11860E+04 
  45070.2375     0.11827E+04 
  45102.4997     0.11794E+04 
  45134.7618     0.11760E+04 
  45167.0240     0.11727E+04 
  45199.2862     0.11693E+04 
  45231.5483     0.11659E+04 
  45263.8105     0.11624E+04 
  45296.0726     0.11590E+04 
  45328.3348     0.11555E+04 
  45360.5970     0.11520E+04 
  45392.8591     0.11485E+04 
  45425.1213     0.11450E+04 
  45457.3834     0.11414E+04 
  45489.6456     0.11378E+04 
  45521.9078     0.11342E+04 
  45554.1699     0.11306E+04 
  45586.4321     0.11270E+04 
  45618.6942     0.11233E+04 
  45650.9564     0.11197E+04 
  45683.2186     0.11160E+04 
  45715.4807     0.11123E+04 
  45747.7429     0.11085E+04 
  45780.0050     0.11048E+04 
  45812.2672     0.11010E+04 
  45844.5294     0.10973E+04 
  45876.7915     0.10935E+04 
  45909.0537     0.10897E+04 
  45941.3158     0.10858E+04 
  45973.5780     0.10820E+04 
  46005.8402     0.10781E+04 
  46038.1023     0.10743E+04 
  46070.3645     0.10704E+04 
  46102.6266     0.10665E+04 
  46134.8888     0.10626E+04 
  46167.1510     0.10586E+04 
  46199.4131     0.10547E+04 
  46231.6753     0.10507E+04 
  46263.9374     0.10468E+04 
  46296.1996     0.10428E+04 
  46328.4618     0.10388E+04 
  46360.7239     0.10348E+04 
  46392.9861     0.10308E+04 
  46425.2482     0.10268E+04 
  46457.5104     0.10227E+04 
  46489.7726     0.10187E+04 
  46522.0347     0.10146E+04 
  46554.2969     0.10106E+04 
  46586.5590     0.10065E+04 
  46618.8212     0.10024E+04 
  46651.0834     0.99830E+03 
  46683.3455     0.99420E+03 
  46715.6077     0.99009E+03 
  46747.8698     0.98597E+03 
  46780.1320     0.98184E+03 
  46812.3942     0.97771E+03 
  46844.6563     0.97357E+03 
  46876.9185     0.96942E+03 
  46909.1806     0.96526E+03 
  46941.4428     0.96110E+03 
  46973.7050     0.95693E+03 
  47005.9671     0.95276E+03 
  47038.2293     0.94858E+03 
  47070.4914     0.94440E+03 
  47102.7536     0.94021E+03 
  47135.0158     0.93601E+03 
  47167.2779     0.93181E+03 
  47199.5401     0.92761E+03 
  47231.8022     0.92340E+03 
  47264.0644     0.91919E+03 
  47296.3266     0.91498E+03 
  47328.5887     0.91076E+03 
  47360.8509     0.90654E+03 
  47393.1130     0.90232E+03 
  47425.3752     0.89809E+03 
  47457.6374     0.89386E+03 
  47489.8995     0.88963E+03 
  47522.1617     0.88540E+03 
  47554.4238     0.88117E+03 
  47586.6860     0.87694E+03 
  47618.9482     0.87270E+03 
  47651.2103     0.86847E+03 
  47683.4725     0.86423E+03 
  47715.7346     0.85999E+03 
  47747.9968     0.85576E+03 
  47780.2590     0.85152E+03 
  47812.5211     0.84729E+03 
  47844.7833     0.84305E+03 
  47877.0454     0.83882E+03 
  47909.3076     0.83459E+03 
  47941.5698     0.83036E+03 
  47973.8319     0.82613E+03 
  48006.0941     0.82190E+03 
  48038.3562     0.81768E+03 
  48070.6184     0.81346E+03 
  48102.8806     0.80924E+03 
  48135.1427     0.80502E+03 
  48167.4049     0.80081E+03 
  48199.6670     0.79660E+03 
  48231.9292     0.79239E+03 
  48264.1914     0.78819E+03 
  48296.4535     0.78399E+03 
  48328.7157     0.77979E+03 
  48360.9778     0.77560E+03 
  48393.2400     0.77141E+03 
  48425.5022     0.76723E+03 
  48457.7643     0.76305E+03 
  48490.0265     0.75888E+03 
  48522.2886     0.75472E+03 
  48554.5508     0.75055E+03 
  48586.8130     0.74640E+03 
  48619.0751     0.74225E+03 
  48651.3373     0.73810E+03 
  48683.5994     0.73397E+03 
  48715.8616     0.72983E+03 
  48748.1238     0.72571E+03 
  48780.3859     0.72159E+03 
  48812.6481     0.71748E+03 
  48844.9102     0.71338E+03 
  48877.1724     0.70928E+03 
  48909.4346     0.70519E+03 
  48941.6967     0.70111E+03 
  48973.9589     0.69703E+03 
  49006.2210     0.69297E+03 
  49038.4832     0.68891E+03 
  49070.7454     0.68486E+03 
  49103.0075     0.68082E+03 
  49135.2697     0.67678E+03 
  49167.5318     0.67276E+03 
  49199.7940     0.66874E+03 
  49232.0562     0.66473E+03 
  49264.3183     0.66074E+03 
  49296.5805     0.65675E+03 
  49328.8426     0.65277E+03 
  49361.1048     0.64880E+03 
  49393.3670     0.64484E+03 
  49425.6291     0.64089E+03 
  49457.8913     0.63695E+03 
  49490.1534     0.63302E+03 
  49522.4156     0.62910E+03 
  49554.6778     0.62519E+03 
  49586.9399     0.62129E+03 
  49619.2021     0.61740E+03 
  49651.4642     0.61352E+03 
  49683.7264     0.60965E+03 
  49715.9886     0.60580E+03 
  49748.2507     0.60195E+03 
  49780.5129     0.59812E+03 
  49812.7750     0.59429E+03 
  49845.0372     0.59048E+03 
  49877.2994     0.58668E+03 
  49909.5615     0.58289E+03 
  49941.8237     0.57912E+03 
  49974.0858     0.57535E+03 
  50006.3480     0.57160E+03 
  50038.6102     0.56786E+03 
  50070.8723     0.56413E+03 
  50103.1345     0.56041E+03 
  50135.3966     0.55671E+03 
  50167.6588     0.55301E+03 
  50199.9210     0.54933E+03 
  50232.1831     0.54567E+03 
  50264.4453     0.54201E+03 
  50296.7074     0.53837E+03 
  50328.9696     0.53474E+03 
  50361.2318     0.53112E+03 
  50393.4939     0.52752E+03 
  50425.7561     0.52393E+03 
  50458.0182     0.52035E+03 
  50490.2804     0.51679E+03 
  50522.5426     0.51324E+03 
  50554.8047     0.50970E+03 
  50587.0669     0.50617E+03 
  50619.3290     0.50266E+03 
  50651.5912     0.49917E+03 
  50683.8534     0.49568E+03 
  50716.1155     0.49221E+03 
  50748.3777     0.48875E+03 
  50780.6398     0.48531E+03 
  50812.9020     0.48188E+03 
  50845.1642     0.47847E+03 
  50877.4263     0.47507E+03 
  50909.6885     0.47168E+03 
  50941.9506     0.46831E+03 
  50974.2128     0.46495E+03 
  51006.4750     0.46160E+03 
  51038.7371     0.45827E+03 
  51070.9993     0.45495E+03 
  51103.2614     0.45165E+03 
  51135.5236     0.44836E+03 
  51167.7858     0.44509E+03 
  51200.0479     0.44183E+03 
  51232.3101     0.43858E+03 
  51264.5722     0.43535E+03 
  51296.8344     0.43213E+03 
  51329.0966     0.42893E+03 
  51361.3587     0.42574E+03 
  51393.6209     0.42257E+03 
  51425.8830     0.41941E+03 
  51458.1452     0.41627E+03 
  51490.4074     0.41314E+03 
  51522.6695     0.41003E+03 
  51554.9317     0.40693E+03 
  51587.1938     0.40384E+03 
  51619.4560     0.40077E+03 
  51651.7182     0.39771E+03 
  51683.9803     0.39467E+03 
  51716.2425     0.39165E+03 
  51748.5046     0.38863E+03 
  51780.7668     0.38564E+03 
  51813.0290     0.38265E+03 
  51845.2911     0.37969E+03 
  51877.5533     0.37673E+03 
  51909.8154     0.37380E+03 
  51942.0776     0.37087E+03 
  51974.3398     0.36796E+03 
  52006.6019     0.36507E+03 
  52038.8641     0.36219E+03 
  52071.1262     0.35933E+03 
  52103.3884     0.35648E+03 
  52135.6506     0.35365E+03 
  52167.9127     0.35083E+03 
  52200.1749     0.34802E+03 
  52232.4370     0.34523E+03 
  52264.6992     0.34246E+03 
  52296.9614     0.33970E+03 
  52329.2235     0.33695E+03 
  52361.4857     0.33422E+03 
  52393.7478     0.33150E+03 
  52426.0100     0.32880E+03 
  52458.2722     0.32612E+03 
  52490.5343     0.32345E+03 
  52522.7965     0.32079E+03 
  52555.0586     0.31815E+03 
  52587.3208     0.31552E+03 
  52619.5830     0.31291E+03 
  52651.8451     0.31031E+03 
  52684.1073     0.30773E+03 
  52716.3694     0.30516E+03 
  52748.6316     0.30260E+03 
  52780.8938     0.30006E+03 
  52813.1559     0.29754E+03 
  52845.4181     0.29503E+03 
  52877.6802     0.29253E+03 
  52909.9424     0.29005E+03 
  52942.2046     0.28758E+03 
  52974.4667     0.28513E+03 
  53006.7289     0.28269E+03 
  53038.9910     0.28027E+03 
  53071.2532     0.27786E+03 
  53103.5154     0.27546E+03 
  53135.7775     0.27308E+03 
  53168.0397     0.27072E+03 
  53200.3018     0.26837E+03 
  53232.5640     0.26603E+03 
  53264.8262     0.26370E+03 
  53297.0883     0.26139E+03 
  53329.3505     0.25910E+03 
  53361.6126     0.25682E+03 
  53393.8748     0.25455E+03 
  53426.1370     0.25230E+03 
  53458.3991     0.25006E+03 
  53490.6613     0.24783E+03 
  53522.9234     0.24562E+03 
  53555.1856     0.24342E+03 
  53587.4478     0.24124E+03 
  53619.7099     0.23907E+03 
  53651.9721     0.23691E+03 
  53684.2342     0.23477E+03 
  53716.4964     0.23264E+03 
  53748.7586     0.23053E+03 
  53781.0207     0.22842E+03 
  53813.2829     0.22634E+03 
  53845.5450     0.22426E+03 
  53877.8072     0.22220E+03 
  53910.0694     0.22015E+03 
  53942.3315     0.21812E+03 
  53974.5937     0.21610E+03 
  54006.8558     0.21409E+03 
  54039.1180     0.21210E+03 
  54071.3802     0.21012E+03 
  54103.6423     0.20815E+03 
  54135.9045     0.20619E+03 
  54168.1666     0.20425E+03 
  54200.4288     0.20232E+03 
  54232.6910     0.20041E+03 
  54264.9531     0.19850E+03 
  54297.2153     0.19661E+03 
  54329.4774     0.19474E+03 
  54361.7396     0.19287E+03 
  54394.0018     0.19102E+03 
  54426.2639     0.18918E+03 
  54458.5261     0.18735E+03 
  54490.7882     0.18554E+03 
  54523.0504     0.18374E+03 
  54555.3126     0.18195E+03 
  54587.5747     0.18017E+03 
  54619.8369     0.17841E+03 
  54652.0990     0.17666E+03 
  54684.3612     0.17492E+03 
  54716.6234     0.17319E+03 
  54748.8855     0.17148E+03 
  54781.1477     0.16977E+03 
  54813.4098     0.16808E+03 
  54845.6720     0.16640E+03 
  54877.9342     0.16474E+03 
  54910.1963     0.16308E+03 
  54942.4585     0.16144E+03 
  54974.7206     0.15981E+03 
  55006.9828     0.15819E+03 
  55039.2450     0.15658E+03 
  55071.5071     0.15499E+03 
  55103.7693     0.15340E+03 
  55136.0314     0.15183E+03 
  55168.2936     0.15027E+03 
  55200.5558     0.14872E+03 
  55232.8179     0.14718E+03 
  55265.0801     0.14565E+03 
  55297.3422     0.14413E+03 
  55329.6044     0.14263E+03 
  55361.8666     0.14114E+03 
  55394.1287     0.13965E+03 
  55426.3909     0.13818E+03 
  55458.6530     0.13672E+03 
  55490.9152     0.13527E+03 
  55523.1774     0.13383E+03 
  55555.4395     0.13240E+03 
  55587.7017     0.13099E+03 
  55619.9638     0.12958E+03 
  55652.2260     0.12818E+03 
  55684.4882     0.12680E+03 
  55716.7503     0.12543E+03 
  55749.0125     0.12406E+03 
  55781.2746     0.12271E+03 
  55813.5368     0.12136E+03 
  55845.7990     0.12003E+03 
  55878.0611     0.11871E+03 
  55910.3233     0.11740E+03 
  55942.5854     0.11609E+03 
  55974.8476     0.11480E+03 
  56007.1098     0.11352E+03 
  56039.3719     0.11225E+03 
  56071.6341     0.11099E+03 
  56103.8962     0.10973E+03 
  56136.1584     0.10849E+03 
  56168.4206     0.10726E+03 
  56200.6827     0.10604E+03 
  56232.9449     0.10482E+03 
  56265.2070     0.10362E+03 
  56297.4692     0.10243E+03 
  56329.7314     0.10124E+03 
  56361.9935     0.10007E+03 
  56394.2557     0.98901E+02 
  56426.5178     0.97745E+02 
  56458.7800     0.96598E+02 
  56491.0422     0.95461E+02 
  56523.3043     0.94332E+02 
  56555.5665     0.93213E+02 
  56587.8286     0.92103E+02 
  56620.0908     0.91002E+02 
  56652.3530     0.89910E+02 
  56684.6151     0.88827E+02 
  56716.8773     0.87753E+02 
  56749.1394     0.86688E+02 
  56781.4016     0.85631E+02 
  56813.6638     0.84584E+02 
  56845.9259     0.83545E+02 
  56878.1881     0.82514E+02 
  56910.4502     0.81492E+02 
  56942.7124     0.80479E+02 
  56974.9746     0.79474E+02 
  57007.2367     0.78478E+02 
  57039.4989     0.77490E+02 
  57071.7610     0.76510E+02 
  57104.0232     0.75539E+02 
  57136.2854     0.74576E+02 
  57168.5475     0.73621E+02 
  57200.8097     0.72674E+02 
  57233.0718     0.71735E+02 
  57265.3340     0.70804E+02 
  57297.5962     0.69882E+02 
  57329.8583     0.68967E+02 
  57362.1205     0.68060E+02 
  57394.3826     0.67161E+02 
  57426.6448     0.66270E+02 
  57458.9070     0.65386E+02 
  57491.1691     0.64511E+02 
  57523.4313     0.63643E+02 
  57555.6934     0.62782E+02 
  57587.9556     0.61929E+02 
  57620.2178     0.61084E+02 
  57652.4799     0.60246E+02 
  57684.7421     0.59415E+02 
  57717.0042     0.58592E+02 
  57749.2664     0.57777E+02 
  57781.5286     0.56968E+02 
  57813.7907     0.56167E+02 
  57846.0529     0.55373E+02 
  57878.3150     0.54586E+02 
  57910.5772     0.53806E+02 
  57942.8394     0.53034E+02 
  57975.1015     0.52268E+02 
  58007.3637     0.51510E+02 
  58039.6258     0.50758E+02 
  58071.8880     0.50013E+02 
  58104.1502     0.49275E+02 
  58136.4123     0.48544E+02 
  58168.6745     0.47820E+02 
  58200.9366     0.47103E+02 
  58233.1988     0.46392E+02 
  58265.4610     0.45688E+02 
  58297.7231     0.44990E+02 
  58329.9853     0.44299E+02 
  58362.2474     0.43615E+02 
  58394.5096     0.42937E+02 
  58426.7718     0.42266E+02 
  58459.0339     0.41601E+02 
  58491.2961     0.40942E+02 
  58523.5582     0.40290E+02 
  58555.8204     0.39644E+02 
  58588.0826     0.39005E+02 
  58620.3447     0.38371E+02 
  58652.6069     0.37744E+02 
  58684.8690     0.37123E+02 
  58717.1312     0.36508E+02 
  58749.3934     0.35900E+02 
  58781.6555     0.35297E+02 
  58813.9177     0.34700E+02 
  58846.1798     0.34110E+02 
  58878.4420     0.33525E+02 
  58910.7042     0.32946E+02 
  58942.9663     0.32374E+02 
  58975.2285     0.31807E+02 
  59007.4906     0.31246E+02 
  59039.7528     0.30690E+02 
  59072.0150     0.30141E+02 
  59104.2771     0.29597E+02 
  59136.5393     0.29059E+02 
  59168.8014     0.28527E+02 
  59201.0636     0.28000E+02 
  59233.3258     0.27479E+02 
  59265.5879     0.26964E+02 
  59297.8501     0.26454E+02 
  59330.1122     0.25950E+02 
  59362.3744     0.25451E+02 
  59394.6366     0.24958E+02 
  59426.8987     0.24470E+02 
  59459.1609     0.23988E+02 
  59491.4230     0.23511E+02 
  59523.6852     0.23039E+02 
  59555.9474     0.22573E+02 
  59588.2095     0.22112E+02 
  59620.4717     0.21656E+02 
  59652.7338     0.21206E+02 
  59684.9960     0.20761E+02 
  59717.2582     0.20321E+02 
  59749.5203     0.19887E+02 
  59781.7825     0.19457E+02 
  59814.0446     0.19033E+02 
  59846.3068     0.18614E+02 
  59878.5690     0.18200E+02 
  59910.8311     0.17792E+02 
  59943.0933     0.17388E+02 
  59975.3554     0.16989E+02 
  60007.6176     0.16596E+02 
  60039.8798     0.16207E+02 
  60072.1419     0.15824E+02 
  60104.4041     0.15446E+02 
  60136.6662     0.15072E+02 
  60168.9284     0.14704E+02 
  60201.1906     0.14340E+02 
  60233.4527     0.13982E+02 
  60265.7149     0.13628E+02 
  60297.9770     0.13279E+02 
  60330.2392     0.12936E+02 
  60362.5014     0.12597E+02 
  60394.7635     0.12263E+02 
  60427.0257     0.11934E+02 
  60459.2878     0.11609E+02 
  60491.5500     0.11290E+02 
  60523.8122     0.10975E+02 
  60556.0743     0.10665E+02 
  60588.3365     0.10361E+02 
  60620.5986     0.10060E+02 
  60652.8608     0.97650E+01 
  60685.1230     0.94744E+01 
  60717.3851     0.91887E+01 
  60749.6473     0.89077E+01 
  60781.9094     0.86315E+01 
  60814.1716     0.83600E+01 
  60846.4338     0.80933E+01 
  60878.6959     0.78314E+01 
  60910.9581     0.75743E+01 
  60943.2202     0.73219E+01 
  60975.4824     0.70743E+01 
  61007.7446     0.68314E+01 
  61040.0067     0.65933E+01 
  61072.2689     0.63599E+01 
  61104.5310     0.61313E+01 
  61136.7932     0.59074E+01 
  61169.0554     0.56883E+01 
  61201.3175     0.54740E+01 
  61233.5797     0.52645E+01 
  61265.8418     0.50597E+01 
  61298.1040     0.48597E+01 
  61330.3662     0.46645E+01 
  61362.6283     0.44740E+01 
  61394.8905     0.42884E+01 
  61427.1526     0.41076E+01 
  61459.4148     0.39316E+01 
  61491.6770     0.37604E+01 
  61523.9391     0.35941E+01 
  61556.2013     0.34326E+01 
  61588.4634     0.32760E+01 
  61620.7256     0.31242E+01 
  61652.9878     0.29774E+01 
  61685.2499     0.28354E+01 
  61717.5121     0.26984E+01 
  61749.7742     0.25663E+01 
  61782.0364     0.24392E+01 
  61814.2986     0.23170E+01 
  61846.5607     0.21999E+01 
  61878.8229     0.20877E+01 
  61911.0850     0.19806E+01 
  61943.3472     0.18786E+01 
  61975.6094     0.17816E+01 
  62007.8715     0.16898E+01 
  62040.1337     0.16030E+01 
  62072.3958     0.15215E+01 
  62104.6580     0.14451E+01 
  62136.9202     0.13740E+01 
  62169.1823     0.13081E+01 
  62201.4445     0.12474E+01 
  62233.7066     0.11921E+01 
  62265.9688     0.11422E+01 
  62298.2310     0.10976E+01 
  62330.4931     0.10584E+01 
  62362.7553     0.10247E+01 
  62395.0174     0.99649E+00 
  62427.2796     0.97380E+00 
  62459.5418     0.95668E+00 
  62491.8039     0.94518E+00 
  62524.0661     0.93934E+00 
  62556.3282     0.93920E+00 
  62588.5904     0.94481E+00 
  62620.8526     0.95622E+00 
  62653.1147     0.97348E+00 
  62685.3769     0.99663E+00 
  62717.6390     0.10257E+01 
  62749.9012     0.10608E+01 
  62782.1634     0.11020E+01 
  62814.4255     0.11493E+01 
  62846.6877     0.12028E+01 
  62878.9498     0.12625E+01 
  62911.2120     0.13284E+01 
  62943.4742     0.14008E+01 
  62975.7363     0.14796E+01 
  63007.9985     0.15648E+01 
  63040.2606     0.16567E+01 
  63072.5228     0.17551E+01 
  63104.7850     0.18603E+01 
  63137.0471     0.19723E+01 
  63169.3093     0.20911E+01 
  63201.5714     0.22168E+01 
  63233.8336     0.23495E+01 
  63266.0958     0.24894E+01 
  63298.3579     0.26364E+01 
  63330.6201     0.27907E+01 
  63362.8822     0.29524E+01 
  63395.1444     0.31214E+01 
  63427.4066     0.32981E+01 
  63459.6687     0.34824E+01 
  63491.9309     0.36744E+01 
  63524.1930     0.38742E+01 
  63556.4552     0.40820E+01 
  63588.7174     0.42978E+01 
  63620.9795     0.45218E+01 
  63653.2417     0.47540E+01 
  63685.5038     0.49946E+01 
  63717.7660     0.52437E+01 
  63750.0282     0.55013E+01 
  63782.2903     0.57678E+01 
  63814.5525     0.60430E+01 
  63846.8146     0.63273E+01 
  63879.0768     0.66206E+01 
  63911.3390     0.69232E+01 
  63943.6011     0.72352E+01 
  63975.8633     0.75567E+01 
  64008.1254     0.78878E+01 
  64040.3876     0.82287E+01 
  64072.6498     0.85796E+01 
  64104.9119     0.89406E+01 
  64137.1741     0.93119E+01 
  64169.4362     0.96935E+01 
  64201.6984     0.10086E+02 
  64233.9606     0.10489E+02 
  64266.2227     0.10903E+02 
  64298.4849     0.11328E+02 
  64330.7470     0.11764E+02 
  64363.0092     0.12212E+02 
  64395.2714     0.12671E+02 
  64427.5335     0.13142E+02 
  64459.7957     0.13625E+02 
  64492.0578     0.14121E+02 
  64524.3200     0.14629E+02 
  64556.5822     0.15149E+02 
  64588.8443     0.15682E+02 
  64621.1065     0.16228E+02 
  64653.3686     0.16788E+02 
  64685.6308     0.17361E+02 
  64717.8930     0.17948E+02 
  64750.1551     0.18549E+02 
  64782.4173     0.19164E+02 
  64814.6794     0.19793E+02 
  64846.9416     0.20437E+02 
  64879.2038     0.21096E+02 
  64911.4659     0.21770E+02 
  64943.7281     0.22460E+02 
  64975.9902     0.23165E+02 
  65008.2524     0.23887E+02 
  65040.5146     0.24625E+02 
  65072.7767     0.25379E+02 
  65105.0389     0.26150E+02 
  65137.3010     0.26939E+02 
  65169.5632     0.27744E+02 
  65201.8254     0.28568E+02 
  65234.0875     0.29410E+02 
  65266.3497     0.30270E+02 
  65298.6118     0.31149E+02 
  65330.8740     0.32047E+02 
  65363.1362     0.32965E+02 
  65395.3983     0.33903E+02 
  65427.6605     0.34860E+02 
  65459.9226     0.35838E+02 
  65492.1848     0.36838E+02 
  65524.4470     0.37858E+02 
  65556.7091     0.38900E+02 
  65588.9713     0.39964E+02 
  65621.2334     0.41051E+02 
  65653.4956     0.42160E+02 
  65685.7578     0.43293E+02 
  65718.0199     0.44450E+02 
  65750.2821     0.45631E+02 
  65782.5442     0.46836E+02 
  65814.8064     0.48067E+02 
  65847.0686     0.49323E+02 
  65879.3307     0.50605E+02 
  65911.5929     0.51914E+02 
  65943.8550     0.53250E+02 
  65976.1172     0.54613E+02 
  66008.3794     0.56004E+02 
  66040.6415     0.57424E+02 
  66072.9037     0.58873E+02 
  66105.1658     0.60351E+02 
  66137.4280     0.61859E+02 
  66169.6902     0.63399E+02 
  66201.9523     0.64969E+02 
  66234.2145     0.66571E+02 
  66266.4766     0.68206E+02 
  66298.7388     0.69874E+02 
  66331.0010     0.71575E+02 
  66363.2631     0.73311E+02 
  66395.5253     0.75082E+02 
  66427.7874     0.76888E+02 
  66460.0496     0.78730E+02 
  66492.3118     0.80609E+02 
  66524.5739     0.82526E+02 
  66556.8361     0.84481E+02 
  66589.0982     0.86475E+02 
  66621.3604     0.88509E+02 
  66653.6226     0.90583E+02 
  66685.8847     0.92698E+02 
  66718.1469     0.94855E+02 
  66750.4090     0.97054E+02 
  66782.6712     0.99297E+02 
  66814.9334     0.10158E+03 
  66847.1955     0.10392E+03 
  66879.4577     0.10629E+03 
  66911.7198     0.10872E+03 
  66943.9820     0.11119E+03 
  66976.2442     0.11371E+03 
  67008.5063     0.11628E+03 
  67040.7685     0.11890E+03 
  67073.0306     0.12157E+03 
  67105.2928     0.12430E+03 
  67137.5550     0.12707E+03 
  67169.8171     0.12990E+03 
  67202.0793     0.13279E+03 
  67234.3414     0.13573E+03 
  67266.6036     0.13873E+03 
  67298.8658     0.14178E+03 
  67331.1279     0.14489E+03 
  67363.3901     0.14807E+03 
  67395.6522     0.15130E+03 
  67427.9144     0.15460E+03 
  67460.1766     0.15796E+03 
  67492.4387     0.16138E+03 
  67524.7009     0.16487E+03 
  67556.9630     0.16843E+03 
  67589.2252     0.17205E+03 
  67621.4874     0.17574E+03 
  67653.7495     0.17951E+03 
  67686.0117     0.18334E+03 
  67718.2738     0.18725E+03 
  67750.5360     0.19123E+03 
  67782.7982     0.19528E+03 
  67815.0603     0.19941E+03 
  67847.3225     0.20362E+03 
  67879.5846     0.20791E+03 
  67911.8468     0.21227E+03 
  67944.1090     0.21672E+03 
  67976.3711     0.22125E+03 
  68008.6333     0.22587E+03 
  68040.8954     0.23057E+03 
  68073.1576     0.23536E+03 
  68105.4198     0.24024E+03 
  68137.6819     0.24520E+03 
  68169.9441     0.25026E+03 
  68202.2062     0.25541E+03 
  68234.4684     0.26066E+03 
  68266.7306     0.26600E+03 
  68298.9927     0.27144E+03 
  68331.2549     0.27698E+03 
  68363.5170     0.28262E+03 
  68395.7792     0.28836E+03 
  68428.0414     0.29421E+03 
  68460.3035     0.30016E+03 
  68492.5657     0.30622E+03 
  68524.8278     0.31239E+03 
  68557.0900     0.31867E+03 
  68589.3522     0.32506E+03 
  68621.6143     0.33157E+03 
  68653.8765     0.33819E+03 
  68686.1386     0.34493E+03 
  68718.4008     0.35179E+03 
  68750.6630     0.35877E+03 
  68782.9251     0.36588E+03 
  68815.1873     0.37311E+03 
  68847.4494     0.38046E+03 
  68879.7116     0.38795E+03 
  68911.9738     0.39557E+03 
  68944.2359     0.40332E+03 
  68976.4981     0.41121E+03 
  69008.7602     0.41923E+03 
  69041.0224     0.42739E+03 
  69073.2846     0.43569E+03 
  69105.5467     0.44414E+03 
  69137.8089     0.45273E+03 
  69170.0710     0.46147E+03 
  69202.3332     0.47036E+03 
  69234.5954     0.47940E+03 
  69266.8575     0.48859E+03 
  69299.1197     0.49794E+03 
  69331.3818     0.50745E+03 
  69363.6440     0.51712E+03 
  69395.9062     0.52695E+03 
  69428.1683     0.53694E+03 
  69460.4305     0.54710E+03 
  69492.6926     0.55744E+03 
  69524.9548     0.56794E+03 
  69557.2170     0.57862E+03 
  69589.4791     0.58947E+03 
  69621.7413     0.60051E+03 
  69654.0034     0.61172E+03 
  69686.2656     0.62312E+03 
  69718.5278     0.63470E+03 
  69750.7899     0.64647E+03 
  69783.0521     0.65844E+03 
  69815.3142     0.67059E+03 
  69847.5764     0.68294E+03 
  69879.8386     0.69550E+03 
  69912.1007     0.70825E+03 
  69944.3629     0.72120E+03 
  69976.6250     0.73436E+03 
  70008.8872     0.74773E+03 
  70041.1494     0.76131E+03 
  70073.4115     0.77511E+03 
  70105.6737     0.78912E+03 
  70137.9358     0.80334E+03 
  70170.1980     0.81780E+03 
  70202.4602     0.83247E+03 
  70234.7223     0.84737E+03 
  70266.9845     0.86250E+03 
  70299.2466     0.87787E+03 
  70331.5088     0.89347E+03 
  70363.7710     0.90930E+03 
  70396.0331     0.92538E+03 
  70428.2953     0.94170E+03 
  70460.5574     0.95826E+03 
  70492.8196     0.97508E+03 
  70525.0818     0.99214E+03 
  70557.3439     0.10095E+04 
  70589.6061     0.10270E+04 
  70621.8682     0.10449E+04 
  70654.1304     0.10630E+04 
  70686.3926     0.10813E+04 
  70718.6547     0.11000E+04 
  70750.9169     0.11189E+04 
  70783.1790     0.11381E+04 
  70815.4412     0.11575E+04 
  70847.7034     0.11772E+04 
  70879.9655     0.11973E+04 
  70912.2277     0.12176E+04 
  70944.4898     0.12381E+04 
  70976.7520     0.12590E+04 
  71009.0142     0.12802E+04 
  71041.2763     0.13017E+04 
  71073.5385     0.13234E+04 
  71105.8006     0.13455E+04 
  71138.0628     0.13679E+04 
  71170.3250     0.13906E+04 
  71202.5871     0.14135E+04 
  71234.8493     0.14369E+04 
  71267.1114     0.14605E+04 
  71299.3736     0.14844E+04 
  71331.6358     0.15087E+04 
  71363.8979     0.15333E+04 
  71396.1601     0.15582E+04 
  71428.4222     0.15834E+04 
  71460.6844     0.16090E+04 
  71492.9466     0.16349E+04 
  71525.2087     0.16612E+04 
  71557.4709     0.16878E+04 
  71589.7330     0.17147E+04 
  71621.9952     0.17420E+04 
  71654.2574     0.17696E+04 
  71686.5195     0.17976E+04 
  71718.7817     0.18260E+04 
  71751.0438     0.18547E+04 
  71783.3060     0.18837E+04 
  71815.5682     0.19131E+04 
  71847.8303     0.19429E+04 
  71880.0925     0.19731E+04 
  71912.3546     0.20036E+04 
  71944.6168     0.20345E+04 
  71976.8790     0.20658E+04 
  72009.1411     0.20975E+04 
  72041.4033     0.21295E+04 
  72073.6654     0.21619E+04 
  72105.9276     0.21947E+04 
  72138.1898     0.22279E+04 
  72170.4519     0.22615E+04 
  72202.7141     0.22955E+04 
  72234.9762     0.23299E+04 
  72267.2384     0.23646E+04 
  72299.5006     0.23998E+04 
  72331.7627     0.24354E+04 
  72364.0249     0.24714E+04 
  72396.2870     0.25078E+04 
  72428.5492     0.25446E+04 
  72460.8114     0.25818E+04 
  72493.0735     0.26194E+04 
  72525.3357     0.26574E+04 
  72557.5978     0.26959E+04 
  72589.8600     0.27348E+04 
