  32262.1600     0.26691E+02 
  32294.4222     0.27020E+02 
  32326.6843     0.27353E+02 
  32358.9465     0.27689E+02 
  32391.2086     0.28027E+02 
  32423.4708     0.28368E+02 
  32455.7330     0.28712E+02 
  32487.9951     0.29059E+02 
  32520.2573     0.29408E+02 
  32552.5194     0.29761E+02 
  32584.7816     0.30116E+02 
  32617.0438     0.30474E+02 
  32649.3059     0.30835E+02 
  32681.5681     0.31199E+02 
  32713.8302     0.31566E+02 
  32746.0924     0.31935E+02 
  32778.3546     0.32308E+02 
  32810.6167     0.32683E+02 
  32842.8789     0.33061E+02 
  32875.1410     0.33442E+02 
  32907.4032     0.33825E+02 
  32939.6654     0.34212E+02 
  32971.9275     0.34601E+02 
  33004.1897     0.34993E+02 
  33036.4518     0.35388E+02 
  33068.7140     0.35786E+02 
  33100.9762     0.36187E+02 
  33133.2383     0.36591E+02 
  33165.5005     0.36997E+02 
  33197.7626     0.37406E+02 
  33230.0248     0.37818E+02 
  33262.2870     0.38233E+02 
  33294.5491     0.38650E+02 
  33326.8113     0.39071E+02 
  33359.0734     0.39494E+02 
  33391.3356     0.39920E+02 
  33423.5978     0.40349E+02 
  33455.8599     0.40780E+02 
  33488.1221     0.41214E+02 
  33520.3842     0.41651E+02 
  33552.6464     0.42091E+02 
  33584.9086     0.42534E+02 
  33617.1707     0.42979E+02 
  33649.4329     0.43427E+02 
  33681.6950     0.43877E+02 
  33713.9572     0.44331E+02 
  33746.2194     0.44787E+02 
  33778.4815     0.45246E+02 
  33810.7437     0.45707E+02 
  33843.0058     0.46171E+02 
  33875.2680     0.46638E+02 
  33907.5302     0.47107E+02 
  33939.7923     0.47579E+02 
  33972.0545     0.48054E+02 
  34004.3166     0.48531E+02 
  34036.5788     0.49011E+02 
  34068.8410     0.49493E+02 
  34101.1031     0.49978E+02 
  34133.3653     0.50465E+02 
  34165.6274     0.50955E+02 
  34197.8896     0.51447E+02 
  34230.1518     0.51942E+02 
  34262.4139     0.52439E+02 
  34294.6761     0.52939E+02 
  34326.9382     0.53441E+02 
  34359.2004     0.53946E+02 
  34391.4626     0.54453E+02 
  34423.7247     0.54963E+02 
  34455.9869     0.55474E+02 
  34488.2490     0.55988E+02 
  34520.5112     0.56505E+02 
  34552.7734     0.57023E+02 
  34585.0355     0.57544E+02 
  34617.2977     0.58068E+02 
  34649.5598     0.58593E+02 
  34681.8220     0.59121E+02 
  34714.0842     0.59651E+02 
  34746.3463     0.60183E+02 
  34778.6085     0.60717E+02 
  34810.8706     0.61253E+02 
  34843.1328     0.61791E+02 
  34875.3950     0.62332E+02 
  34907.6571     0.62874E+02 
  34939.9193     0.63419E+02 
  34972.1814     0.63965E+02 
  35004.4436     0.64514E+02 
  35036.7058     0.65064E+02 
  35068.9679     0.65616E+02 
  35101.2301     0.66171E+02 
  35133.4922     0.66727E+02 
  35165.7544     0.67285E+02 
  35198.0166     0.67844E+02 
  35230.2787     0.68406E+02 
  35262.5409     0.68969E+02 
  35294.8030     0.69534E+02 
  35327.0652     0.70100E+02 
  35359.3274     0.70669E+02 
  35391.5895     0.71238E+02 
  35423.8517     0.71810E+02 
  35456.1138     0.72383E+02 
  35488.3760     0.72957E+02 
  35520.6382     0.73534E+02 
  35552.9003     0.74111E+02 
  35585.1625     0.74690E+02 
  35617.4246     0.75270E+02 
  35649.6868     0.75852E+02 
  35681.9490     0.76435E+02 
  35714.2111     0.77019E+02 
  35746.4733     0.77605E+02 
  35778.7354     0.78192E+02 
  35810.9976     0.78780E+02 
  35843.2598     0.79369E+02 
  35875.5219     0.79959E+02 
  35907.7841     0.80551E+02 
  35940.0462     0.81143E+02 
  35972.3084     0.81737E+02 
  36004.5706     0.82331E+02 
  36036.8327     0.82927E+02 
  36069.0949     0.83523E+02 
  36101.3570     0.84120E+02 
  36133.6192     0.84718E+02 
  36165.8814     0.85317E+02 
  36198.1435     0.85916E+02 
  36230.4057     0.86517E+02 
  36262.6678     0.87118E+02 
  36294.9300     0.87719E+02 
  36327.1922     0.88321E+02 
  36359.4543     0.88924E+02 
  36391.7165     0.89527E+02 
  36423.9786     0.90131E+02 
  36456.2408     0.90735E+02 
  36488.5030     0.91340E+02 
  36520.7651     0.91945E+02 
  36553.0273     0.92550E+02 
  36585.2894     0.93156E+02 
  36617.5516     0.93761E+02 
  36649.8138     0.94367E+02 
  36682.0759     0.94973E+02 
  36714.3381     0.95580E+02 
  36746.6002     0.96186E+02 
  36778.8624     0.96792E+02 
  36811.1246     0.97399E+02 
  36843.3867     0.98005E+02 
  36875.6489     0.98611E+02 
  36907.9110     0.99217E+02 
  36940.1732     0.99823E+02 
  36972.4354     0.10043E+03 
  37004.6975     0.10103E+03 
  37036.9597     0.10164E+03 
  37069.2218     0.10224E+03 
  37101.4840     0.10285E+03 
  37133.7462     0.10345E+03 
  37166.0083     0.10405E+03 
  37198.2705     0.10466E+03 
  37230.5326     0.10526E+03 
  37262.7948     0.10586E+03 
  37295.0570     0.10646E+03 
  37327.3191     0.10706E+03 
  37359.5813     0.10766E+03 
  37391.8434     0.10826E+03 
  37424.1056     0.10886E+03 
  37456.3678     0.10946E+03 
  37488.6299     0.11005E+03 
  37520.8921     0.11065E+03 
  37553.1542     0.11124E+03 
  37585.4164     0.11183E+03 
  37617.6786     0.11243E+03 
  37649.9407     0.11302E+03 
  37682.2029     0.11361E+03 
  37714.4650     0.11419E+03 
  37746.7272     0.11478E+03 
  37778.9894     0.11537E+03 
  37811.2515     0.11595E+03 
  37843.5137     0.11653E+03 
  37875.7758     0.11712E+03 
  37908.0380     0.11770E+03 
  37940.3002     0.11827E+03 
  37972.5623     0.11885E+03 
  38004.8245     0.11943E+03 
  38037.0866     0.12000E+03 
  38069.3488     0.12057E+03 
  38101.6110     0.12114E+03 
  38133.8731     0.12171E+03 
  38166.1353     0.12228E+03 
  38198.3974     0.12284E+03 
  38230.6596     0.12340E+03 
  38262.9218     0.12396E+03 
  38295.1839     0.12452E+03 
  38327.4461     0.12508E+03 
  38359.7082     0.12563E+03 
  38391.9704     0.12618E+03 
  38424.2326     0.12673E+03 
  38456.4947     0.12728E+03 
  38488.7569     0.12783E+03 
  38521.0190     0.12837E+03 
  38553.2812     0.12891E+03 
  38585.5434     0.12945E+03 
  38617.8055     0.12998E+03 
  38650.0677     0.13052E+03 
  38682.3298     0.13105E+03 
  38714.5920     0.13158E+03 
  38746.8542     0.13210E+03 
  38779.1163     0.13262E+03 
  38811.3785     0.13314E+03 
  38843.6406     0.13366E+03 
  38875.9028     0.13418E+03 
  38908.1650     0.13469E+03 
  38940.4271     0.13520E+03 
  38972.6893     0.13570E+03 
  39004.9514     0.13621E+03 
  39037.2136     0.13671E+03 
  39069.4758     0.13720E+03 
  39101.7379     0.13770E+03 
  39134.0001     0.13819E+03 
  39166.2622     0.13868E+03 
  39198.5244     0.13916E+03 
  39230.7866     0.13964E+03 
  39263.0487     0.14012E+03 
  39295.3109     0.14060E+03 
  39327.5730     0.14107E+03 
  39359.8352     0.14154E+03 
  39392.0974     0.14200E+03 
  39424.3595     0.14246E+03 
  39456.6217     0.14292E+03 
  39488.8838     0.14338E+03 
  39521.1460     0.14383E+03 
  39553.4082     0.14427E+03 
  39585.6703     0.14472E+03 
  39617.9325     0.14516E+03 
  39650.1946     0.14559E+03 
  39682.4568     0.14603E+03 
  39714.7190     0.14646E+03 
  39746.9811     0.14688E+03 
  39779.2433     0.14730E+03 
  39811.5054     0.14772E+03 
  39843.7676     0.14813E+03 
  39876.0298     0.14854E+03 
  39908.2919     0.14895E+03 
  39940.5541     0.14935E+03 
  39972.8162     0.14975E+03 
  40005.0784     0.15014E+03 
  40037.3406     0.15053E+03 
  40069.6027     0.15092E+03 
  40101.8649     0.15130E+03 
  40134.1270     0.15168E+03 
  40166.3892     0.15205E+03 
  40198.6514     0.15242E+03 
  40230.9135     0.15279E+03 
  40263.1757     0.15315E+03 
  40295.4378     0.15351E+03 
  40327.7000     0.15386E+03 
  40359.9622     0.15421E+03 
  40392.2243     0.15455E+03 
  40424.4865     0.15489E+03 
  40456.7486     0.15523E+03 
  40489.0108     0.15556E+03 
  40521.2730     0.15588E+03 
  40553.5351     0.15620E+03 
  40585.7973     0.15652E+03 
  40618.0594     0.15683E+03 
  40650.3216     0.15714E+03 
  40682.5838     0.15745E+03 
  40714.8459     0.15775E+03 
  40747.1081     0.15804E+03 
  40779.3702     0.15833E+03 
  40811.6324     0.15862E+03 
  40843.8946     0.15890E+03 
  40876.1567     0.15917E+03 
  40908.4189     0.15944E+03 
  40940.6810     0.15971E+03 
  40972.9432     0.15997E+03 
  41005.2054     0.16023E+03 
  41037.4675     0.16048E+03 
  41069.7297     0.16073E+03 
  41101.9918     0.16098E+03 
  41134.2540     0.16121E+03 
  41166.5162     0.16145E+03 
  41198.7783     0.16168E+03 
  41231.0405     0.16190E+03 
  41263.3026     0.16212E+03 
  41295.5648     0.16233E+03 
  41327.8270     0.16254E+03 
  41360.0891     0.16275E+03 
  41392.3513     0.16295E+03 
  41424.6134     0.16314E+03 
  41456.8756     0.16333E+03 
  41489.1378     0.16352E+03 
  41521.3999     0.16370E+03 
  41553.6621     0.16387E+03 
  41585.9242     0.16404E+03 
  41618.1864     0.16421E+03 
  41650.4486     0.16437E+03 
  41682.7107     0.16453E+03 
  41714.9729     0.16468E+03 
  41747.2350     0.16482E+03 
  41779.4972     0.16496E+03 
  41811.7594     0.16510E+03 
  41844.0215     0.16523E+03 
  41876.2837     0.16536E+03 
  41908.5458     0.16548E+03 
  41940.8080     0.16559E+03 
  41973.0702     0.16570E+03 
  42005.3323     0.16581E+03 
  42037.5945     0.16591E+03 
  42069.8566     0.16601E+03 
  42102.1188     0.16610E+03 
  42134.3810     0.16618E+03 
  42166.6431     0.16626E+03 
  42198.9053     0.16634E+03 
  42231.1674     0.16641E+03 
  42263.4296     0.16648E+03 
  42295.6918     0.16654E+03 
  42327.9539     0.16659E+03 
  42360.2161     0.16665E+03 
  42392.4782     0.16669E+03 
  42424.7404     0.16673E+03 
  42457.0026     0.16677E+03 
  42489.2647     0.16680E+03 
  42521.5269     0.16683E+03 
  42553.7890     0.16685E+03 
  42586.0512     0.16687E+03 
  42618.3134     0.16688E+03 
  42650.5755     0.16688E+03 
  42682.8377     0.16688E+03 
  42715.0998     0.16688E+03 
  42747.3620     0.16687E+03 
  42779.6242     0.16686E+03 
  42811.8863     0.16684E+03 
  42844.1485     0.16682E+03 
  42876.4106     0.16679E+03 
  42908.6728     0.16676E+03 
  42940.9350     0.16672E+03 
  42973.1971     0.16668E+03 
  43005.4593     0.16663E+03 
  43037.7214     0.16658E+03 
  43069.9836     0.16652E+03 
  43102.2458     0.16646E+03 
  43134.5079     0.16640E+03 
  43166.7701     0.16633E+03 
  43199.0322     0.16625E+03 
  43231.2944     0.16617E+03 
  43263.5566     0.16609E+03 
  43295.8187     0.16600E+03 
  43328.0809     0.16590E+03 
  43360.3430     0.16580E+03 
  43392.6052     0.16570E+03 
  43424.8674     0.16559E+03 
  43457.1295     0.16548E+03 
  43489.3917     0.16536E+03 
  43521.6538     0.16524E+03 
  43553.9160     0.16511E+03 
  43586.1782     0.16498E+03 
  43618.4403     0.16484E+03 
  43650.7025     0.16470E+03 
  43682.9646     0.16456E+03 
  43715.2268     0.16441E+03 
  43747.4890     0.16425E+03 
  43779.7511     0.16410E+03 
  43812.0133     0.16393E+03 
  43844.2754     0.16377E+03 
  43876.5376     0.16360E+03 
  43908.7998     0.16342E+03 
  43941.0619     0.16324E+03 
  43973.3241     0.16306E+03 
  44005.5862     0.16287E+03 
  44037.8484     0.16267E+03 
  44070.1106     0.16248E+03 
  44102.3727     0.16228E+03 
  44134.6349     0.16207E+03 
  44166.8970     0.16186E+03 
  44199.1592     0.16165E+03 
  44231.4214     0.16143E+03 
  44263.6835     0.16121E+03 
  44295.9457     0.16098E+03 
  44328.2078     0.16075E+03 
  44360.4700     0.16052E+03 
  44392.7322     0.16028E+03 
  44424.9943     0.16004E+03 
  44457.2565     0.15979E+03 
  44489.5186     0.15954E+03 
  44521.7808     0.15929E+03 
  44554.0430     0.15903E+03 
  44586.3051     0.15877E+03 
  44618.5673     0.15850E+03 
  44650.8294     0.15823E+03 
  44683.0916     0.15796E+03 
  44715.3538     0.15768E+03 
  44747.6159     0.15740E+03 
  44779.8781     0.15712E+03 
  44812.1402     0.15683E+03 
  44844.4024     0.15654E+03 
  44876.6646     0.15624E+03 
  44908.9267     0.15595E+03 
  44941.1889     0.15564E+03 
  44973.4510     0.15534E+03 
  45005.7132     0.15503E+03 
  45037.9754     0.15472E+03 
  45070.2375     0.15440E+03 
  45102.4997     0.15408E+03 
  45134.7618     0.15376E+03 
  45167.0240     0.15343E+03 
  45199.2862     0.15311E+03 
  45231.5483     0.15277E+03 
  45263.8105     0.15244E+03 
  45296.0726     0.15210E+03 
  45328.3348     0.15176E+03 
  45360.5970     0.15141E+03 
  45392.8591     0.15106E+03 
  45425.1213     0.15071E+03 
  45457.3834     0.15036E+03 
  45489.6456     0.15000E+03 
  45521.9078     0.14964E+03 
  45554.1699     0.14928E+03 
  45586.4321     0.14891E+03 
  45618.6942     0.14854E+03 
  45650.9564     0.14817E+03 
  45683.2186     0.14780E+03 
  45715.4807     0.14742E+03 
  45747.7429     0.14704E+03 
  45780.0050     0.14665E+03 
  45812.2672     0.14627E+03 
  45844.5294     0.14588E+03 
  45876.7915     0.14549E+03 
  45909.0537     0.14510E+03 
  45941.3158     0.14470E+03 
  45973.5780     0.14430E+03 
  46005.8402     0.14390E+03 
  46038.1023     0.14350E+03 
  46070.3645     0.14309E+03 
  46102.6266     0.14268E+03 
  46134.8888     0.14227E+03 
  46167.1510     0.14186E+03 
  46199.4131     0.14144E+03 
  46231.6753     0.14102E+03 
  46263.9374     0.14060E+03 
  46296.1996     0.14018E+03 
  46328.4618     0.13976E+03 
  46360.7239     0.13933E+03 
  46392.9861     0.13890E+03 
  46425.2482     0.13847E+03 
  46457.5104     0.13804E+03 
  46489.7726     0.13760E+03 
  46522.0347     0.13717E+03 
  46554.2969     0.13673E+03 
  46586.5590     0.13629E+03 
  46618.8212     0.13584E+03 
  46651.0834     0.13540E+03 
  46683.3455     0.13495E+03 
  46715.6077     0.13450E+03 
  46747.8698     0.13405E+03 
  46780.1320     0.13360E+03 
  46812.3942     0.13315E+03 
  46844.6563     0.13269E+03 
  46876.9185     0.13224E+03 
  46909.1806     0.13178E+03 
  46941.4428     0.13132E+03 
  46973.7050     0.13086E+03 
  47005.9671     0.13040E+03 
  47038.2293     0.12993E+03 
  47070.4914     0.12947E+03 
  47102.7536     0.12900E+03 
  47135.0158     0.12853E+03 
  47167.2779     0.12806E+03 
  47199.5401     0.12759E+03 
  47231.8022     0.12712E+03 
  47264.0644     0.12664E+03 
  47296.3266     0.12617E+03 
  47328.5887     0.12569E+03 
  47360.8509     0.12521E+03 
  47393.1130     0.12474E+03 
  47425.3752     0.12426E+03 
  47457.6374     0.12378E+03 
  47489.8995     0.12329E+03 
  47522.1617     0.12281E+03 
  47554.4238     0.12233E+03 
  47586.6860     0.12184E+03 
  47618.9482     0.12136E+03 
  47651.2103     0.12087E+03 
  47683.4725     0.12038E+03 
  47715.7346     0.11990E+03 
  47747.9968     0.11941E+03 
  47780.2590     0.11892E+03 
  47812.5211     0.11843E+03 
  47844.7833     0.11794E+03 
  47877.0454     0.11744E+03 
  47909.3076     0.11695E+03 
  47941.5698     0.11646E+03 
  47973.8319     0.11596E+03 
  48006.0941     0.11547E+03 
  48038.3562     0.11498E+03 
  48070.6184     0.11448E+03 
  48102.8806     0.11398E+03 
  48135.1427     0.11349E+03 
  48167.4049     0.11299E+03 
  48199.6670     0.11249E+03 
  48231.9292     0.11200E+03 
  48264.1914     0.11150E+03 
  48296.4535     0.11100E+03 
  48328.7157     0.11050E+03 
  48360.9778     0.11000E+03 
  48393.2400     0.10950E+03 
  48425.5022     0.10901E+03 
  48457.7643     0.10851E+03 
  48490.0265     0.10801E+03 
  48522.2886     0.10751E+03 
  48554.5508     0.10701E+03 
  48586.8130     0.10651E+03 
  48619.0751     0.10601E+03 
  48651.3373     0.10551E+03 
  48683.5994     0.10501E+03 
  48715.8616     0.10451E+03 
  48748.1238     0.10401E+03 
  48780.3859     0.10351E+03 
  48812.6481     0.10301E+03 
  48844.9102     0.10251E+03 
  48877.1724     0.10201E+03 
  48909.4346     0.10151E+03 
  48941.6967     0.10101E+03 
  48973.9589     0.10051E+03 
  49006.2210     0.10001E+03 
  49038.4832     0.99513E+02 
  49070.7454     0.99015E+02 
  49103.0075     0.98517E+02 
  49135.2697     0.98019E+02 
  49167.5318     0.97522E+02 
  49199.7940     0.97025E+02 
  49232.0562     0.96529E+02 
  49264.3183     0.96032E+02 
  49296.5805     0.95537E+02 
  49328.8426     0.95041E+02 
  49361.1048     0.94547E+02 
  49393.3670     0.94052E+02 
  49425.6291     0.93558E+02 
  49457.8913     0.93065E+02 
  49490.1534     0.92572E+02 
  49522.4156     0.92080E+02 
  49554.6778     0.91589E+02 
  49586.9399     0.91098E+02 
  49619.2021     0.90607E+02 
  49651.4642     0.90118E+02 
  49683.7264     0.89629E+02 
  49715.9886     0.89140E+02 
  49748.2507     0.88653E+02 
  49780.5129     0.88166E+02 
  49812.7750     0.87680E+02 
  49845.0372     0.87194E+02 
  49877.2994     0.86710E+02 
  49909.5615     0.86226E+02 
  49941.8237     0.85743E+02 
  49974.0858     0.85261E+02 
  50006.3480     0.84780E+02 
  50038.6102     0.84299E+02 
  50070.8723     0.83820E+02 
  50103.1345     0.83341E+02 
  50135.3966     0.82863E+02 
  50167.6588     0.82386E+02 
  50199.9210     0.81911E+02 
  50232.1831     0.81436E+02 
  50264.4453     0.80962E+02 
  50296.7074     0.80489E+02 
  50328.9696     0.80017E+02 
  50361.2318     0.79546E+02 
  50393.4939     0.79076E+02 
  50425.7561     0.78607E+02 
  50458.0182     0.78140E+02 
  50490.2804     0.77673E+02 
  50522.5426     0.77208E+02 
  50554.8047     0.76743E+02 
  50587.0669     0.76280E+02 
  50619.3290     0.75818E+02 
  50651.5912     0.75357E+02 
  50683.8534     0.74897E+02 
  50716.1155     0.74438E+02 
  50748.3777     0.73981E+02 
  50780.6398     0.73524E+02 
  50812.9020     0.73069E+02 
  50845.1642     0.72616E+02 
  50877.4263     0.72163E+02 
  50909.6885     0.71712E+02 
  50941.9506     0.71262E+02 
  50974.2128     0.70813E+02 
  51006.4750     0.70365E+02 
  51038.7371     0.69919E+02 
  51070.9993     0.69474E+02 
  51103.2614     0.69030E+02 
  51135.5236     0.68588E+02 
  51167.7858     0.68147E+02 
  51200.0479     0.67708E+02 
  51232.3101     0.67269E+02 
  51264.5722     0.66833E+02 
  51296.8344     0.66397E+02 
  51329.0966     0.65963E+02 
  51361.3587     0.65530E+02 
  51393.6209     0.65099E+02 
  51425.8830     0.64669E+02 
  51458.1452     0.64240E+02 
  51490.4074     0.63813E+02 
  51522.6695     0.63388E+02 
  51554.9317     0.62964E+02 
  51587.1938     0.62541E+02 
  51619.4560     0.62120E+02 
  51651.7182     0.61700E+02 
  51683.9803     0.61282E+02 
  51716.2425     0.60865E+02 
  51748.5046     0.60449E+02 
  51780.7668     0.60036E+02 
  51813.0290     0.59623E+02 
  51845.2911     0.59213E+02 
  51877.5533     0.58803E+02 
  51909.8154     0.58395E+02 
  51942.0776     0.57989E+02 
  51974.3398     0.57584E+02 
  52006.6019     0.57181E+02 
  52038.8641     0.56780E+02 
  52071.1262     0.56380E+02 
  52103.3884     0.55981E+02 
  52135.6506     0.55584E+02 
  52167.9127     0.55189E+02 
  52200.1749     0.54795E+02 
  52232.4370     0.54403E+02 
  52264.6992     0.54012E+02 
  52296.9614     0.53623E+02 
  52329.2235     0.53236E+02 
  52361.4857     0.52850E+02 
  52393.7478     0.52465E+02 
  52426.0100     0.52083E+02 
  52458.2722     0.51702E+02 
  52490.5343     0.51322E+02 
  52522.7965     0.50944E+02 
  52555.0586     0.50568E+02 
  52587.3208     0.50194E+02 
  52619.5830     0.49821E+02 
  52651.8451     0.49449E+02 
  52684.1073     0.49080E+02 
  52716.3694     0.48711E+02 
  52748.6316     0.48345E+02 
  52780.8938     0.47980E+02 
  52813.1559     0.47617E+02 
  52845.4181     0.47255E+02 
  52877.6802     0.46896E+02 
  52909.9424     0.46537E+02 
  52942.2046     0.46181E+02 
  52974.4667     0.45826E+02 
  53006.7289     0.45472E+02 
  53038.9910     0.45121E+02 
  53071.2532     0.44771E+02 
  53103.5154     0.44422E+02 
  53135.7775     0.44076E+02 
  53168.0397     0.43730E+02 
  53200.3018     0.43387E+02 
  53232.5640     0.43045E+02 
  53264.8262     0.42705E+02 
  53297.0883     0.42367E+02 
  53329.3505     0.42030E+02 
  53361.6126     0.41695E+02 
  53393.8748     0.41361E+02 
  53426.1370     0.41029E+02 
  53458.3991     0.40699E+02 
  53490.6613     0.40371E+02 
  53522.9234     0.40044E+02 
  53555.1856     0.39719E+02 
  53587.4478     0.39395E+02 
  53619.7099     0.39073E+02 
  53651.9721     0.38753E+02 
  53684.2342     0.38434E+02 
  53716.4964     0.38117E+02 
  53748.7586     0.37802E+02 
  53781.0207     0.37488E+02 
  53813.2829     0.37176E+02 
  53845.5450     0.36866E+02 
  53877.8072     0.36557E+02 
  53910.0694     0.36250E+02 
  53942.3315     0.35945E+02 
  53974.5937     0.35641E+02 
  54006.8558     0.35339E+02 
  54039.1180     0.35038E+02 
  54071.3802     0.34739E+02 
  54103.6423     0.34442E+02 
  54135.9045     0.34146E+02 
  54168.1666     0.33852E+02 
  54200.4288     0.33560E+02 
  54232.6910     0.33269E+02 
  54264.9531     0.32980E+02 
  54297.2153     0.32692E+02 
  54329.4774     0.32406E+02 
  54361.7396     0.32122E+02 
  54394.0018     0.31839E+02 
  54426.2639     0.31558E+02 
  54458.5261     0.31279E+02 
  54490.7882     0.31001E+02 
  54523.0504     0.30725E+02 
  54555.3126     0.30450E+02 
  54587.5747     0.30177E+02 
  54619.8369     0.29905E+02 
  54652.0990     0.29635E+02 
  54684.3612     0.29367E+02 
  54716.6234     0.29100E+02 
  54748.8855     0.28835E+02 
  54781.1477     0.28571E+02 
  54813.4098     0.28309E+02 
  54845.6720     0.28048E+02 
  54877.9342     0.27789E+02 
  54910.1963     0.27532E+02 
  54942.4585     0.27276E+02 
  54974.7206     0.27022E+02 
  55006.9828     0.26769E+02 
  55039.2450     0.26518E+02 
  55071.5071     0.26268E+02 
  55103.7693     0.26020E+02 
  55136.0314     0.25773E+02 
  55168.2936     0.25528E+02 
  55200.5558     0.25284E+02 
  55232.8179     0.25042E+02 
  55265.0801     0.24802E+02 
  55297.3422     0.24562E+02 
  55329.6044     0.24325E+02 
  55361.8666     0.24089E+02 
  55394.1287     0.23854E+02 
  55426.3909     0.23621E+02 
  55458.6530     0.23389E+02 
  55490.9152     0.23159E+02 
  55523.1774     0.22930E+02 
  55555.4395     0.22703E+02 
  55587.7017     0.22477E+02 
  55619.9638     0.22253E+02 
  55652.2260     0.22030E+02 
  55684.4882     0.21809E+02 
  55716.7503     0.21589E+02 
  55749.0125     0.21370E+02 
  55781.2746     0.21153E+02 
  55813.5368     0.20938E+02 
  55845.7990     0.20723E+02 
  55878.0611     0.20511E+02 
  55910.3233     0.20299E+02 
  55942.5854     0.20089E+02 
  55974.8476     0.19880E+02 
  56007.1098     0.19673E+02 
  56039.3719     0.19467E+02 
  56071.6341     0.19263E+02 
  56103.8962     0.19060E+02 
  56136.1584     0.18858E+02 
  56168.4206     0.18658E+02 
  56200.6827     0.18459E+02 
  56232.9449     0.18262E+02 
  56265.2070     0.18065E+02 
  56297.4692     0.17871E+02 
  56329.7314     0.17677E+02 
  56361.9935     0.17485E+02 
  56394.2557     0.17294E+02 
  56426.5178     0.17105E+02 
  56458.7800     0.16917E+02 
  56491.0422     0.16730E+02 
  56523.3043     0.16544E+02 
  56555.5665     0.16360E+02 
  56587.8286     0.16177E+02 
  56620.0908     0.15995E+02 
  56652.3530     0.15815E+02 
  56684.6151     0.15636E+02 
  56716.8773     0.15458E+02 
  56749.1394     0.15282E+02 
  56781.4016     0.15107E+02 
  56813.6638     0.14933E+02 
  56845.9259     0.14760E+02 
  56878.1881     0.14589E+02 
  56910.4502     0.14419E+02 
  56942.7124     0.14250E+02 
  56974.9746     0.14082E+02 
  57007.2367     0.13916E+02 
  57039.4989     0.13750E+02 
  57071.7610     0.13586E+02 
  57104.0232     0.13424E+02 
  57136.2854     0.13262E+02 
  57168.5475     0.13102E+02 
  57200.8097     0.12943E+02 
  57233.0718     0.12785E+02 
  57265.3340     0.12628E+02 
  57297.5962     0.12473E+02 
  57329.8583     0.12318E+02 
  57362.1205     0.12165E+02 
  57394.3826     0.12013E+02 
  57426.6448     0.11862E+02 
  57458.9070     0.11713E+02 
  57491.1691     0.11564E+02 
  57523.4313     0.11417E+02 
  57555.6934     0.11271E+02 
  57587.9556     0.11125E+02 
  57620.2178     0.10982E+02 
  57652.4799     0.10839E+02 
  57684.7421     0.10697E+02 
  57717.0042     0.10557E+02 
  57749.2664     0.10417E+02 
  57781.5286     0.10279E+02 
  57813.7907     0.10142E+02 
  57846.0529     0.10005E+02 
  57878.3150     0.98704E+01 
  57910.5772     0.97365E+01 
  57942.8394     0.96037E+01 
  57975.1015     0.94720E+01 
  58007.3637     0.93413E+01 
  58039.6258     0.92117E+01 
  58071.8880     0.90832E+01 
  58104.1502     0.89557E+01 
  58136.4123     0.88293E+01 
  58168.6745     0.87039E+01 
  58200.9366     0.85796E+01 
  58233.1988     0.84564E+01 
  58265.4610     0.83342E+01 
  58297.7231     0.82130E+01 
  58329.9853     0.80928E+01 
  58362.2474     0.79737E+01 
  58394.5096     0.78556E+01 
  58426.7718     0.77386E+01 
  58459.0339     0.76225E+01 
  58491.2961     0.75074E+01 
  58523.5582     0.73934E+01 
  58555.8204     0.72803E+01 
  58588.0826     0.71683E+01 
  58620.3447     0.70572E+01 
  58652.6069     0.69472E+01 
  58684.8690     0.68381E+01 
  58717.1312     0.67300E+01 
  58749.3934     0.66229E+01 
  58781.6555     0.65167E+01 
  58813.9177     0.64115E+01 
  58846.1798     0.63073E+01 
  58878.4420     0.62040E+01 
  58910.7042     0.61017E+01 
  58942.9663     0.60004E+01 
  58975.2285     0.59000E+01 
  59007.4906     0.58006E+01 
  59039.7528     0.57020E+01 
  59072.0150     0.56045E+01 
  59104.2771     0.55078E+01 
  59136.5393     0.54121E+01 
  59168.8014     0.53174E+01 
  59201.0636     0.52235E+01 
  59233.3258     0.51306E+01 
  59265.5879     0.50386E+01 
  59297.8501     0.49475E+01 
  59330.1122     0.48574E+01 
  59362.3744     0.47681E+01 
  59394.6366     0.46797E+01 
  59426.8987     0.45923E+01 
  59459.1609     0.45057E+01 
  59491.4230     0.44201E+01 
  59523.6852     0.43353E+01 
  59555.9474     0.42515E+01 
  59588.2095     0.41685E+01 
  59620.4717     0.40864E+01 
  59652.7338     0.40052E+01 
  59684.9960     0.39249E+01 
  59717.2582     0.38455E+01 
  59749.5203     0.37669E+01 
  59781.7825     0.36893E+01 
  59814.0446     0.36125E+01 
  59846.3068     0.35365E+01 
  59878.5690     0.34615E+01 
  59910.8311     0.33873E+01 
  59943.0933     0.33140E+01 
  59975.3554     0.32415E+01 
  60007.6176     0.31699E+01 
  60039.8798     0.30992E+01 
  60072.1419     0.30293E+01 
  60104.4041     0.29603E+01 
  60136.6662     0.28922E+01 
  60168.9284     0.28249E+01 
  60201.1906     0.27584E+01 
  60233.4527     0.26929E+01 
  60265.7149     0.26281E+01 
  60297.9770     0.25643E+01 
  60330.2392     0.25012E+01 
  60362.5014     0.24391E+01 
  60394.7635     0.23777E+01 
  60427.0257     0.23173E+01 
  60459.2878     0.22577E+01 
  60491.5500     0.21989E+01 
  60523.8122     0.21410E+01 
  60556.0743     0.20839E+01 
  60588.3365     0.20277E+01 
  60620.5986     0.19723E+01 
  60652.8608     0.19178E+01 
  60685.1230     0.18641E+01 
  60717.3851     0.18113E+01 
  60749.6473     0.17593E+01 
  60781.9094     0.17082E+01 
  60814.1716     0.16579E+01 
  60846.4338     0.16085E+01 
  60878.6959     0.15600E+01 
  60910.9581     0.15123E+01 
  60943.2202     0.14655E+01 
  60975.4824     0.14195E+01 
  61007.7446     0.13744E+01 
  61040.0067     0.13301E+01 
  61072.2689     0.12867E+01 
  61104.5310     0.12442E+01 
  61136.7932     0.12025E+01 
  61169.0554     0.11617E+01 
  61201.3175     0.11218E+01 
  61233.5797     0.10828E+01 
  61265.8418     0.10446E+01 
  61298.1040     0.10073E+01 
  61330.3662     0.97093E+00 
  61362.6283     0.93542E+00 
  61394.8905     0.90080E+00 
  61427.1526     0.86708E+00 
  61459.4148     0.83425E+00 
  61491.6770     0.80232E+00 
  61523.9391     0.77130E+00 
  61556.2013     0.74118E+00 
  61588.4634     0.71198E+00 
  61620.7256     0.68370E+00 
  61652.9878     0.65634E+00 
  61685.2499     0.62991E+00 
  61717.5121     0.60441E+00 
  61749.7742     0.57984E+00 
  61782.0364     0.55623E+00 
  61814.2986     0.53355E+00 
  61846.5607     0.51184E+00 
  61878.8229     0.49108E+00 
  61911.0850     0.47129E+00 
  61943.3472     0.45247E+00 
  61975.6094     0.43464E+00 
  62007.8715     0.41778E+00 
  62040.1337     0.40193E+00 
  62072.3958     0.38707E+00 
  62104.6580     0.37322E+00 
  62136.9202     0.36039E+00 
  62169.1823     0.34858E+00 
  62201.4445     0.33780E+00 
  62233.7066     0.32806E+00 
  62265.9688     0.31937E+00 
  62298.2310     0.31174E+00 
  62330.4931     0.30518E+00 
  62362.7553     0.29969E+00 
  62395.0174     0.29529E+00 
  62427.2796     0.29198E+00 
  62459.5418     0.28978E+00 
  62491.8039     0.28870E+00 
  62524.0661     0.28875E+00 
  62556.3282     0.28993E+00 
  62588.5904     0.29227E+00 
  62620.8526     0.29577E+00 
  62653.1147     0.30044E+00 
  62685.3769     0.30629E+00 
  62717.6390     0.31335E+00 
  62749.9012     0.32162E+00 
  62782.1634     0.33111E+00 
  62814.4255     0.34184E+00 
  62846.6877     0.35382E+00 
  62878.9498     0.36707E+00 
  62911.2120     0.38160E+00 
  62943.4742     0.39742E+00 
  62975.7363     0.41456E+00 
  63007.9985     0.43302E+00 
  63040.2606     0.45282E+00 
  63072.5228     0.47399E+00 
  63104.7850     0.49653E+00 
  63137.0471     0.52046E+00 
  63169.3093     0.54580E+00 
  63201.5714     0.57257E+00 
  63233.8336     0.60079E+00 
  63266.0958     0.63047E+00 
  63298.3579     0.66164E+00 
  63330.6201     0.69431E+00 
  63362.8822     0.72850E+00 
  63395.1444     0.76424E+00 
  63427.4066     0.80155E+00 
  63459.6687     0.84044E+00 
  63491.9309     0.88093E+00 
  63524.1930     0.92306E+00 
  63556.4552     0.96684E+00 
  63588.7174     0.10123E+01 
  63620.9795     0.10595E+01 
  63653.2417     0.11083E+01 
  63685.5038     0.11590E+01 
  63717.7660     0.12114E+01 
  63750.0282     0.12656E+01 
  63782.2903     0.13216E+01 
  63814.5525     0.13795E+01 
  63846.8146     0.14393E+01 
  63879.0768     0.15009E+01 
  63911.3390     0.15645E+01 
  63943.6011     0.16301E+01 
  63975.8633     0.16977E+01 
  64008.1254     0.17672E+01 
  64040.3876     0.18389E+01 
  64072.6498     0.19126E+01 
  64104.9119     0.19885E+01 
  64137.1741     0.20665E+01 
  64169.4362     0.21467E+01 
  64201.6984     0.22291E+01 
  64233.9606     0.23137E+01 
  64266.2227     0.24007E+01 
  64298.4849     0.24899E+01 
  64330.7470     0.25816E+01 
  64363.0092     0.26756E+01 
  64395.2714     0.27720E+01 
  64427.5335     0.28710E+01 
  64459.7957     0.29724E+01 
  64492.0578     0.30764E+01 
  64524.3200     0.31830E+01 
  64556.5822     0.32922E+01 
  64588.8443     0.34041E+01 
  64621.1065     0.35188E+01 
  64653.3686     0.36361E+01 
  64685.6308     0.37563E+01 
  64717.8930     0.38794E+01 
  64750.1551     0.40053E+01 
  64782.4173     0.41342E+01 
  64814.6794     0.42661E+01 
  64846.9416     0.44011E+01 
  64879.2038     0.45391E+01 
  64911.4659     0.46802E+01 
  64943.7281     0.48246E+01 
  64975.9902     0.49722E+01 
  65008.2524     0.51231E+01 
  65040.5146     0.52774E+01 
  65072.7767     0.54351E+01 
  65105.0389     0.55962E+01 
  65137.3010     0.57608E+01 
  65169.5632     0.59291E+01 
  65201.8254     0.61009E+01 
  65234.0875     0.62765E+01 
  65266.3497     0.64558E+01 
  65298.6118     0.66389E+01 
  65330.8740     0.68260E+01 
  65363.1362     0.70169E+01 
  65395.3983     0.72119E+01 
  65427.6605     0.74109E+01 
  65459.9226     0.76141E+01 
  65492.1848     0.78215E+01 
  65524.4470     0.80332E+01 
  65556.7091     0.82492E+01 
  65588.9713     0.84696E+01 
  65621.2334     0.86945E+01 
  65653.4956     0.89240E+01 
  65685.7578     0.91582E+01 
  65718.0199     0.93970E+01 
  65750.2821     0.96406E+01 
  65782.5442     0.98891E+01 
  65814.8064     0.10143E+02 
  65847.0686     0.10401E+02 
  65879.3307     0.10665E+02 
  65911.5929     0.10933E+02 
  65943.8550     0.11207E+02 
  65976.1172     0.11487E+02 
  66008.3794     0.11772E+02 
  66040.6415     0.12062E+02 
  66072.9037     0.12358E+02 
  66105.1658     0.12660E+02 
  66137.4280     0.12967E+02 
  66169.6902     0.13281E+02 
  66201.9523     0.13600E+02 
  66234.2145     0.13926E+02 
  66266.4766     0.14257E+02 
  66298.7388     0.14595E+02 
  66331.0010     0.14940E+02 
  66363.2631     0.15290E+02 
  66395.5253     0.15648E+02 
  66427.7874     0.16012E+02 
  66460.0496     0.16383E+02 
  66492.3118     0.16761E+02 
  66524.5739     0.17145E+02 
  66556.8361     0.17537E+02 
  66589.0982     0.17936E+02 
  66621.3604     0.18343E+02 
  66653.6226     0.18757E+02 
  66685.8847     0.19178E+02 
  66718.1469     0.19607E+02 
  66750.4090     0.20044E+02 
  66782.6712     0.20489E+02 
  66814.9334     0.20942E+02 
  66847.1955     0.21403E+02 
  66879.4577     0.21873E+02 
  66911.7198     0.22351E+02 
  66943.9820     0.22837E+02 
  66976.2442     0.23332E+02 
  67008.5063     0.23836E+02 
  67040.7685     0.24348E+02 
  67073.0306     0.24870E+02 
  67105.2928     0.25401E+02 
  67137.5550     0.25942E+02 
  67169.8171     0.26492E+02 
  67202.0793     0.27051E+02 
  67234.3414     0.27620E+02 
  67266.6036     0.28199E+02 
  67298.8658     0.28788E+02 
  67331.1279     0.29388E+02 
  67363.3901     0.29997E+02 
  67395.6522     0.30618E+02 
  67427.9144     0.31248E+02 
  67460.1766     0.31890E+02 
  67492.4387     0.32543E+02 
  67524.7009     0.33206E+02 
  67556.9630     0.33881E+02 
  67589.2252     0.34567E+02 
  67621.4874     0.35265E+02 
  67653.7495     0.35975E+02 
  67686.0117     0.36697E+02 
  67718.2738     0.37430E+02 
  67750.5360     0.38176E+02 
  67782.7982     0.38934E+02 
  67815.0603     0.39705E+02 
  67847.3225     0.40489E+02 
  67879.5846     0.41286E+02 
  67911.8468     0.42095E+02 
  67944.1090     0.42918E+02 
  67976.3711     0.43755E+02 
  68008.6333     0.44605E+02 
  68040.8954     0.45468E+02 
  68073.1576     0.46346E+02 
  68105.4198     0.47238E+02 
  68137.6819     0.48145E+02 
  68169.9441     0.49066E+02 
  68202.2062     0.50002E+02 
  68234.4684     0.50953E+02 
  68266.7306     0.51918E+02 
  68298.9927     0.52900E+02 
  68331.2549     0.53896E+02 
  68363.5170     0.54909E+02 
  68395.7792     0.55937E+02 
  68428.0414     0.56982E+02 
  68460.3035     0.58043E+02 
  68492.5657     0.59121E+02 
  68524.8278     0.60215E+02 
  68557.0900     0.61326E+02 
  68589.3522     0.62454E+02 
  68621.6143     0.63600E+02 
  68653.8765     0.64764E+02 
  68686.1386     0.65945E+02 
  68718.4008     0.67144E+02 
  68750.6630     0.68362E+02 
  68782.9251     0.69598E+02 
  68815.1873     0.70852E+02 
  68847.4494     0.72126E+02 
  68879.7116     0.73419E+02 
  68911.9738     0.74731E+02 
  68944.2359     0.76062E+02 
  68976.4981     0.77414E+02 
  69008.7602     0.78785E+02 
  69041.0224     0.80177E+02 
  69073.2846     0.81589E+02 
  69105.5467     0.83022E+02 
  69137.8089     0.84476E+02 
  69170.0710     0.85951E+02 
  69202.3332     0.87448E+02 
  69234.5954     0.88966E+02 
  69266.8575     0.90506E+02 
  69299.1197     0.92068E+02 
  69331.3818     0.93653E+02 
  69363.6440     0.95260E+02 
  69395.9062     0.96890E+02 
  69428.1683     0.98544E+02 
  69460.4305     0.10022E+03 
  69492.6926     0.10192E+03 
  69524.9548     0.10364E+03 
  69557.2170     0.10539E+03 
  69589.4791     0.10717E+03 
  69621.7413     0.10896E+03 
  69654.0034     0.11078E+03 
  69686.2656     0.11263E+03 
  69718.5278     0.11450E+03 
  69750.7899     0.11640E+03 
  69783.0521     0.11833E+03 
  69815.3142     0.12028E+03 
  69847.5764     0.12225E+03 
  69879.8386     0.12426E+03 
  69912.1007     0.12628E+03 
  69944.3629     0.12834E+03 
  69976.6250     0.13043E+03 
  70008.8872     0.13254E+03 
  70041.1494     0.13468E+03 
  70073.4115     0.13685E+03 
  70105.6737     0.13904E+03 
  70137.9358     0.14127E+03 
  70170.1980     0.14352E+03 
  70202.4602     0.14581E+03 
  70234.7223     0.14812E+03 
  70266.9845     0.15046E+03 
  70299.2466     0.15283E+03 
  70331.5088     0.15524E+03 
  70363.7710     0.15767E+03 
  70396.0331     0.16013E+03 
  70428.2953     0.16263E+03 
  70460.5574     0.16515E+03 
  70492.8196     0.16771E+03 
  70525.0818     0.17030E+03 
  70557.3439     0.17292E+03 
  70589.6061     0.17558E+03 
  70621.8682     0.17826E+03 
  70654.1304     0.18098E+03 
  70686.3926     0.18373E+03 
  70718.6547     0.18652E+03 
  70750.9169     0.18934E+03 
  70783.1790     0.19219E+03 
  70815.4412     0.19508E+03 
  70847.7034     0.19800E+03 
  70879.9655     0.20095E+03 
  70912.2277     0.20394E+03 
  70944.4898     0.20697E+03 
  70976.7520     0.21003E+03 
  71009.0142     0.21313E+03 
  71041.2763     0.21626E+03 
  71073.5385     0.21943E+03 
  71105.8006     0.22263E+03 
  71138.0628     0.22587E+03 
  71170.3250     0.22915E+03 
  71202.5871     0.23247E+03 
  71234.8493     0.23582E+03 
  71267.1114     0.23921E+03 
  71299.3736     0.24264E+03 
  71331.6358     0.24610E+03 
  71363.8979     0.24961E+03 
  71396.1601     0.25315E+03 
  71428.4222     0.25673E+03 
  71460.6844     0.26035E+03 
  71492.9466     0.26401E+03 
  71525.2087     0.26771E+03 
  71557.4709     0.27144E+03 
  71589.7330     0.27522E+03 
  71621.9952     0.27904E+03 
  71654.2574     0.28290E+03 
  71686.5195     0.28680E+03 
  71718.7817     0.29073E+03 
  71751.0438     0.29471E+03 
  71783.3060     0.29873E+03 
  71815.5682     0.30280E+03 
  71847.8303     0.30690E+03 
  71880.0925     0.31104E+03 
  71912.3546     0.31523E+03 
  71944.6168     0.31946E+03 
  71976.8790     0.32373E+03 
  72009.1411     0.32804E+03 
  72041.4033     0.33240E+03 
  72073.6654     0.33680E+03 
  72105.9276     0.34124E+03 
  72138.1898     0.34572E+03 
  72170.4519     0.35025E+03 
  72202.7141     0.35482E+03 
  72234.9762     0.35944E+03 
  72267.2384     0.36410E+03 
  72299.5006     0.36880E+03 
  72331.7627     0.37354E+03 
  72364.0249     0.37833E+03 
  72396.2870     0.38317E+03 
  72428.5492     0.38805E+03 
  72460.8114     0.39297E+03 
  72493.0735     0.39794E+03 
  72525.3357     0.40295E+03 
  72557.5978     0.40801E+03 
  72589.8600     0.41312E+03 
