  32262.1600     0.61269E+02 
  32294.4222     0.62139E+02 
  32326.6843     0.63019E+02 
  32358.9465     0.63907E+02 
  32391.2086     0.64803E+02 
  32423.4708     0.65709E+02 
  32455.7330     0.66624E+02 
  32487.9951     0.67547E+02 
  32520.2573     0.68479E+02 
  32552.5194     0.69421E+02 
  32584.7816     0.70371E+02 
  32617.0438     0.71330E+02 
  32649.3059     0.72298E+02 
  32681.5681     0.73275E+02 
  32713.8302     0.74261E+02 
  32746.0924     0.75257E+02 
  32778.3546     0.76261E+02 
  32810.6167     0.77274E+02 
  32842.8789     0.78296E+02 
  32875.1410     0.79327E+02 
  32907.4032     0.80367E+02 
  32939.6654     0.81417E+02 
  32971.9275     0.82475E+02 
  33004.1897     0.83542E+02 
  33036.4518     0.84619E+02 
  33068.7140     0.85704E+02 
  33100.9762     0.86798E+02 
  33133.2383     0.87902E+02 
  33165.5005     0.89014E+02 
  33197.7626     0.90135E+02 
  33230.0248     0.91266E+02 
  33262.2870     0.92405E+02 
  33294.5491     0.93553E+02 
  33326.8113     0.94710E+02 
  33359.0734     0.95877E+02 
  33391.3356     0.97052E+02 
  33423.5978     0.98236E+02 
  33455.8599     0.99428E+02 
  33488.1221     0.10063E+03 
  33520.3842     0.10184E+03 
  33552.6464     0.10306E+03 
  33584.9086     0.10429E+03 
  33617.1707     0.10552E+03 
  33649.4329     0.10677E+03 
  33681.6950     0.10802E+03 
  33713.9572     0.10929E+03 
  33746.2194     0.11056E+03 
  33778.4815     0.11184E+03 
  33810.7437     0.11313E+03 
  33843.0058     0.11442E+03 
  33875.2680     0.11573E+03 
  33907.5302     0.11704E+03 
  33939.7923     0.11836E+03 
  33972.0545     0.11969E+03 
  34004.3166     0.12103E+03 
  34036.5788     0.12238E+03 
  34068.8410     0.12373E+03 
  34101.1031     0.12510E+03 
  34133.3653     0.12647E+03 
  34165.6274     0.12784E+03 
  34197.8896     0.12923E+03 
  34230.1518     0.13063E+03 
  34262.4139     0.13203E+03 
  34294.6761     0.13344E+03 
  34326.9382     0.13486E+03 
  34359.2004     0.13628E+03 
  34391.4626     0.13771E+03 
  34423.7247     0.13915E+03 
  34455.9869     0.14060E+03 
  34488.2490     0.14206E+03 
  34520.5112     0.14352E+03 
  34552.7734     0.14499E+03 
  34585.0355     0.14647E+03 
  34617.2977     0.14795E+03 
  34649.5598     0.14944E+03 
  34681.8220     0.15094E+03 
  34714.0842     0.15244E+03 
  34746.3463     0.15395E+03 
  34778.6085     0.15547E+03 
  34810.8706     0.15699E+03 
  34843.1328     0.15852E+03 
  34875.3950     0.16006E+03 
  34907.6571     0.16160E+03 
  34939.9193     0.16315E+03 
  34972.1814     0.16470E+03 
  35004.4436     0.16627E+03 
  35036.7058     0.16783E+03 
  35068.9679     0.16940E+03 
  35101.2301     0.17098E+03 
  35133.4922     0.17257E+03 
  35165.7544     0.17415E+03 
  35198.0166     0.17575E+03 
  35230.2787     0.17735E+03 
  35262.5409     0.17895E+03 
  35294.8030     0.18056E+03 
  35327.0652     0.18217E+03 
  35359.3274     0.18379E+03 
  35391.5895     0.18542E+03 
  35423.8517     0.18705E+03 
  35456.1138     0.18868E+03 
  35488.3760     0.19031E+03 
  35520.6382     0.19196E+03 
  35552.9003     0.19360E+03 
  35585.1625     0.19525E+03 
  35617.4246     0.19690E+03 
  35649.6868     0.19856E+03 
  35681.9490     0.20022E+03 
  35714.2111     0.20188E+03 
  35746.4733     0.20355E+03 
  35778.7354     0.20522E+03 
  35810.9976     0.20689E+03 
  35843.2598     0.20857E+03 
  35875.5219     0.21024E+03 
  35907.7841     0.21193E+03 
  35940.0462     0.21361E+03 
  35972.3084     0.21530E+03 
  36004.5706     0.21698E+03 
  36036.8327     0.21867E+03 
  36069.0949     0.22037E+03 
  36101.3570     0.22206E+03 
  36133.6192     0.22376E+03 
  36165.8814     0.22545E+03 
  36198.1435     0.22715E+03 
  36230.4057     0.22885E+03 
  36262.6678     0.23055E+03 
  36294.9300     0.23225E+03 
  36327.1922     0.23396E+03 
  36359.4543     0.23566E+03 
  36391.7165     0.23737E+03 
  36423.9786     0.23907E+03 
  36456.2408     0.24077E+03 
  36488.5030     0.24248E+03 
  36520.7651     0.24418E+03 
  36553.0273     0.24589E+03 
  36585.2894     0.24759E+03 
  36617.5516     0.24930E+03 
  36649.8138     0.25100E+03 
  36682.0759     0.25270E+03 
  36714.3381     0.25440E+03 
  36746.6002     0.25610E+03 
  36778.8624     0.25780E+03 
  36811.1246     0.25950E+03 
  36843.3867     0.26120E+03 
  36875.6489     0.26289E+03 
  36907.9110     0.26458E+03 
  36940.1732     0.26627E+03 
  36972.4354     0.26796E+03 
  37004.6975     0.26965E+03 
  37036.9597     0.27133E+03 
  37069.2218     0.27301E+03 
  37101.4840     0.27469E+03 
  37133.7462     0.27637E+03 
  37166.0083     0.27804E+03 
  37198.2705     0.27971E+03 
  37230.5326     0.28137E+03 
  37262.7948     0.28304E+03 
  37295.0570     0.28470E+03 
  37327.3191     0.28635E+03 
  37359.5813     0.28800E+03 
  37391.8434     0.28965E+03 
  37424.1056     0.29129E+03 
  37456.3678     0.29293E+03 
  37488.6299     0.29456E+03 
  37520.8921     0.29619E+03 
  37553.1542     0.29781E+03 
  37585.4164     0.29943E+03 
  37617.6786     0.30105E+03 
  37649.9407     0.30265E+03 
  37682.2029     0.30426E+03 
  37714.4650     0.30585E+03 
  37746.7272     0.30745E+03 
  37778.9894     0.30903E+03 
  37811.2515     0.31061E+03 
  37843.5137     0.31218E+03 
  37875.7758     0.31375E+03 
  37908.0380     0.31531E+03 
  37940.3002     0.31686E+03 
  37972.5623     0.31841E+03 
  38004.8245     0.31995E+03 
  38037.0866     0.32148E+03 
  38069.3488     0.32301E+03 
  38101.6110     0.32453E+03 
  38133.8731     0.32604E+03 
  38166.1353     0.32754E+03 
  38198.3974     0.32904E+03 
  38230.6596     0.33052E+03 
  38262.9218     0.33200E+03 
  38295.1839     0.33347E+03 
  38327.4461     0.33494E+03 
  38359.7082     0.33639E+03 
  38391.9704     0.33784E+03 
  38424.2326     0.33927E+03 
  38456.4947     0.34070E+03 
  38488.7569     0.34212E+03 
  38521.0190     0.34353E+03 
  38553.2812     0.34493E+03 
  38585.5434     0.34632E+03 
  38617.8055     0.34771E+03 
  38650.0677     0.34908E+03 
  38682.3298     0.35044E+03 
  38714.5920     0.35179E+03 
  38746.8542     0.35314E+03 
  38779.1163     0.35447E+03 
  38811.3785     0.35579E+03 
  38843.6406     0.35710E+03 
  38875.9028     0.35840E+03 
  38908.1650     0.35970E+03 
  38940.4271     0.36098E+03 
  38972.6893     0.36225E+03 
  39004.9514     0.36350E+03 
  39037.2136     0.36475E+03 
  39069.4758     0.36599E+03 
  39101.7379     0.36721E+03 
  39134.0001     0.36843E+03 
  39166.2622     0.36963E+03 
  39198.5244     0.37082E+03 
  39230.7866     0.37200E+03 
  39263.0487     0.37317E+03 
  39295.3109     0.37432E+03 
  39327.5730     0.37547E+03 
  39359.8352     0.37660E+03 
  39392.0974     0.37772E+03 
  39424.3595     0.37883E+03 
  39456.6217     0.37992E+03 
  39488.8838     0.38100E+03 
  39521.1460     0.38207E+03 
  39553.4082     0.38313E+03 
  39585.6703     0.38418E+03 
  39617.9325     0.38521E+03 
  39650.1946     0.38623E+03 
  39682.4568     0.38724E+03 
  39714.7190     0.38823E+03 
  39746.9811     0.38921E+03 
  39779.2433     0.39018E+03 
  39811.5054     0.39113E+03 
  39843.7676     0.39207E+03 
  39876.0298     0.39300E+03 
  39908.2919     0.39391E+03 
  39940.5541     0.39481E+03 
  39972.8162     0.39570E+03 
  40005.0784     0.39657E+03 
  40037.3406     0.39743E+03 
  40069.6027     0.39828E+03 
  40101.8649     0.39911E+03 
  40134.1270     0.39993E+03 
  40166.3892     0.40073E+03 
  40198.6514     0.40152E+03 
  40230.9135     0.40230E+03 
  40263.1757     0.40306E+03 
  40295.4378     0.40381E+03 
  40327.7000     0.40454E+03 
  40359.9622     0.40526E+03 
  40392.2243     0.40597E+03 
  40424.4865     0.40666E+03 
  40456.7486     0.40734E+03 
  40489.0108     0.40800E+03 
  40521.2730     0.40865E+03 
  40553.5351     0.40928E+03 
  40585.7973     0.40990E+03 
  40618.0594     0.41050E+03 
  40650.3216     0.41109E+03 
  40682.5838     0.41167E+03 
  40714.8459     0.41223E+03 
  40747.1081     0.41277E+03 
  40779.3702     0.41331E+03 
  40811.6324     0.41382E+03 
  40843.8946     0.41432E+03 
  40876.1567     0.41481E+03 
  40908.4189     0.41528E+03 
  40940.6810     0.41574E+03 
  40972.9432     0.41618E+03 
  41005.2054     0.41661E+03 
  41037.4675     0.41703E+03 
  41069.7297     0.41743E+03 
  41101.9918     0.41781E+03 
  41134.2540     0.41818E+03 
  41166.5162     0.41853E+03 
  41198.7783     0.41887E+03 
  41231.0405     0.41920E+03 
  41263.3026     0.41951E+03 
  41295.5648     0.41980E+03 
  41327.8270     0.42008E+03 
  41360.0891     0.42035E+03 
  41392.3513     0.42060E+03 
  41424.6134     0.42083E+03 
  41456.8756     0.42105E+03 
  41489.1378     0.42126E+03 
  41521.3999     0.42145E+03 
  41553.6621     0.42163E+03 
  41585.9242     0.42179E+03 
  41618.1864     0.42194E+03 
  41650.4486     0.42207E+03 
  41682.7107     0.42219E+03 
  41714.9729     0.42229E+03 
  41747.2350     0.42238E+03 
  41779.4972     0.42245E+03 
  41811.7594     0.42251E+03 
  41844.0215     0.42256E+03 
  41876.2837     0.42259E+03 
  41908.5458     0.42260E+03 
  41940.8080     0.42260E+03 
  41973.0702     0.42259E+03 
  42005.3323     0.42256E+03 
  42037.5945     0.42252E+03 
  42069.8566     0.42247E+03 
  42102.1188     0.42240E+03 
  42134.3810     0.42231E+03 
  42166.6431     0.42221E+03 
  42198.9053     0.42210E+03 
  42231.1674     0.42197E+03 
  42263.4296     0.42183E+03 
  42295.6918     0.42168E+03 
  42327.9539     0.42151E+03 
  42360.2161     0.42132E+03 
  42392.4782     0.42113E+03 
  42424.7404     0.42092E+03 
  42457.0026     0.42069E+03 
  42489.2647     0.42046E+03 
  42521.5269     0.42020E+03 
  42553.7890     0.41994E+03 
  42586.0512     0.41966E+03 
  42618.3134     0.41937E+03 
  42650.5755     0.41906E+03 
  42682.8377     0.41874E+03 
  42715.0998     0.41841E+03 
  42747.3620     0.41807E+03 
  42779.6242     0.41771E+03 
  42811.8863     0.41734E+03 
  42844.1485     0.41695E+03 
  42876.4106     0.41655E+03 
  42908.6728     0.41614E+03 
  42940.9350     0.41572E+03 
  42973.1971     0.41528E+03 
  43005.4593     0.41483E+03 
  43037.7214     0.41437E+03 
  43069.9836     0.41390E+03 
  43102.2458     0.41341E+03 
  43134.5079     0.41291E+03 
  43166.7701     0.41240E+03 
  43199.0322     0.41188E+03 
  43231.2944     0.41134E+03 
  43263.5566     0.41080E+03 
  43295.8187     0.41024E+03 
  43328.0809     0.40967E+03 
  43360.3430     0.40908E+03 
  43392.6052     0.40849E+03 
  43424.8674     0.40788E+03 
  43457.1295     0.40726E+03 
  43489.3917     0.40663E+03 
  43521.6538     0.40599E+03 
  43553.9160     0.40534E+03 
  43586.1782     0.40468E+03 
  43618.4403     0.40400E+03 
  43650.7025     0.40332E+03 
  43682.9646     0.40262E+03 
  43715.2268     0.40191E+03 
  43747.4890     0.40119E+03 
  43779.7511     0.40046E+03 
  43812.0133     0.39972E+03 
  43844.2754     0.39897E+03 
  43876.5376     0.39821E+03 
  43908.7998     0.39744E+03 
  43941.0619     0.39666E+03 
  43973.3241     0.39587E+03 
  44005.5862     0.39507E+03 
  44037.8484     0.39426E+03 
  44070.1106     0.39343E+03 
  44102.3727     0.39260E+03 
  44134.6349     0.39176E+03 
  44166.8970     0.39091E+03 
  44199.1592     0.39005E+03 
  44231.4214     0.38918E+03 
  44263.6835     0.38830E+03 
  44295.9457     0.38742E+03 
  44328.2078     0.38652E+03 
  44360.4700     0.38561E+03 
  44392.7322     0.38470E+03 
  44424.9943     0.38377E+03 
  44457.2565     0.38284E+03 
  44489.5186     0.38190E+03 
  44521.7808     0.38095E+03 
  44554.0430     0.37999E+03 
  44586.3051     0.37903E+03 
  44618.5673     0.37805E+03 
  44650.8294     0.37707E+03 
  44683.0916     0.37608E+03 
  44715.3538     0.37508E+03 
  44747.6159     0.37407E+03 
  44779.8781     0.37306E+03 
  44812.1402     0.37204E+03 
  44844.4024     0.37101E+03 
  44876.6646     0.36997E+03 
  44908.9267     0.36893E+03 
  44941.1889     0.36788E+03 
  44973.4510     0.36682E+03 
  45005.7132     0.36575E+03 
  45037.9754     0.36468E+03 
  45070.2375     0.36360E+03 
  45102.4997     0.36252E+03 
  45134.7618     0.36142E+03 
  45167.0240     0.36032E+03 
  45199.2862     0.35922E+03 
  45231.5483     0.35811E+03 
  45263.8105     0.35699E+03 
  45296.0726     0.35587E+03 
  45328.3348     0.35474E+03 
  45360.5970     0.35360E+03 
  45392.8591     0.35246E+03 
  45425.1213     0.35131E+03 
  45457.3834     0.35016E+03 
  45489.6456     0.34900E+03 
  45521.9078     0.34783E+03 
  45554.1699     0.34667E+03 
  45586.4321     0.34549E+03 
  45618.6942     0.34431E+03 
  45650.9564     0.34313E+03 
  45683.2186     0.34194E+03 
  45715.4807     0.34074E+03 
  45747.7429     0.33954E+03 
  45780.0050     0.33834E+03 
  45812.2672     0.33713E+03 
  45844.5294     0.33592E+03 
  45876.7915     0.33470E+03 
  45909.0537     0.33348E+03 
  45941.3158     0.33226E+03 
  45973.5780     0.33103E+03 
  46005.8402     0.32979E+03 
  46038.1023     0.32856E+03 
  46070.3645     0.32732E+03 
  46102.6266     0.32607E+03 
  46134.8888     0.32482E+03 
  46167.1510     0.32357E+03 
  46199.4131     0.32232E+03 
  46231.6753     0.32106E+03 
  46263.9374     0.31980E+03 
  46296.1996     0.31853E+03 
  46328.4618     0.31726E+03 
  46360.7239     0.31599E+03 
  46392.9861     0.31472E+03 
  46425.2482     0.31344E+03 
  46457.5104     0.31217E+03 
  46489.7726     0.31089E+03 
  46522.0347     0.30960E+03 
  46554.2969     0.30832E+03 
  46586.5590     0.30703E+03 
  46618.8212     0.30574E+03 
  46651.0834     0.30444E+03 
  46683.3455     0.30315E+03 
  46715.6077     0.30185E+03 
  46747.8698     0.30056E+03 
  46780.1320     0.29926E+03 
  46812.3942     0.29795E+03 
  46844.6563     0.29665E+03 
  46876.9185     0.29535E+03 
  46909.1806     0.29404E+03 
  46941.4428     0.29273E+03 
  46973.7050     0.29142E+03 
  47005.9671     0.29011E+03 
  47038.2293     0.28880E+03 
  47070.4914     0.28749E+03 
  47102.7536     0.28618E+03 
  47135.0158     0.28486E+03 
  47167.2779     0.28355E+03 
  47199.5401     0.28223E+03 
  47231.8022     0.28092E+03 
  47264.0644     0.27960E+03 
  47296.3266     0.27828E+03 
  47328.5887     0.27697E+03 
  47360.8509     0.27565E+03 
  47393.1130     0.27433E+03 
  47425.3752     0.27301E+03 
  47457.6374     0.27170E+03 
  47489.8995     0.27038E+03 
  47522.1617     0.26906E+03 
  47554.4238     0.26774E+03 
  47586.6860     0.26642E+03 
  47618.9482     0.26511E+03 
  47651.2103     0.26379E+03 
  47683.4725     0.26247E+03 
  47715.7346     0.26116E+03 
  47747.9968     0.25984E+03 
  47780.2590     0.25853E+03 
  47812.5211     0.25721E+03 
  47844.7833     0.25590E+03 
  47877.0454     0.25459E+03 
  47909.3076     0.25328E+03 
  47941.5698     0.25197E+03 
  47973.8319     0.25066E+03 
  48006.0941     0.24935E+03 
  48038.3562     0.24804E+03 
  48070.6184     0.24674E+03 
  48102.8806     0.24543E+03 
  48135.1427     0.24413E+03 
  48167.4049     0.24283E+03 
  48199.6670     0.24153E+03 
  48231.9292     0.24023E+03 
  48264.1914     0.23893E+03 
  48296.4535     0.23764E+03 
  48328.7157     0.23634E+03 
  48360.9778     0.23505E+03 
  48393.2400     0.23376E+03 
  48425.5022     0.23247E+03 
  48457.7643     0.23118E+03 
  48490.0265     0.22990E+03 
  48522.2886     0.22862E+03 
  48554.5508     0.22734E+03 
  48586.8130     0.22606E+03 
  48619.0751     0.22478E+03 
  48651.3373     0.22351E+03 
  48683.5994     0.22224E+03 
  48715.8616     0.22097E+03 
  48748.1238     0.21970E+03 
  48780.3859     0.21844E+03 
  48812.6481     0.21718E+03 
  48844.9102     0.21592E+03 
  48877.1724     0.21466E+03 
  48909.4346     0.21341E+03 
  48941.6967     0.21216E+03 
  48973.9589     0.21091E+03 
  49006.2210     0.20966E+03 
  49038.4832     0.20842E+03 
  49070.7454     0.20718E+03 
  49103.0075     0.20594E+03 
  49135.2697     0.20471E+03 
  49167.5318     0.20348E+03 
  49199.7940     0.20225E+03 
  49232.0562     0.20102E+03 
  49264.3183     0.19980E+03 
  49296.5805     0.19858E+03 
  49328.8426     0.19737E+03 
  49361.1048     0.19615E+03 
  49393.3670     0.19494E+03 
  49425.6291     0.19374E+03 
  49457.8913     0.19254E+03 
  49490.1534     0.19134E+03 
  49522.4156     0.19014E+03 
  49554.6778     0.18895E+03 
  49586.9399     0.18776E+03 
  49619.2021     0.18658E+03 
  49651.4642     0.18539E+03 
  49683.7264     0.18422E+03 
  49715.9886     0.18304E+03 
  49748.2507     0.18187E+03 
  49780.5129     0.18070E+03 
  49812.7750     0.17954E+03 
  49845.0372     0.17838E+03 
  49877.2994     0.17722E+03 
  49909.5615     0.17607E+03 
  49941.8237     0.17492E+03 
  49974.0858     0.17378E+03 
  50006.3480     0.17264E+03 
  50038.6102     0.17150E+03 
  50070.8723     0.17037E+03 
  50103.1345     0.16924E+03 
  50135.3966     0.16811E+03 
  50167.6588     0.16699E+03 
  50199.9210     0.16587E+03 
  50232.1831     0.16476E+03 
  50264.4453     0.16365E+03 
  50296.7074     0.16255E+03 
  50328.9696     0.16145E+03 
  50361.2318     0.16035E+03 
  50393.4939     0.15926E+03 
  50425.7561     0.15817E+03 
  50458.0182     0.15708E+03 
  50490.2804     0.15600E+03 
  50522.5426     0.15493E+03 
  50554.8047     0.15386E+03 
  50587.0669     0.15279E+03 
  50619.3290     0.15173E+03 
  50651.5912     0.15067E+03 
  50683.8534     0.14961E+03 
  50716.1155     0.14856E+03 
  50748.3777     0.14752E+03 
  50780.6398     0.14647E+03 
  50812.9020     0.14544E+03 
  50845.1642     0.14440E+03 
  50877.4263     0.14337E+03 
  50909.6885     0.14235E+03 
  50941.9506     0.14133E+03 
  50974.2128     0.14032E+03 
  51006.4750     0.13930E+03 
  51038.7371     0.13830E+03 
  51070.9993     0.13729E+03 
  51103.2614     0.13630E+03 
  51135.5236     0.13530E+03 
  51167.7858     0.13431E+03 
  51200.0479     0.13333E+03 
  51232.3101     0.13235E+03 
  51264.5722     0.13137E+03 
  51296.8344     0.13040E+03 
  51329.0966     0.12944E+03 
  51361.3587     0.12848E+03 
  51393.6209     0.12752E+03 
  51425.8830     0.12656E+03 
  51458.1452     0.12562E+03 
  51490.4074     0.12467E+03 
  51522.6695     0.12373E+03 
  51554.9317     0.12280E+03 
  51587.1938     0.12187E+03 
  51619.4560     0.12094E+03 
  51651.7182     0.12002E+03 
  51683.9803     0.11910E+03 
  51716.2425     0.11819E+03 
  51748.5046     0.11728E+03 
  51780.7668     0.11638E+03 
  51813.0290     0.11548E+03 
  51845.2911     0.11459E+03 
  51877.5533     0.11370E+03 
  51909.8154     0.11281E+03 
  51942.0776     0.11193E+03 
  51974.3398     0.11106E+03 
  52006.6019     0.11019E+03 
  52038.8641     0.10932E+03 
  52071.1262     0.10846E+03 
  52103.3884     0.10760E+03 
  52135.6506     0.10675E+03 
  52167.9127     0.10590E+03 
  52200.1749     0.10505E+03 
  52232.4370     0.10421E+03 
  52264.6992     0.10338E+03 
  52296.9614     0.10255E+03 
  52329.2235     0.10172E+03 
  52361.4857     0.10090E+03 
  52393.7478     0.10008E+03 
  52426.0100     0.99271E+02 
  52458.2722     0.98463E+02 
  52490.5343     0.97660E+02 
  52522.7965     0.96861E+02 
  52555.0586     0.96066E+02 
  52587.3208     0.95276E+02 
  52619.5830     0.94490E+02 
  52651.8451     0.93709E+02 
  52684.1073     0.92932E+02 
  52716.3694     0.92160E+02 
  52748.6316     0.91392E+02 
  52780.8938     0.90628E+02 
  52813.1559     0.89869E+02 
  52845.4181     0.89115E+02 
  52877.6802     0.88365E+02 
  52909.9424     0.87619E+02 
  52942.2046     0.86877E+02 
  52974.4667     0.86140E+02 
  53006.7289     0.85407E+02 
  53038.9910     0.84679E+02 
  53071.2532     0.83955E+02 
  53103.5154     0.83235E+02 
  53135.7775     0.82520E+02 
  53168.0397     0.81809E+02 
  53200.3018     0.81102E+02 
  53232.5640     0.80400E+02 
  53264.8262     0.79702E+02 
  53297.0883     0.79008E+02 
  53329.3505     0.78318E+02 
  53361.6126     0.77633E+02 
  53393.8748     0.76952E+02 
  53426.1370     0.76275E+02 
  53458.3991     0.75602E+02 
  53490.6613     0.74933E+02 
  53522.9234     0.74269E+02 
  53555.1856     0.73609E+02 
  53587.4478     0.72953E+02 
  53619.7099     0.72301E+02 
  53651.9721     0.71654E+02 
  53684.2342     0.71010E+02 
  53716.4964     0.70371E+02 
  53748.7586     0.69735E+02 
  53781.0207     0.69104E+02 
  53813.2829     0.68477E+02 
  53845.5450     0.67854E+02 
  53877.8072     0.67235E+02 
  53910.0694     0.66620E+02 
  53942.3315     0.66009E+02 
  53974.5937     0.65401E+02 
  54006.8558     0.64798E+02 
  54039.1180     0.64199E+02 
  54071.3802     0.63604E+02 
  54103.6423     0.63013E+02 
  54135.9045     0.62426E+02 
  54168.1666     0.61843E+02 
  54200.4288     0.61263E+02 
  54232.6910     0.60688E+02 
  54264.9531     0.60116E+02 
  54297.2153     0.59548E+02 
  54329.4774     0.58984E+02 
  54361.7396     0.58424E+02 
  54394.0018     0.57868E+02 
  54426.2639     0.57315E+02 
  54458.5261     0.56767E+02 
  54490.7882     0.56222E+02 
  54523.0504     0.55681E+02 
  54555.3126     0.55143E+02 
  54587.5747     0.54609E+02 
  54619.8369     0.54079E+02 
  54652.0990     0.53553E+02 
  54684.3612     0.53030E+02 
  54716.6234     0.52511E+02 
  54748.8855     0.51996E+02 
  54781.1477     0.51484E+02 
  54813.4098     0.50976E+02 
  54845.6720     0.50471E+02 
  54877.9342     0.49970E+02 
  54910.1963     0.49473E+02 
  54942.4585     0.48979E+02 
  54974.7206     0.48488E+02 
  55006.9828     0.48002E+02 
  55039.2450     0.47518E+02 
  55071.5071     0.47038E+02 
  55103.7693     0.46562E+02 
  55136.0314     0.46089E+02 
  55168.2936     0.45619E+02 
  55200.5558     0.45153E+02 
  55232.8179     0.44690E+02 
  55265.0801     0.44231E+02 
  55297.3422     0.43775E+02 
  55329.6044     0.43322E+02 
  55361.8666     0.42873E+02 
  55394.1287     0.42427E+02 
  55426.3909     0.41984E+02 
  55458.6530     0.41545E+02 
  55490.9152     0.41109E+02 
  55523.1774     0.40676E+02 
  55555.4395     0.40246E+02 
  55587.7017     0.39820E+02 
  55619.9638     0.39396E+02 
  55652.2260     0.38976E+02 
  55684.4882     0.38559E+02 
  55716.7503     0.38146E+02 
  55749.0125     0.37735E+02 
  55781.2746     0.37327E+02 
  55813.5368     0.36923E+02 
  55845.7990     0.36522E+02 
  55878.0611     0.36123E+02 
  55910.3233     0.35728E+02 
  55942.5854     0.35336E+02 
  55974.8476     0.34947E+02 
  56007.1098     0.34560E+02 
  56039.3719     0.34177E+02 
  56071.6341     0.33797E+02 
  56103.8962     0.33420E+02 
  56136.1584     0.33045E+02 
  56168.4206     0.32674E+02 
  56200.6827     0.32305E+02 
  56232.9449     0.31940E+02 
  56265.2070     0.31577E+02 
  56297.4692     0.31217E+02 
  56329.7314     0.30860E+02 
  56361.9935     0.30506E+02 
  56394.2557     0.30154E+02 
  56426.5178     0.29805E+02 
  56458.7800     0.29460E+02 
  56491.0422     0.29116E+02 
  56523.3043     0.28776E+02 
  56555.5665     0.28438E+02 
  56587.8286     0.28104E+02 
  56620.0908     0.27771E+02 
  56652.3530     0.27442E+02 
  56684.6151     0.27115E+02 
  56716.8773     0.26791E+02 
  56749.1394     0.26469E+02 
  56781.4016     0.26150E+02 
  56813.6638     0.25834E+02 
  56845.9259     0.25520E+02 
  56878.1881     0.25209E+02 
  56910.4502     0.24900E+02 
  56942.7124     0.24594E+02 
  56974.9746     0.24290E+02 
  57007.2367     0.23989E+02 
  57039.4989     0.23691E+02 
  57071.7610     0.23395E+02 
  57104.0232     0.23101E+02 
  57136.2854     0.22810E+02 
  57168.5475     0.22521E+02 
  57200.8097     0.22235E+02 
  57233.0718     0.21951E+02 
  57265.3340     0.21669E+02 
  57297.5962     0.21390E+02 
  57329.8583     0.21114E+02 
  57362.1205     0.20839E+02 
  57394.3826     0.20567E+02 
  57426.6448     0.20297E+02 
  57458.9070     0.20030E+02 
  57491.1691     0.19765E+02 
  57523.4313     0.19502E+02 
  57555.6934     0.19242E+02 
  57587.9556     0.18983E+02 
  57620.2178     0.18727E+02 
  57652.4799     0.18473E+02 
  57684.7421     0.18222E+02 
  57717.0042     0.17972E+02 
  57749.2664     0.17725E+02 
  57781.5286     0.17480E+02 
  57813.7907     0.17237E+02 
  57846.0529     0.16997E+02 
  57878.3150     0.16758E+02 
  57910.5772     0.16522E+02 
  57942.8394     0.16287E+02 
  57975.1015     0.16055E+02 
  58007.3637     0.15825E+02 
  58039.6258     0.15597E+02 
  58071.8880     0.15371E+02 
  58104.1502     0.15147E+02 
  58136.4123     0.14925E+02 
  58168.6745     0.14705E+02 
  58200.9366     0.14488E+02 
  58233.1988     0.14272E+02 
  58265.4610     0.14058E+02 
  58297.7231     0.13846E+02 
  58329.9853     0.13636E+02 
  58362.2474     0.13428E+02 
  58394.5096     0.13222E+02 
  58426.7718     0.13018E+02 
  58459.0339     0.12816E+02 
  58491.2961     0.12616E+02 
  58523.5582     0.12417E+02 
  58555.8204     0.12221E+02 
  58588.0826     0.12026E+02 
  58620.3447     0.11834E+02 
  58652.6069     0.11643E+02 
  58684.8690     0.11454E+02 
  58717.1312     0.11267E+02 
  58749.3934     0.11082E+02 
  58781.6555     0.10898E+02 
  58813.9177     0.10716E+02 
  58846.1798     0.10537E+02 
  58878.4420     0.10358E+02 
  58910.7042     0.10182E+02 
  58942.9663     0.10008E+02 
  58975.2285     0.98348E+01 
  59007.4906     0.96638E+01 
  59039.7528     0.94945E+01 
  59072.0150     0.93270E+01 
  59104.2771     0.91611E+01 
  59136.5393     0.89970E+01 
  59168.8014     0.88346E+01 
  59201.0636     0.86739E+01 
  59233.3258     0.85149E+01 
  59265.5879     0.83576E+01 
  59297.8501     0.82019E+01 
  59330.1122     0.80479E+01 
  59362.3744     0.78956E+01 
  59394.6366     0.77449E+01 
  59426.8987     0.75958E+01 
  59459.1609     0.74484E+01 
  59491.4230     0.73026E+01 
  59523.6852     0.71584E+01 
  59555.9474     0.70158E+01 
  59588.2095     0.68749E+01 
  59620.4717     0.67355E+01 
  59652.7338     0.65977E+01 
  59684.9960     0.64615E+01 
  59717.2582     0.63269E+01 
  59749.5203     0.61939E+01 
  59781.7825     0.60624E+01 
  59814.0446     0.59325E+01 
  59846.3068     0.58041E+01 
  59878.5690     0.56773E+01 
  59910.8311     0.55520E+01 
  59943.0933     0.54282E+01 
  59975.3554     0.53060E+01 
  60007.6176     0.51853E+01 
  60039.8798     0.50661E+01 
  60072.1419     0.49484E+01 
  60104.4041     0.48323E+01 
  60136.6662     0.47176E+01 
  60168.9284     0.46045E+01 
  60201.1906     0.44928E+01 
  60233.4527     0.43826E+01 
  60265.7149     0.42739E+01 
  60297.9770     0.41667E+01 
  60330.2392     0.40610E+01 
  60362.5014     0.39567E+01 
  60394.7635     0.38540E+01 
  60427.0257     0.37526E+01 
  60459.2878     0.36528E+01 
  60491.5500     0.35544E+01 
  60523.8122     0.34575E+01 
  60556.0743     0.33620E+01 
  60588.3365     0.32680E+01 
  60620.5986     0.31754E+01 
  60652.8608     0.30843E+01 
  60685.1230     0.29946E+01 
  60717.3851     0.29063E+01 
  60749.6473     0.28195E+01 
  60781.9094     0.27342E+01 
  60814.1716     0.26503E+01 
  60846.4338     0.25678E+01 
  60878.6959     0.24868E+01 
  60910.9581     0.24072E+01 
  60943.2202     0.23290E+01 
  60975.4824     0.22523E+01 
  61007.7446     0.21770E+01 
  61040.0067     0.21031E+01 
  61072.2689     0.20307E+01 
  61104.5310     0.19597E+01 
  61136.7932     0.18902E+01 
  61169.0554     0.18221E+01 
  61201.3175     0.17554E+01 
  61233.5797     0.16902E+01 
  61265.8418     0.16264E+01 
  61298.1040     0.15640E+01 
  61330.3662     0.15031E+01 
  61362.6283     0.14437E+01 
  61394.8905     0.13857E+01 
  61427.1526     0.13291E+01 
  61459.4148     0.12740E+01 
  61491.6770     0.12204E+01 
  61523.9391     0.11682E+01 
  61556.2013     0.11175E+01 
  61588.4634     0.10683E+01 
  61620.7256     0.10205E+01 
  61652.9878     0.97420E+00 
  61685.2499     0.92939E+00 
  61717.5121     0.88606E+00 
  61749.7742     0.84423E+00 
  61782.0364     0.80389E+00 
  61814.2986     0.76505E+00 
  61846.5607     0.72772E+00 
  61878.8229     0.69190E+00 
  61911.0850     0.65761E+00 
  61943.3472     0.62484E+00 
  61975.6094     0.59361E+00 
  62007.8715     0.56392E+00 
  62040.1337     0.53578E+00 
  62072.3958     0.50919E+00 
  62104.6580     0.48417E+00 
  62136.9202     0.46073E+00 
  62169.1823     0.43887E+00 
  62201.4445     0.41860E+00 
  62233.7066     0.39993E+00 
  62265.9688     0.38287E+00 
  62298.2310     0.36744E+00 
  62330.4931     0.35363E+00 
  62362.7553     0.34148E+00 
  62395.0174     0.33097E+00 
  62427.2796     0.32213E+00 
  62459.5418     0.31498E+00 
  62491.8039     0.30951E+00 
  62524.0661     0.30574E+00 
  62556.3282     0.30370E+00 
  62588.5904     0.30338E+00 
  62620.8526     0.30481E+00 
  62653.1147     0.30800E+00 
  62685.3769     0.31296E+00 
  62717.6390     0.31972E+00 
  62749.9012     0.32828E+00 
  62782.1634     0.33866E+00 
  62814.4255     0.35088E+00 
  62846.6877     0.36495E+00 
  62878.9498     0.38090E+00 
  62911.2120     0.39874E+00 
  62943.4742     0.41849E+00 
  62975.7363     0.44017E+00 
  63007.9985     0.46380E+00 
  63040.2606     0.48940E+00 
  63072.5228     0.51699E+00 
  63104.7850     0.54659E+00 
  63137.0471     0.57822E+00 
  63169.3093     0.61191E+00 
  63201.5714     0.64767E+00 
  63233.8336     0.68554E+00 
  63266.0958     0.72554E+00 
  63298.3579     0.76769E+00 
  63330.6201     0.81201E+00 
  63362.8822     0.85853E+00 
  63395.1444     0.90729E+00 
  63427.4066     0.95830E+00 
  63459.6687     0.10116E+01 
  63491.9309     0.10672E+01 
  63524.1930     0.11252E+01 
  63556.4552     0.11855E+01 
  63588.7174     0.12482E+01 
  63620.9795     0.13134E+01 
  63653.2417     0.13810E+01 
  63685.5038     0.14511E+01 
  63717.7660     0.15238E+01 
  63750.0282     0.15990E+01 
  63782.2903     0.16769E+01 
  63814.5525     0.17574E+01 
  63846.8146     0.18405E+01 
  63879.0768     0.19264E+01 
  63911.3390     0.20150E+01 
  63943.6011     0.21065E+01 
  63975.8633     0.22007E+01 
  64008.1254     0.22979E+01 
  64040.3876     0.23979E+01 
  64072.6498     0.25009E+01 
  64104.9119     0.26070E+01 
  64137.1741     0.27160E+01 
  64169.4362     0.28282E+01 
  64201.6984     0.29436E+01 
  64233.9606     0.30621E+01 
  64266.2227     0.31839E+01 
  64298.4849     0.33089E+01 
  64330.7470     0.34374E+01 
  64363.0092     0.35692E+01 
  64395.2714     0.37045E+01 
  64427.5335     0.38433E+01 
  64459.7957     0.39856E+01 
  64492.0578     0.41316E+01 
  64524.3200     0.42813E+01 
  64556.5822     0.44347E+01 
  64588.8443     0.45920E+01 
  64621.1065     0.47531E+01 
  64653.3686     0.49181E+01 
  64685.6308     0.50872E+01 
  64717.8930     0.52603E+01 
  64750.1551     0.54376E+01 
  64782.4173     0.56191E+01 
  64814.6794     0.58048E+01 
  64846.9416     0.59950E+01 
  64879.2038     0.61895E+01 
  64911.4659     0.63886E+01 
  64943.7281     0.65922E+01 
  64975.9902     0.68005E+01 
  65008.2524     0.70136E+01 
  65040.5146     0.72315E+01 
  65072.7767     0.74543E+01 
  65105.0389     0.76821E+01 
  65137.3010     0.79150E+01 
  65169.5632     0.81531E+01 
  65201.8254     0.83965E+01 
  65234.0875     0.86452E+01 
  65266.3497     0.88994E+01 
  65298.6118     0.91592E+01 
  65330.8740     0.94247E+01 
  65363.1362     0.96959E+01 
  65395.3983     0.99729E+01 
  65427.6605     0.10256E+02 
  65459.9226     0.10545E+02 
  65492.1848     0.10840E+02 
  65524.4470     0.11142E+02 
  65556.7091     0.11450E+02 
  65588.9713     0.11765E+02 
  65621.2334     0.12086E+02 
  65653.4956     0.12414E+02 
  65685.7578     0.12749E+02 
  65718.0199     0.13091E+02 
  65750.2821     0.13441E+02 
  65782.5442     0.13797E+02 
  65814.8064     0.14161E+02 
  65847.0686     0.14533E+02 
  65879.3307     0.14912E+02 
  65911.5929     0.15299E+02 
  65943.8550     0.15694E+02 
  65976.1172     0.16097E+02 
  66008.3794     0.16509E+02 
  66040.6415     0.16929E+02 
  66072.9037     0.17358E+02 
  66105.1658     0.17795E+02 
  66137.4280     0.18242E+02 
  66169.6902     0.18697E+02 
  66201.9523     0.19162E+02 
  66234.2145     0.19636E+02 
  66266.4766     0.20120E+02 
  66298.7388     0.20614E+02 
  66331.0010     0.21118E+02 
  66363.2631     0.21632E+02 
  66395.5253     0.22156E+02 
  66427.7874     0.22691E+02 
  66460.0496     0.23237E+02 
  66492.3118     0.23793E+02 
  66524.5739     0.24361E+02 
  66556.8361     0.24940E+02 
  66589.0982     0.25531E+02 
  66621.3604     0.26134E+02 
  66653.6226     0.26749E+02 
  66685.8847     0.27376E+02 
  66718.1469     0.28015E+02 
  66750.4090     0.28667E+02 
  66782.6712     0.29332E+02 
  66814.9334     0.30011E+02 
  66847.1955     0.30702E+02 
  66879.4577     0.31408E+02 
  66911.7198     0.32127E+02 
  66943.9820     0.32861E+02 
  66976.2442     0.33609E+02 
  67008.5063     0.34372E+02 
  67040.7685     0.35150E+02 
  67073.0306     0.35943E+02 
  67105.2928     0.36752E+02 
  67137.5550     0.37576E+02 
  67169.8171     0.38417E+02 
  67202.0793     0.39274E+02 
  67234.3414     0.40148E+02 
  67266.6036     0.41039E+02 
  67298.8658     0.41947E+02 
  67331.1279     0.42873E+02 
  67363.3901     0.43817E+02 
  67395.6522     0.44780E+02 
  67427.9144     0.45761E+02 
  67460.1766     0.46761E+02 
  67492.4387     0.47780E+02 
  67524.7009     0.48819E+02 
  67556.9630     0.49878E+02 
  67589.2252     0.50958E+02 
  67621.4874     0.52058E+02 
  67653.7495     0.53179E+02 
  67686.0117     0.54322E+02 
  67718.2738     0.55487E+02 
  67750.5360     0.56674E+02 
  67782.7982     0.57883E+02 
  67815.0603     0.59116E+02 
  67847.3225     0.60372E+02 
  67879.5846     0.61652E+02 
  67911.8468     0.62957E+02 
  67944.1090     0.64286E+02 
  67976.3711     0.65640E+02 
  68008.6333     0.67020E+02 
  68040.8954     0.68426E+02 
  68073.1576     0.69859E+02 
  68105.4198     0.71318E+02 
  68137.6819     0.72805E+02 
  68169.9441     0.74319E+02 
  68202.2062     0.75862E+02 
  68234.4684     0.77434E+02 
  68266.7306     0.79035E+02 
  68298.9927     0.80666E+02 
  68331.2549     0.82327E+02 
  68363.5170     0.84019E+02 
  68395.7792     0.85743E+02 
  68428.0414     0.87498E+02 
  68460.3035     0.89286E+02 
  68492.5657     0.91106E+02 
  68524.8278     0.92960E+02 
  68557.0900     0.94848E+02 
  68589.3522     0.96771E+02 
  68621.6143     0.98728E+02 
  68653.8765     0.10072E+03 
  68686.1386     0.10275E+03 
  68718.4008     0.10482E+03 
  68750.6630     0.10692E+03 
  68782.9251     0.10906E+03 
  68815.1873     0.11124E+03 
  68847.4494     0.11346E+03 
  68879.7116     0.11572E+03 
  68911.9738     0.11802E+03 
  68944.2359     0.12037E+03 
  68976.4981     0.12275E+03 
  69008.7602     0.12518E+03 
  69041.0224     0.12764E+03 
  69073.2846     0.13016E+03 
  69105.5467     0.13271E+03 
  69137.8089     0.13532E+03 
  69170.0710     0.13796E+03 
  69202.3332     0.14066E+03 
  69234.5954     0.14340E+03 
  69266.8575     0.14619E+03 
  69299.1197     0.14903E+03 
  69331.3818     0.15191E+03 
  69363.6440     0.15485E+03 
  69395.9062     0.15784E+03 
  69428.1683     0.16088E+03 
  69460.4305     0.16397E+03 
  69492.6926     0.16711E+03 
  69524.9548     0.17031E+03 
  69557.2170     0.17357E+03 
  69589.4791     0.17687E+03 
  69621.7413     0.18024E+03 
  69654.0034     0.18366E+03 
  69686.2656     0.18714E+03 
  69718.5278     0.19068E+03 
  69750.7899     0.19427E+03 
  69783.0521     0.19793E+03 
  69815.3142     0.20165E+03 
  69847.5764     0.20543E+03 
  69879.8386     0.20927E+03 
  69912.1007     0.21318E+03 
  69944.3629     0.21715E+03 
  69976.6250     0.22118E+03 
  70008.8872     0.22528E+03 
  70041.1494     0.22945E+03 
  70073.4115     0.23369E+03 
  70105.6737     0.23799E+03 
  70137.9358     0.24236E+03 
  70170.1980     0.24681E+03 
  70202.4602     0.25132E+03 
  70234.7223     0.25591E+03 
  70266.9845     0.26057E+03 
  70299.2466     0.26530E+03 
  70331.5088     0.27011E+03 
  70363.7710     0.27500E+03 
  70396.0331     0.27996E+03 
  70428.2953     0.28500E+03 
  70460.5574     0.29012E+03 
  70492.8196     0.29531E+03 
  70525.0818     0.30059E+03 
  70557.3439     0.30595E+03 
  70589.6061     0.31139E+03 
  70621.8682     0.31692E+03 
  70654.1304     0.32253E+03 
  70686.3926     0.32822E+03 
  70718.6547     0.33400E+03 
  70750.9169     0.33987E+03 
  70783.1790     0.34582E+03 
  70815.4412     0.35187E+03 
  70847.7034     0.35800E+03 
  70879.9655     0.36423E+03 
  70912.2277     0.37055E+03 
  70944.4898     0.37696E+03 
  70976.7520     0.38346E+03 
  71009.0142     0.39006E+03 
  71041.2763     0.39675E+03 
  71073.5385     0.40355E+03 
  71105.8006     0.41044E+03 
  71138.0628     0.41743E+03 
  71170.3250     0.42451E+03 
  71202.5871     0.43170E+03 
  71234.8493     0.43899E+03 
  71267.1114     0.44639E+03 
  71299.3736     0.45389E+03 
  71331.6358     0.46149E+03 
  71363.8979     0.46920E+03 
  71396.1601     0.47701E+03 
  71428.4222     0.48493E+03 
  71460.6844     0.49297E+03 
  71492.9466     0.50111E+03 
  71525.2087     0.50936E+03 
  71557.4709     0.51772E+03 
  71589.7330     0.52620E+03 
  71621.9952     0.53479E+03 
  71654.2574     0.54349E+03 
  71686.5195     0.55231E+03 
  71718.7817     0.56124E+03 
  71751.0438     0.57030E+03 
  71783.3060     0.57947E+03 
  71815.5682     0.58876E+03 
  71847.8303     0.59817E+03 
  71880.0925     0.60770E+03 
  71912.3546     0.61735E+03 
  71944.6168     0.62713E+03 
  71976.8790     0.63703E+03 
  72009.1411     0.64706E+03 
  72041.4033     0.65721E+03 
  72073.6654     0.66749E+03 
  72105.9276     0.67789E+03 
  72138.1898     0.68842E+03 
  72170.4519     0.69909E+03 
  72202.7141     0.70988E+03 
  72234.9762     0.72080E+03 
  72267.2384     0.73186E+03 
  72299.5006     0.74305E+03 
  72331.7627     0.75437E+03 
  72364.0249     0.76582E+03 
  72396.2870     0.77741E+03 
  72428.5492     0.78914E+03 
  72460.8114     0.80100E+03 
  72493.0735     0.81300E+03 
  72525.3357     0.82514E+03 
  72557.5978     0.83742E+03 
  72589.8600     0.84983E+03 
