  32262.1600     0.56921E+02 
  32294.4222     0.57640E+02 
  32326.6843     0.58364E+02 
  32358.9465     0.59095E+02 
  32391.2086     0.59832E+02 
  32423.4708     0.60575E+02 
  32455.7330     0.61324E+02 
  32487.9951     0.62079E+02 
  32520.2573     0.62841E+02 
  32552.5194     0.63609E+02 
  32584.7816     0.64383E+02 
  32617.0438     0.65163E+02 
  32649.3059     0.65950E+02 
  32681.5681     0.66743E+02 
  32713.8302     0.67542E+02 
  32746.0924     0.68347E+02 
  32778.3546     0.69158E+02 
  32810.6167     0.69976E+02 
  32842.8789     0.70799E+02 
  32875.1410     0.71629E+02 
  32907.4032     0.72466E+02 
  32939.6654     0.73308E+02 
  32971.9275     0.74157E+02 
  33004.1897     0.75011E+02 
  33036.4518     0.75872E+02 
  33068.7140     0.76739E+02 
  33100.9762     0.77613E+02 
  33133.2383     0.78492E+02 
  33165.5005     0.79377E+02 
  33197.7626     0.80269E+02 
  33230.0248     0.81167E+02 
  33262.2870     0.82071E+02 
  33294.5491     0.82980E+02 
  33326.8113     0.83896E+02 
  33359.0734     0.84818E+02 
  33391.3356     0.85746E+02 
  33423.5978     0.86680E+02 
  33455.8599     0.87620E+02 
  33488.1221     0.88566E+02 
  33520.3842     0.89518E+02 
  33552.6464     0.90475E+02 
  33584.9086     0.91439E+02 
  33617.1707     0.92409E+02 
  33649.4329     0.93384E+02 
  33681.6950     0.94365E+02 
  33713.9572     0.95352E+02 
  33746.2194     0.96345E+02 
  33778.4815     0.97343E+02 
  33810.7437     0.98347E+02 
  33843.0058     0.99357E+02 
  33875.2680     0.10037E+03 
  33907.5302     0.10139E+03 
  33939.7923     0.10242E+03 
  33972.0545     0.10345E+03 
  34004.3166     0.10449E+03 
  34036.5788     0.10553E+03 
  34068.8410     0.10658E+03 
  34101.1031     0.10764E+03 
  34133.3653     0.10869E+03 
  34165.6274     0.10976E+03 
  34197.8896     0.11083E+03 
  34230.1518     0.11190E+03 
  34262.4139     0.11298E+03 
  34294.6761     0.11407E+03 
  34326.9382     0.11516E+03 
  34359.2004     0.11626E+03 
  34391.4626     0.11736E+03 
  34423.7247     0.11846E+03 
  34455.9869     0.11957E+03 
  34488.2490     0.12069E+03 
  34520.5112     0.12181E+03 
  34552.7734     0.12293E+03 
  34585.0355     0.12406E+03 
  34617.2977     0.12520E+03 
  34649.5598     0.12633E+03 
  34681.8220     0.12748E+03 
  34714.0842     0.12862E+03 
  34746.3463     0.12978E+03 
  34778.6085     0.13093E+03 
  34810.8706     0.13209E+03 
  34843.1328     0.13326E+03 
  34875.3950     0.13443E+03 
  34907.6571     0.13560E+03 
  34939.9193     0.13678E+03 
  34972.1814     0.13796E+03 
  35004.4436     0.13915E+03 
  35036.7058     0.14034E+03 
  35068.9679     0.14153E+03 
  35101.2301     0.14273E+03 
  35133.4922     0.14393E+03 
  35165.7544     0.14513E+03 
  35198.0166     0.14634E+03 
  35230.2787     0.14755E+03 
  35262.5409     0.14877E+03 
  35294.8030     0.14998E+03 
  35327.0652     0.15121E+03 
  35359.3274     0.15243E+03 
  35391.5895     0.15366E+03 
  35423.8517     0.15489E+03 
  35456.1138     0.15612E+03 
  35488.3760     0.15736E+03 
  35520.6382     0.15860E+03 
  35552.9003     0.15984E+03 
  35585.1625     0.16109E+03 
  35617.4246     0.16233E+03 
  35649.6868     0.16358E+03 
  35681.9490     0.16484E+03 
  35714.2111     0.16609E+03 
  35746.4733     0.16735E+03 
  35778.7354     0.16861E+03 
  35810.9976     0.16987E+03 
  35843.2598     0.17113E+03 
  35875.5219     0.17240E+03 
  35907.7841     0.17367E+03 
  35940.0462     0.17493E+03 
  35972.3084     0.17621E+03 
  36004.5706     0.17748E+03 
  36036.8327     0.17875E+03 
  36069.0949     0.18003E+03 
  36101.3570     0.18131E+03 
  36133.6192     0.18258E+03 
  36165.8814     0.18386E+03 
  36198.1435     0.18514E+03 
  36230.4057     0.18642E+03 
  36262.6678     0.18771E+03 
  36294.9300     0.18899E+03 
  36327.1922     0.19027E+03 
  36359.4543     0.19156E+03 
  36391.7165     0.19284E+03 
  36423.9786     0.19413E+03 
  36456.2408     0.19542E+03 
  36488.5030     0.19670E+03 
  36520.7651     0.19799E+03 
  36553.0273     0.19928E+03 
  36585.2894     0.20056E+03 
  36617.5516     0.20185E+03 
  36649.8138     0.20314E+03 
  36682.0759     0.20442E+03 
  36714.3381     0.20571E+03 
  36746.6002     0.20699E+03 
  36778.8624     0.20828E+03 
  36811.1246     0.20956E+03 
  36843.3867     0.21085E+03 
  36875.6489     0.21213E+03 
  36907.9110     0.21341E+03 
  36940.1732     0.21469E+03 
  36972.4354     0.21597E+03 
  37004.6975     0.21725E+03 
  37036.9597     0.21853E+03 
  37069.2218     0.21980E+03 
  37101.4840     0.22108E+03 
  37133.7462     0.22235E+03 
  37166.0083     0.22362E+03 
  37198.2705     0.22489E+03 
  37230.5326     0.22616E+03 
  37262.7948     0.22742E+03 
  37295.0570     0.22869E+03 
  37327.3191     0.22995E+03 
  37359.5813     0.23121E+03 
  37391.8434     0.23246E+03 
  37424.1056     0.23372E+03 
  37456.3678     0.23497E+03 
  37488.6299     0.23622E+03 
  37520.8921     0.23746E+03 
  37553.1542     0.23871E+03 
  37585.4164     0.23995E+03 
  37617.6786     0.24118E+03 
  37649.9407     0.24242E+03 
  37682.2029     0.24365E+03 
  37714.4650     0.24488E+03 
  37746.7272     0.24610E+03 
  37778.9894     0.24732E+03 
  37811.2515     0.24854E+03 
  37843.5137     0.24975E+03 
  37875.7758     0.25096E+03 
  37908.0380     0.25217E+03 
  37940.3002     0.25337E+03 
  37972.5623     0.25457E+03 
  38004.8245     0.25576E+03 
  38037.0866     0.25695E+03 
  38069.3488     0.25813E+03 
  38101.6110     0.25931E+03 
  38133.8731     0.26049E+03 
  38166.1353     0.26166E+03 
  38198.3974     0.26282E+03 
  38230.6596     0.26399E+03 
  38262.9218     0.26514E+03 
  38295.1839     0.26629E+03 
  38327.4461     0.26744E+03 
  38359.7082     0.26858E+03 
  38391.9704     0.26972E+03 
  38424.2326     0.27085E+03 
  38456.4947     0.27197E+03 
  38488.7569     0.27309E+03 
  38521.0190     0.27420E+03 
  38553.2812     0.27531E+03 
  38585.5434     0.27641E+03 
  38617.8055     0.27751E+03 
  38650.0677     0.27860E+03 
  38682.3298     0.27969E+03 
  38714.5920     0.28076E+03 
  38746.8542     0.28184E+03 
  38779.1163     0.28290E+03 
  38811.3785     0.28396E+03 
  38843.6406     0.28501E+03 
  38875.9028     0.28606E+03 
  38908.1650     0.28710E+03 
  38940.4271     0.28813E+03 
  38972.6893     0.28916E+03 
  39004.9514     0.29017E+03 
  39037.2136     0.29119E+03 
  39069.4758     0.29219E+03 
  39101.7379     0.29319E+03 
  39134.0001     0.29418E+03 
  39166.2622     0.29516E+03 
  39198.5244     0.29614E+03 
  39230.7866     0.29711E+03 
  39263.0487     0.29807E+03 
  39295.3109     0.29902E+03 
  39327.5730     0.29997E+03 
  39359.8352     0.30090E+03 
  39392.0974     0.30183E+03 
  39424.3595     0.30276E+03 
  39456.6217     0.30367E+03 
  39488.8838     0.30458E+03 
  39521.1460     0.30547E+03 
  39553.4082     0.30636E+03 
  39585.6703     0.30725E+03 
  39617.9325     0.30812E+03 
  39650.1946     0.30899E+03 
  39682.4568     0.30984E+03 
  39714.7190     0.31069E+03 
  39746.9811     0.31153E+03 
  39779.2433     0.31236E+03 
  39811.5054     0.31318E+03 
  39843.7676     0.31400E+03 
  39876.0298     0.31480E+03 
  39908.2919     0.31560E+03 
  39940.5541     0.31639E+03 
  39972.8162     0.31717E+03 
  40005.0784     0.31793E+03 
  40037.3406     0.31870E+03 
  40069.6027     0.31945E+03 
  40101.8649     0.32019E+03 
  40134.1270     0.32092E+03 
  40166.3892     0.32165E+03 
  40198.6514     0.32236E+03 
  40230.9135     0.32307E+03 
  40263.1757     0.32376E+03 
  40295.4378     0.32445E+03 
  40327.7000     0.32512E+03 
  40359.9622     0.32579E+03 
  40392.2243     0.32645E+03 
  40424.4865     0.32710E+03 
  40456.7486     0.32774E+03 
  40489.0108     0.32836E+03 
  40521.2730     0.32898E+03 
  40553.5351     0.32959E+03 
  40585.7973     0.33019E+03 
  40618.0594     0.33078E+03 
  40650.3216     0.33136E+03 
  40682.5838     0.33193E+03 
  40714.8459     0.33249E+03 
  40747.1081     0.33304E+03 
  40779.3702     0.33358E+03 
  40811.6324     0.33411E+03 
  40843.8946     0.33463E+03 
  40876.1567     0.33514E+03 
  40908.4189     0.33564E+03 
  40940.6810     0.33613E+03 
  40972.9432     0.33661E+03 
  41005.2054     0.33708E+03 
  41037.4675     0.33753E+03 
  41069.7297     0.33798E+03 
  41101.9918     0.33842E+03 
  41134.2540     0.33885E+03 
  41166.5162     0.33927E+03 
  41198.7783     0.33967E+03 
  41231.0405     0.34007E+03 
  41263.3026     0.34046E+03 
  41295.5648     0.34083E+03 
  41327.8270     0.34120E+03 
  41360.0891     0.34155E+03 
  41392.3513     0.34190E+03 
  41424.6134     0.34223E+03 
  41456.8756     0.34256E+03 
  41489.1378     0.34287E+03 
  41521.3999     0.34317E+03 
  41553.6621     0.34346E+03 
  41585.9242     0.34375E+03 
  41618.1864     0.34402E+03 
  41650.4486     0.34428E+03 
  41682.7107     0.34453E+03 
  41714.9729     0.34477E+03 
  41747.2350     0.34500E+03 
  41779.4972     0.34522E+03 
  41811.7594     0.34542E+03 
  41844.0215     0.34562E+03 
  41876.2837     0.34581E+03 
  41908.5458     0.34599E+03 
  41940.8080     0.34615E+03 
  41973.0702     0.34631E+03 
  42005.3323     0.34645E+03 
  42037.5945     0.34659E+03 
  42069.8566     0.34671E+03 
  42102.1188     0.34683E+03 
  42134.3810     0.34693E+03 
  42166.6431     0.34702E+03 
  42198.9053     0.34710E+03 
  42231.1674     0.34718E+03 
  42263.4296     0.34724E+03 
  42295.6918     0.34729E+03 
  42327.9539     0.34733E+03 
  42360.2161     0.34736E+03 
  42392.4782     0.34738E+03 
  42424.7404     0.34739E+03 
  42457.0026     0.34739E+03 
  42489.2647     0.34738E+03 
  42521.5269     0.34736E+03 
  42553.7890     0.34733E+03 
  42586.0512     0.34729E+03 
  42618.3134     0.34723E+03 
  42650.5755     0.34717E+03 
  42682.8377     0.34710E+03 
  42715.0998     0.34702E+03 
  42747.3620     0.34693E+03 
  42779.6242     0.34682E+03 
  42811.8863     0.34671E+03 
  42844.1485     0.34659E+03 
  42876.4106     0.34646E+03 
  42908.6728     0.34631E+03 
  42940.9350     0.34616E+03 
  42973.1971     0.34600E+03 
  43005.4593     0.34583E+03 
  43037.7214     0.34564E+03 
  43069.9836     0.34545E+03 
  43102.2458     0.34525E+03 
  43134.5079     0.34504E+03 
  43166.7701     0.34482E+03 
  43199.0322     0.34459E+03 
  43231.2944     0.34435E+03 
  43263.5566     0.34410E+03 
  43295.8187     0.34384E+03 
  43328.0809     0.34357E+03 
  43360.3430     0.34329E+03 
  43392.6052     0.34300E+03 
  43424.8674     0.34271E+03 
  43457.1295     0.34240E+03 
  43489.3917     0.34208E+03 
  43521.6538     0.34176E+03 
  43553.9160     0.34142E+03 
  43586.1782     0.34108E+03 
  43618.4403     0.34073E+03 
  43650.7025     0.34037E+03 
  43682.9646     0.33999E+03 
  43715.2268     0.33962E+03 
  43747.4890     0.33923E+03 
  43779.7511     0.33883E+03 
  43812.0133     0.33842E+03 
  43844.2754     0.33801E+03 
  43876.5376     0.33758E+03 
  43908.7998     0.33715E+03 
  43941.0619     0.33671E+03 
  43973.3241     0.33626E+03 
  44005.5862     0.33580E+03 
  44037.8484     0.33534E+03 
  44070.1106     0.33486E+03 
  44102.3727     0.33438E+03 
  44134.6349     0.33389E+03 
  44166.8970     0.33339E+03 
  44199.1592     0.33288E+03 
  44231.4214     0.33236E+03 
  44263.6835     0.33184E+03 
  44295.9457     0.33130E+03 
  44328.2078     0.33076E+03 
  44360.4700     0.33021E+03 
  44392.7322     0.32966E+03 
  44424.9943     0.32909E+03 
  44457.2565     0.32852E+03 
  44489.5186     0.32794E+03 
  44521.7808     0.32736E+03 
  44554.0430     0.32676E+03 
  44586.3051     0.32616E+03 
  44618.5673     0.32555E+03 
  44650.8294     0.32493E+03 
  44683.0916     0.32431E+03 
  44715.3538     0.32368E+03 
  44747.6159     0.32304E+03 
  44779.8781     0.32239E+03 
  44812.1402     0.32174E+03 
  44844.4024     0.32108E+03 
  44876.6646     0.32041E+03 
  44908.9267     0.31974E+03 
  44941.1889     0.31906E+03 
  44973.4510     0.31837E+03 
  45005.7132     0.31768E+03 
  45037.9754     0.31698E+03 
  45070.2375     0.31627E+03 
  45102.4997     0.31555E+03 
  45134.7618     0.31483E+03 
  45167.0240     0.31411E+03 
  45199.2862     0.31338E+03 
  45231.5483     0.31264E+03 
  45263.8105     0.31189E+03 
  45296.0726     0.31114E+03 
  45328.3348     0.31038E+03 
  45360.5970     0.30962E+03 
  45392.8591     0.30885E+03 
  45425.1213     0.30807E+03 
  45457.3834     0.30729E+03 
  45489.6456     0.30651E+03 
  45521.9078     0.30571E+03 
  45554.1699     0.30492E+03 
  45586.4321     0.30411E+03 
  45618.6942     0.30330E+03 
  45650.9564     0.30249E+03 
  45683.2186     0.30167E+03 
  45715.4807     0.30085E+03 
  45747.7429     0.30002E+03 
  45780.0050     0.29918E+03 
  45812.2672     0.29834E+03 
  45844.5294     0.29750E+03 
  45876.7915     0.29665E+03 
  45909.0537     0.29579E+03 
  45941.3158     0.29493E+03 
  45973.5780     0.29407E+03 
  46005.8402     0.29320E+03 
  46038.1023     0.29233E+03 
  46070.3645     0.29145E+03 
  46102.6266     0.29057E+03 
  46134.8888     0.28968E+03 
  46167.1510     0.28879E+03 
  46199.4131     0.28789E+03 
  46231.6753     0.28700E+03 
  46263.9374     0.28609E+03 
  46296.1996     0.28519E+03 
  46328.4618     0.28427E+03 
  46360.7239     0.28336E+03 
  46392.9861     0.28244E+03 
  46425.2482     0.28152E+03 
  46457.5104     0.28059E+03 
  46489.7726     0.27966E+03 
  46522.0347     0.27873E+03 
  46554.2969     0.27779E+03 
  46586.5590     0.27685E+03 
  46618.8212     0.27591E+03 
  46651.0834     0.27496E+03 
  46683.3455     0.27401E+03 
  46715.6077     0.27305E+03 
  46747.8698     0.27210E+03 
  46780.1320     0.27114E+03 
  46812.3942     0.27018E+03 
  46844.6563     0.26921E+03 
  46876.9185     0.26824E+03 
  46909.1806     0.26727E+03 
  46941.4428     0.26630E+03 
  46973.7050     0.26532E+03 
  47005.9671     0.26434E+03 
  47038.2293     0.26336E+03 
  47070.4914     0.26238E+03 
  47102.7536     0.26139E+03 
  47135.0158     0.26040E+03 
  47167.2779     0.25941E+03 
  47199.5401     0.25842E+03 
  47231.8022     0.25742E+03 
  47264.0644     0.25642E+03 
  47296.3266     0.25543E+03 
  47328.5887     0.25442E+03 
  47360.8509     0.25342E+03 
  47393.1130     0.25242E+03 
  47425.3752     0.25141E+03 
  47457.6374     0.25040E+03 
  47489.8995     0.24939E+03 
  47522.1617     0.24838E+03 
  47554.4238     0.24737E+03 
  47586.6860     0.24635E+03 
  47618.9482     0.24534E+03 
  47651.2103     0.24432E+03 
  47683.4725     0.24330E+03 
  47715.7346     0.24228E+03 
  47747.9968     0.24126E+03 
  47780.2590     0.24024E+03 
  47812.5211     0.23921E+03 
  47844.7833     0.23819E+03 
  47877.0454     0.23716E+03 
  47909.3076     0.23614E+03 
  47941.5698     0.23511E+03 
  47973.8319     0.23408E+03 
  48006.0941     0.23306E+03 
  48038.3562     0.23203E+03 
  48070.6184     0.23100E+03 
  48102.8806     0.22997E+03 
  48135.1427     0.22894E+03 
  48167.4049     0.22791E+03 
  48199.6670     0.22687E+03 
  48231.9292     0.22584E+03 
  48264.1914     0.22481E+03 
  48296.4535     0.22378E+03 
  48328.7157     0.22275E+03 
  48360.9778     0.22171E+03 
  48393.2400     0.22068E+03 
  48425.5022     0.21965E+03 
  48457.7643     0.21862E+03 
  48490.0265     0.21758E+03 
  48522.2886     0.21655E+03 
  48554.5508     0.21552E+03 
  48586.8130     0.21449E+03 
  48619.0751     0.21346E+03 
  48651.3373     0.21242E+03 
  48683.5994     0.21139E+03 
  48715.8616     0.21036E+03 
  48748.1238     0.20933E+03 
  48780.3859     0.20830E+03 
  48812.6481     0.20727E+03 
  48844.9102     0.20625E+03 
  48877.1724     0.20522E+03 
  48909.4346     0.20419E+03 
  48941.6967     0.20316E+03 
  48973.9589     0.20214E+03 
  49006.2210     0.20111E+03 
  49038.4832     0.20009E+03 
  49070.7454     0.19907E+03 
  49103.0075     0.19805E+03 
  49135.2697     0.19702E+03 
  49167.5318     0.19600E+03 
  49199.7940     0.19499E+03 
  49232.0562     0.19397E+03 
  49264.3183     0.19295E+03 
  49296.5805     0.19194E+03 
  49328.8426     0.19092E+03 
  49361.1048     0.18991E+03 
  49393.3670     0.18890E+03 
  49425.6291     0.18789E+03 
  49457.8913     0.18688E+03 
  49490.1534     0.18587E+03 
  49522.4156     0.18487E+03 
  49554.6778     0.18386E+03 
  49586.9399     0.18286E+03 
  49619.2021     0.18186E+03 
  49651.4642     0.18086E+03 
  49683.7264     0.17986E+03 
  49715.9886     0.17887E+03 
  49748.2507     0.17787E+03 
  49780.5129     0.17688E+03 
  49812.7750     0.17589E+03 
  49845.0372     0.17490E+03 
  49877.2994     0.17391E+03 
  49909.5615     0.17293E+03 
  49941.8237     0.17195E+03 
  49974.0858     0.17096E+03 
  50006.3480     0.16999E+03 
  50038.6102     0.16901E+03 
  50070.8723     0.16803E+03 
  50103.1345     0.16706E+03 
  50135.3966     0.16609E+03 
  50167.6588     0.16512E+03 
  50199.9210     0.16415E+03 
  50232.1831     0.16319E+03 
  50264.4453     0.16223E+03 
  50296.7074     0.16127E+03 
  50328.9696     0.16031E+03 
  50361.2318     0.15936E+03 
  50393.4939     0.15840E+03 
  50425.7561     0.15745E+03 
  50458.0182     0.15651E+03 
  50490.2804     0.15556E+03 
  50522.5426     0.15462E+03 
  50554.8047     0.15368E+03 
  50587.0669     0.15274E+03 
  50619.3290     0.15180E+03 
  50651.5912     0.15087E+03 
  50683.8534     0.14994E+03 
  50716.1155     0.14901E+03 
  50748.3777     0.14809E+03 
  50780.6398     0.14716E+03 
  50812.9020     0.14624E+03 
  50845.1642     0.14533E+03 
  50877.4263     0.14441E+03 
  50909.6885     0.14350E+03 
  50941.9506     0.14259E+03 
  50974.2128     0.14168E+03 
  51006.4750     0.14078E+03 
  51038.7371     0.13988E+03 
  51070.9993     0.13898E+03 
  51103.2614     0.13809E+03 
  51135.5236     0.13719E+03 
  51167.7858     0.13631E+03 
  51200.0479     0.13542E+03 
  51232.3101     0.13454E+03 
  51264.5722     0.13365E+03 
  51296.8344     0.13278E+03 
  51329.0966     0.13190E+03 
  51361.3587     0.13103E+03 
  51393.6209     0.13016E+03 
  51425.8830     0.12930E+03 
  51458.1452     0.12843E+03 
  51490.4074     0.12757E+03 
  51522.6695     0.12672E+03 
  51554.9317     0.12586E+03 
  51587.1938     0.12501E+03 
  51619.4560     0.12417E+03 
  51651.7182     0.12332E+03 
  51683.9803     0.12248E+03 
  51716.2425     0.12164E+03 
  51748.5046     0.12081E+03 
  51780.7668     0.11998E+03 
  51813.0290     0.11915E+03 
  51845.2911     0.11832E+03 
  51877.5533     0.11750E+03 
  51909.8154     0.11668E+03 
  51942.0776     0.11587E+03 
  51974.3398     0.11505E+03 
  52006.6019     0.11424E+03 
  52038.8641     0.11344E+03 
  52071.1262     0.11264E+03 
  52103.3884     0.11184E+03 
  52135.6506     0.11104E+03 
  52167.9127     0.11025E+03 
  52200.1749     0.10946E+03 
  52232.4370     0.10867E+03 
  52264.6992     0.10789E+03 
  52296.9614     0.10711E+03 
  52329.2235     0.10633E+03 
  52361.4857     0.10556E+03 
  52393.7478     0.10479E+03 
  52426.0100     0.10402E+03 
  52458.2722     0.10326E+03 
  52490.5343     0.10250E+03 
  52522.7965     0.10174E+03 
  52555.0586     0.10099E+03 
  52587.3208     0.10024E+03 
  52619.5830     0.99492E+02 
  52651.8451     0.98749E+02 
  52684.1073     0.98009E+02 
  52716.3694     0.97272E+02 
  52748.6316     0.96539E+02 
  52780.8938     0.95810E+02 
  52813.1559     0.95083E+02 
  52845.4181     0.94360E+02 
  52877.6802     0.93640E+02 
  52909.9424     0.92924E+02 
  52942.2046     0.92211E+02 
  52974.4667     0.91501E+02 
  53006.7289     0.90795E+02 
  53038.9910     0.90092E+02 
  53071.2532     0.89393E+02 
  53103.5154     0.88697E+02 
  53135.7775     0.88004E+02 
  53168.0397     0.87315E+02 
  53200.3018     0.86629E+02 
  53232.5640     0.85946E+02 
  53264.8262     0.85267E+02 
  53297.0883     0.84591E+02 
  53329.3505     0.83919E+02 
  53361.6126     0.83250E+02 
  53393.8748     0.82584E+02 
  53426.1370     0.81922E+02 
  53458.3991     0.81263E+02 
  53490.6613     0.80607E+02 
  53522.9234     0.79955E+02 
  53555.1856     0.79306E+02 
  53587.4478     0.78660E+02 
  53619.7099     0.78018E+02 
  53651.9721     0.77379E+02 
  53684.2342     0.76744E+02 
  53716.4964     0.76112E+02 
  53748.7586     0.75483E+02 
  53781.0207     0.74857E+02 
  53813.2829     0.74235E+02 
  53845.5450     0.73616E+02 
  53877.8072     0.73001E+02 
  53910.0694     0.72389E+02 
  53942.3315     0.71780E+02 
  53974.5937     0.71174E+02 
  54006.8558     0.70572E+02 
  54039.1180     0.69973E+02 
  54071.3802     0.69377E+02 
  54103.6423     0.68785E+02 
  54135.9045     0.68196E+02 
  54168.1666     0.67610E+02 
  54200.4288     0.67028E+02 
  54232.6910     0.66448E+02 
  54264.9531     0.65872E+02 
  54297.2153     0.65300E+02 
  54329.4774     0.64730E+02 
  54361.7396     0.64164E+02 
  54394.0018     0.63601E+02 
  54426.2639     0.63041E+02 
  54458.5261     0.62484E+02 
  54490.7882     0.61931E+02 
  54523.0504     0.61381E+02 
  54555.3126     0.60834E+02 
  54587.5747     0.60290E+02 
  54619.8369     0.59749E+02 
  54652.0990     0.59212E+02 
  54684.3612     0.58678E+02 
  54716.6234     0.58147E+02 
  54748.8855     0.57619E+02 
  54781.1477     0.57094E+02 
  54813.4098     0.56572E+02 
  54845.6720     0.56054E+02 
  54877.9342     0.55538E+02 
  54910.1963     0.55026E+02 
  54942.4585     0.54517E+02 
  54974.7206     0.54011E+02 
  55006.9828     0.53508E+02 
  55039.2450     0.53008E+02 
  55071.5071     0.52511E+02 
  55103.7693     0.52017E+02 
  55136.0314     0.51526E+02 
  55168.2936     0.51039E+02 
  55200.5558     0.50554E+02 
  55232.8179     0.50072E+02 
  55265.0801     0.49594E+02 
  55297.3422     0.49118E+02 
  55329.6044     0.48645E+02 
  55361.8666     0.48176E+02 
  55394.1287     0.47709E+02 
  55426.3909     0.47245E+02 
  55458.6530     0.46785E+02 
  55490.9152     0.46327E+02 
  55523.1774     0.45872E+02 
  55555.4395     0.45420E+02 
  55587.7017     0.44971E+02 
  55619.9638     0.44525E+02 
  55652.2260     0.44082E+02 
  55684.4882     0.43641E+02 
  55716.7503     0.43204E+02 
  55749.0125     0.42769E+02 
  55781.2746     0.42337E+02 
  55813.5368     0.41908E+02 
  55845.7990     0.41482E+02 
  55878.0611     0.41059E+02 
  55910.3233     0.40639E+02 
  55942.5854     0.40221E+02 
  55974.8476     0.39806E+02 
  56007.1098     0.39394E+02 
  56039.3719     0.38985E+02 
  56071.6341     0.38578E+02 
  56103.8962     0.38174E+02 
  56136.1584     0.37773E+02 
  56168.4206     0.37375E+02 
  56200.6827     0.36979E+02 
  56232.9449     0.36587E+02 
  56265.2070     0.36196E+02 
  56297.4692     0.35809E+02 
  56329.7314     0.35424E+02 
  56361.9935     0.35042E+02 
  56394.2557     0.34662E+02 
  56426.5178     0.34286E+02 
  56458.7800     0.33911E+02 
  56491.0422     0.33540E+02 
  56523.3043     0.33171E+02 
  56555.5665     0.32804E+02 
  56587.8286     0.32441E+02 
  56620.0908     0.32079E+02 
  56652.3530     0.31721E+02 
  56684.6151     0.31365E+02 
  56716.8773     0.31011E+02 
  56749.1394     0.30660E+02 
  56781.4016     0.30311E+02 
  56813.6638     0.29965E+02 
  56845.9259     0.29622E+02 
  56878.1881     0.29281E+02 
  56910.4502     0.28942E+02 
  56942.7124     0.28606E+02 
  56974.9746     0.28273E+02 
  57007.2367     0.27942E+02 
  57039.4989     0.27613E+02 
  57071.7610     0.27287E+02 
  57104.0232     0.26963E+02 
  57136.2854     0.26641E+02 
  57168.5475     0.26322E+02 
  57200.8097     0.26006E+02 
  57233.0718     0.25691E+02 
  57265.3340     0.25380E+02 
  57297.5962     0.25070E+02 
  57329.8583     0.24763E+02 
  57362.1205     0.24458E+02 
  57394.3826     0.24155E+02 
  57426.6448     0.23855E+02 
  57458.9070     0.23557E+02 
  57491.1691     0.23261E+02 
  57523.4313     0.22968E+02 
  57555.6934     0.22677E+02 
  57587.9556     0.22388E+02 
  57620.2178     0.22101E+02 
  57652.4799     0.21817E+02 
  57684.7421     0.21535E+02 
  57717.0042     0.21255E+02 
  57749.2664     0.20977E+02 
  57781.5286     0.20702E+02 
  57813.7907     0.20429E+02 
  57846.0529     0.20157E+02 
  57878.3150     0.19888E+02 
  57910.5772     0.19622E+02 
  57942.8394     0.19357E+02 
  57975.1015     0.19094E+02 
  58007.3637     0.18834E+02 
  58039.6258     0.18576E+02 
  58071.8880     0.18320E+02 
  58104.1502     0.18066E+02 
  58136.4123     0.17814E+02 
  58168.6745     0.17564E+02 
  58200.9366     0.17316E+02 
  58233.1988     0.17070E+02 
  58265.4610     0.16827E+02 
  58297.7231     0.16585E+02 
  58329.9853     0.16345E+02 
  58362.2474     0.16108E+02 
  58394.5096     0.15872E+02 
  58426.7718     0.15639E+02 
  58459.0339     0.15407E+02 
  58491.2961     0.15178E+02 
  58523.5582     0.14950E+02 
  58555.8204     0.14725E+02 
  58588.0826     0.14501E+02 
  58620.3447     0.14279E+02 
  58652.6069     0.14060E+02 
  58684.8690     0.13842E+02 
  58717.1312     0.13626E+02 
  58749.3934     0.13412E+02 
  58781.6555     0.13200E+02 
  58813.9177     0.12990E+02 
  58846.1798     0.12782E+02 
  58878.4420     0.12576E+02 
  58910.7042     0.12372E+02 
  58942.9663     0.12169E+02 
  58975.2285     0.11969E+02 
  59007.4906     0.11770E+02 
  59039.7528     0.11573E+02 
  59072.0150     0.11378E+02 
  59104.2771     0.11185E+02 
  59136.5393     0.10993E+02 
  59168.8014     0.10804E+02 
  59201.0636     0.10616E+02 
  59233.3258     0.10431E+02 
  59265.5879     0.10246E+02 
  59297.8501     0.10064E+02 
  59330.1122     0.98839E+01 
  59362.3744     0.97052E+01 
  59394.6366     0.95284E+01 
  59426.8987     0.93534E+01 
  59459.1609     0.91801E+01 
  59491.4230     0.90086E+01 
  59523.6852     0.88389E+01 
  59555.9474     0.86709E+01 
  59588.2095     0.85047E+01 
  59620.4717     0.83402E+01 
  59652.7338     0.81775E+01 
  59684.9960     0.80166E+01 
  59717.2582     0.78573E+01 
  59749.5203     0.76998E+01 
  59781.7825     0.75440E+01 
  59814.0446     0.73900E+01 
  59846.3068     0.72376E+01 
  59878.5690     0.70870E+01 
  59910.8311     0.69381E+01 
  59943.0933     0.67909E+01 
  59975.3554     0.66454E+01 
  60007.6176     0.65016E+01 
  60039.8798     0.63595E+01 
  60072.1419     0.62191E+01 
  60104.4041     0.60804E+01 
  60136.6662     0.59433E+01 
  60168.9284     0.58080E+01 
  60201.1906     0.56743E+01 
  60233.4527     0.55423E+01 
  60265.7149     0.54120E+01 
  60297.9770     0.52834E+01 
  60330.2392     0.51564E+01 
  60362.5014     0.50312E+01 
  60394.7635     0.49075E+01 
  60427.0257     0.47856E+01 
  60459.2878     0.46653E+01 
  60491.5500     0.45467E+01 
  60523.8122     0.44298E+01 
  60556.0743     0.43145E+01 
  60588.3365     0.42009E+01 
  60620.5986     0.40890E+01 
  60652.8608     0.39787E+01 
  60685.1230     0.38701E+01 
  60717.3851     0.37632E+01 
  60749.6473     0.36579E+01 
  60781.9094     0.35543E+01 
  60814.1716     0.34524E+01 
  60846.4338     0.33521E+01 
  60878.6959     0.32535E+01 
  60910.9581     0.31566E+01 
  60943.2202     0.30614E+01 
  60975.4824     0.29678E+01 
  61007.7446     0.28759E+01 
  61040.0067     0.27857E+01 
  61072.2689     0.26972E+01 
  61104.5310     0.26104E+01 
  61136.7932     0.25253E+01 
  61169.0554     0.24419E+01 
  61201.3175     0.23602E+01 
  61233.5797     0.22802E+01 
  61265.8418     0.22019E+01 
  61298.1040     0.21253E+01 
  61330.3662     0.20504E+01 
  61362.6283     0.19773E+01 
  61394.8905     0.19059E+01 
  61427.1526     0.18362E+01 
  61459.4148     0.17683E+01 
  61491.6770     0.17021E+01 
  61523.9391     0.16377E+01 
  61556.2013     0.15751E+01 
  61588.4634     0.15142E+01 
  61620.7256     0.14551E+01 
  61652.9878     0.13978E+01 
  61685.2499     0.13423E+01 
  61717.5121     0.12887E+01 
  61749.7742     0.12368E+01 
  61782.0364     0.11867E+01 
  61814.2986     0.11385E+01 
  61846.5607     0.10922E+01 
  61878.8229     0.10477E+01 
  61911.0850     0.10050E+01 
  61943.3472     0.96429E+00 
  61975.6094     0.92543E+00 
  62007.8715     0.88847E+00 
  62040.1337     0.85344E+00 
  62072.3958     0.82033E+00 
  62104.6580     0.78918E+00 
  62136.9202     0.75998E+00 
  62169.1823     0.73275E+00 
  62201.4445     0.70752E+00 
  62233.7066     0.68429E+00 
  62265.9688     0.66307E+00 
  62298.2310     0.64390E+00 
  62330.4931     0.62678E+00 
  62362.7553     0.61173E+00 
  62395.0174     0.59877E+00 
  62427.2796     0.58792E+00 
  62459.5418     0.57919E+00 
  62491.8039     0.57261E+00 
  62524.0661     0.56820E+00 
  62556.3282     0.56597E+00 
  62588.5904     0.56596E+00 
  62620.8526     0.56817E+00 
  62653.1147     0.57263E+00 
  62685.3769     0.57937E+00 
  62717.6390     0.58840E+00 
  62749.9012     0.59976E+00 
  62782.1634     0.61346E+00 
  62814.4255     0.62954E+00 
  62846.6877     0.64801E+00 
  62878.9498     0.66891E+00 
  62911.2120     0.69226E+00 
  62943.4742     0.71809E+00 
  62975.7363     0.74643E+00 
  63007.9985     0.77731E+00 
  63040.2606     0.81076E+00 
  63072.5228     0.84680E+00 
  63104.7850     0.88548E+00 
  63137.0471     0.92682E+00 
  63169.3093     0.97086E+00 
  63201.5714     0.10176E+01 
  63233.8336     0.10672E+01 
  63266.0958     0.11195E+01 
  63298.3579     0.11746E+01 
  63330.6201     0.12327E+01 
  63362.8822     0.12936E+01 
  63395.1444     0.13575E+01 
  63427.4066     0.14244E+01 
  63459.6687     0.14944E+01 
  63491.9309     0.15673E+01 
  63524.1930     0.16435E+01 
  63556.4552     0.17227E+01 
  63588.7174     0.18052E+01 
  63620.9795     0.18909E+01 
  63653.2417     0.19799E+01 
  63685.5038     0.20723E+01 
  63717.7660     0.21680E+01 
  63750.0282     0.22672E+01 
  63782.2903     0.23699E+01 
  63814.5525     0.24761E+01 
  63846.8146     0.25859E+01 
  63879.0768     0.26993E+01 
  63911.3390     0.28165E+01 
  63943.6011     0.29374E+01 
  63975.8633     0.30621E+01 
  64008.1254     0.31908E+01 
  64040.3876     0.33233E+01 
  64072.6498     0.34598E+01 
  64104.9119     0.36004E+01 
  64137.1741     0.37451E+01 
  64169.4362     0.38940E+01 
  64201.6984     0.40472E+01 
  64233.9606     0.42047E+01 
  64266.2227     0.43665E+01 
  64298.4849     0.45328E+01 
  64330.7470     0.47037E+01 
  64363.0092     0.48791E+01 
  64395.2714     0.50592E+01 
  64427.5335     0.52441E+01 
  64459.7957     0.54338E+01 
  64492.0578     0.56284E+01 
  64524.3200     0.58280E+01 
  64556.5822     0.60327E+01 
  64588.8443     0.62425E+01 
  64621.1065     0.64575E+01 
  64653.3686     0.66779E+01 
  64685.6308     0.69037E+01 
  64717.8930     0.71350E+01 
  64750.1551     0.73719E+01 
  64782.4173     0.76145E+01 
  64814.6794     0.78629E+01 
  64846.9416     0.81171E+01 
  64879.2038     0.83774E+01 
  64911.4659     0.86437E+01 
  64943.7281     0.89162E+01 
  64975.9902     0.91950E+01 
  65008.2524     0.94802E+01 
  65040.5146     0.97718E+01 
  65072.7767     0.10070E+02 
  65105.0389     0.10375E+02 
  65137.3010     0.10687E+02 
  65169.5632     0.11006E+02 
  65201.8254     0.11332E+02 
  65234.0875     0.11665E+02 
  65266.3497     0.12005E+02 
  65298.6118     0.12353E+02 
  65330.8740     0.12708E+02 
  65363.1362     0.13072E+02 
  65395.3983     0.13442E+02 
  65427.6605     0.13821E+02 
  65459.9226     0.14208E+02 
  65492.1848     0.14604E+02 
  65524.4470     0.15007E+02 
  65556.7091     0.15419E+02 
  65588.9713     0.15840E+02 
  65621.2334     0.16270E+02 
  65653.4956     0.16708E+02 
  65685.7578     0.17156E+02 
  65718.0199     0.17613E+02 
  65750.2821     0.18079E+02 
  65782.5442     0.18555E+02 
  65814.8064     0.19041E+02 
  65847.0686     0.19537E+02 
  65879.3307     0.20043E+02 
  65911.5929     0.20559E+02 
  65943.8550     0.21085E+02 
  65976.1172     0.21622E+02 
  66008.3794     0.22170E+02 
  66040.6415     0.22729E+02 
  66072.9037     0.23299E+02 
  66105.1658     0.23880E+02 
  66137.4280     0.24473E+02 
  66169.6902     0.25077E+02 
  66201.9523     0.25694E+02 
  66234.2145     0.26323E+02 
  66266.4766     0.26964E+02 
  66298.7388     0.27617E+02 
  66331.0010     0.28283E+02 
  66363.2631     0.28963E+02 
  66395.5253     0.29655E+02 
  66427.7874     0.30361E+02 
  66460.0496     0.31080E+02 
  66492.3118     0.31813E+02 
  66524.5739     0.32561E+02 
  66556.8361     0.33322E+02 
  66589.0982     0.34099E+02 
  66621.3604     0.34889E+02 
  66653.6226     0.35695E+02 
  66685.8847     0.36517E+02 
  66718.1469     0.37353E+02 
  66750.4090     0.38206E+02 
  66782.6712     0.39074E+02 
  66814.9334     0.39959E+02 
  66847.1955     0.40860E+02 
  66879.4577     0.41779E+02 
  66911.7198     0.42714E+02 
  66943.9820     0.43666E+02 
  66976.2442     0.44637E+02 
  67008.5063     0.45625E+02 
  67040.7685     0.46631E+02 
  67073.0306     0.47656E+02 
  67105.2928     0.48699E+02 
  67137.5550     0.49762E+02 
  67169.8171     0.50844E+02 
  67202.0793     0.51946E+02 
  67234.3414     0.53067E+02 
  67266.6036     0.54209E+02 
  67298.8658     0.55372E+02 
  67331.1279     0.56555E+02 
  67363.3901     0.57760E+02 
  67395.6522     0.58986E+02 
  67427.9144     0.60234E+02 
  67460.1766     0.61505E+02 
  67492.4387     0.62798E+02 
  67524.7009     0.64114E+02 
  67556.9630     0.65453E+02 
  67589.2252     0.66816E+02 
  67621.4874     0.68202E+02 
  67653.7495     0.69614E+02 
  67686.0117     0.71049E+02 
  67718.2738     0.72510E+02 
  67750.5360     0.73996E+02 
  67782.7982     0.75508E+02 
  67815.0603     0.77047E+02 
  67847.3225     0.78611E+02 
  67879.5846     0.80203E+02 
  67911.8468     0.81822E+02 
  67944.1090     0.83469E+02 
  67976.3711     0.85144E+02 
  68008.6333     0.86847E+02 
  68040.8954     0.88580E+02 
  68073.1576     0.90342E+02 
  68105.4198     0.92133E+02 
  68137.6819     0.93955E+02 
  68169.9441     0.95807E+02 
  68202.2062     0.97690E+02 
  68234.4684     0.99605E+02 
  68266.7306     0.10155E+03 
  68298.9927     0.10353E+03 
  68331.2549     0.10554E+03 
  68363.5170     0.10759E+03 
  68395.7792     0.10967E+03 
  68428.0414     0.11178E+03 
  68460.3035     0.11393E+03 
  68492.5657     0.11611E+03 
  68524.8278     0.11833E+03 
  68557.0900     0.12058E+03 
  68589.3522     0.12287E+03 
  68621.6143     0.12520E+03 
  68653.8765     0.12756E+03 
  68686.1386     0.12997E+03 
  68718.4008     0.13241E+03 
  68750.6630     0.13489E+03 
  68782.9251     0.13741E+03 
  68815.1873     0.13997E+03 
  68847.4494     0.14257E+03 
  68879.7116     0.14521E+03 
  68911.9738     0.14789E+03 
  68944.2359     0.15061E+03 
  68976.4981     0.15338E+03 
  69008.7602     0.15619E+03 
  69041.0224     0.15904E+03 
  69073.2846     0.16194E+03 
  69105.5467     0.16488E+03 
  69137.8089     0.16787E+03 
  69170.0710     0.17090E+03 
  69202.3332     0.17398E+03 
  69234.5954     0.17710E+03 
  69266.8575     0.18027E+03 
  69299.1197     0.18349E+03 
  69331.3818     0.18676E+03 
  69363.6440     0.19008E+03 
  69395.9062     0.19345E+03 
  69428.1683     0.19686E+03 
  69460.4305     0.20033E+03 
  69492.6926     0.20385E+03 
  69524.9548     0.20742E+03 
  69557.2170     0.21104E+03 
  69589.4791     0.21472E+03 
  69621.7413     0.21845E+03 
  69654.0034     0.22223E+03 
  69686.2656     0.22607E+03 
  69718.5278     0.22996E+03 
  69750.7899     0.23391E+03 
  69783.0521     0.23792E+03 
  69815.3142     0.24198E+03 
  69847.5764     0.24610E+03 
  69879.8386     0.25028E+03 
  69912.1007     0.25451E+03 
  69944.3629     0.25881E+03 
  69976.6250     0.26316E+03 
  70008.8872     0.26758E+03 
  70041.1494     0.27206E+03 
  70073.4115     0.27660E+03 
  70105.6737     0.28120E+03 
  70137.9358     0.28586E+03 
  70170.1980     0.29059E+03 
  70202.4602     0.29539E+03 
  70234.7223     0.30024E+03 
  70266.9845     0.30516E+03 
  70299.2466     0.31015E+03 
  70331.5088     0.31521E+03 
  70363.7710     0.32033E+03 
  70396.0331     0.32552E+03 
  70428.2953     0.33078E+03 
  70460.5574     0.33611E+03 
  70492.8196     0.34150E+03 
  70525.0818     0.34697E+03 
  70557.3439     0.35251E+03 
  70589.6061     0.35812E+03 
  70621.8682     0.36380E+03 
  70654.1304     0.36955E+03 
  70686.3926     0.37538E+03 
  70718.6547     0.38128E+03 
  70750.9169     0.38726E+03 
  70783.1790     0.39331E+03 
  70815.4412     0.39943E+03 
  70847.7034     0.40564E+03 
  70879.9655     0.41192E+03 
  70912.2277     0.41827E+03 
  70944.4898     0.42471E+03 
  70976.7520     0.43122E+03 
  71009.0142     0.43781E+03 
  71041.2763     0.44448E+03 
  71073.5385     0.45124E+03 
  71105.8006     0.45807E+03 
  71138.0628     0.46498E+03 
  71170.3250     0.47198E+03 
  71202.5871     0.47906E+03 
  71234.8493     0.48622E+03 
  71267.1114     0.49347E+03 
  71299.3736     0.50080E+03 
  71331.6358     0.50821E+03 
  71363.8979     0.51571E+03 
  71396.1601     0.52330E+03 
  71428.4222     0.53097E+03 
  71460.6844     0.53873E+03 
  71492.9466     0.54658E+03 
  71525.2087     0.55452E+03 
  71557.4709     0.56254E+03 
  71589.7330     0.57065E+03 
  71621.9952     0.57885E+03 
  71654.2574     0.58715E+03 
  71686.5195     0.59553E+03 
  71718.7817     0.60400E+03 
  71751.0438     0.61257E+03 
  71783.3060     0.62123E+03 
  71815.5682     0.62998E+03 
  71847.8303     0.63882E+03 
  71880.0925     0.64775E+03 
  71912.3546     0.65678E+03 
  71944.6168     0.66591E+03 
  71976.8790     0.67513E+03 
  72009.1411     0.68444E+03 
  72041.4033     0.69385E+03 
  72073.6654     0.70336E+03 
  72105.9276     0.71296E+03 
  72138.1898     0.72266E+03 
  72170.4519     0.73245E+03 
  72202.7141     0.74235E+03 
  72234.9762     0.75234E+03 
  72267.2384     0.76243E+03 
  72299.5006     0.77262E+03 
  72331.7627     0.78290E+03 
  72364.0249     0.79329E+03 
  72396.2870     0.80378E+03 
  72428.5492     0.81436E+03 
  72460.8114     0.82505E+03 
  72493.0735     0.83584E+03 
  72525.3357     0.84672E+03 
  72557.5978     0.85771E+03 
  72589.8600     0.86880E+03 
