  32262.1600     0.18291E+02 
  32294.4222     0.18547E+02 
  32326.6843     0.18805E+02 
  32358.9465     0.19065E+02 
  32391.2086     0.19328E+02 
  32423.4708     0.19593E+02 
  32455.7330     0.19861E+02 
  32487.9951     0.20132E+02 
  32520.2573     0.20405E+02 
  32552.5194     0.20681E+02 
  32584.7816     0.20959E+02 
  32617.0438     0.21241E+02 
  32649.3059     0.21524E+02 
  32681.5681     0.21810E+02 
  32713.8302     0.22099E+02 
  32746.0924     0.22391E+02 
  32778.3546     0.22685E+02 
  32810.6167     0.22981E+02 
  32842.8789     0.23281E+02 
  32875.1410     0.23583E+02 
  32907.4032     0.23887E+02 
  32939.6654     0.24194E+02 
  32971.9275     0.24504E+02 
  33004.1897     0.24816E+02 
  33036.4518     0.25132E+02 
  33068.7140     0.25449E+02 
  33100.9762     0.25769E+02 
  33133.2383     0.26092E+02 
  33165.5005     0.26418E+02 
  33197.7626     0.26746E+02 
  33230.0248     0.27077E+02 
  33262.2870     0.27410E+02 
  33294.5491     0.27746E+02 
  33326.8113     0.28085E+02 
  33359.0734     0.28426E+02 
  33391.3356     0.28770E+02 
  33423.5978     0.29117E+02 
  33455.8599     0.29466E+02 
  33488.1221     0.29817E+02 
  33520.3842     0.30171E+02 
  33552.6464     0.30528E+02 
  33584.9086     0.30888E+02 
  33617.1707     0.31249E+02 
  33649.4329     0.31614E+02 
  33681.6950     0.31981E+02 
  33713.9572     0.32350E+02 
  33746.2194     0.32723E+02 
  33778.4815     0.33097E+02 
  33810.7437     0.33474E+02 
  33843.0058     0.33854E+02 
  33875.2680     0.34236E+02 
  33907.5302     0.34620E+02 
  33939.7923     0.35007E+02 
  33972.0545     0.35397E+02 
  34004.3166     0.35789E+02 
  34036.5788     0.36183E+02 
  34068.8410     0.36580E+02 
  34101.1031     0.36979E+02 
  34133.3653     0.37380E+02 
  34165.6274     0.37784E+02 
  34197.8896     0.38191E+02 
  34230.1518     0.38599E+02 
  34262.4139     0.39010E+02 
  34294.6761     0.39423E+02 
  34326.9382     0.39839E+02 
  34359.2004     0.40257E+02 
  34391.4626     0.40677E+02 
  34423.7247     0.41099E+02 
  34455.9869     0.41523E+02 
  34488.2490     0.41950E+02 
  34520.5112     0.42379E+02 
  34552.7734     0.42810E+02 
  34585.0355     0.43243E+02 
  34617.2977     0.43678E+02 
  34649.5598     0.44115E+02 
  34681.8220     0.44555E+02 
  34714.0842     0.44996E+02 
  34746.3463     0.45440E+02 
  34778.6085     0.45885E+02 
  34810.8706     0.46332E+02 
  34843.1328     0.46782E+02 
  34875.3950     0.47233E+02 
  34907.6571     0.47686E+02 
  34939.9193     0.48141E+02 
  34972.1814     0.48598E+02 
  35004.4436     0.49057E+02 
  35036.7058     0.49517E+02 
  35068.9679     0.49980E+02 
  35101.2301     0.50444E+02 
  35133.4922     0.50909E+02 
  35165.7544     0.51377E+02 
  35198.0166     0.51846E+02 
  35230.2787     0.52317E+02 
  35262.5409     0.52789E+02 
  35294.8030     0.53263E+02 
  35327.0652     0.53738E+02 
  35359.3274     0.54215E+02 
  35391.5895     0.54693E+02 
  35423.8517     0.55173E+02 
  35456.1138     0.55654E+02 
  35488.3760     0.56137E+02 
  35520.6382     0.56621E+02 
  35552.9003     0.57106E+02 
  35585.1625     0.57593E+02 
  35617.4246     0.58080E+02 
  35649.6868     0.58569E+02 
  35681.9490     0.59059E+02 
  35714.2111     0.59551E+02 
  35746.4733     0.60043E+02 
  35778.7354     0.60536E+02 
  35810.9976     0.61031E+02 
  35843.2598     0.61526E+02 
  35875.5219     0.62022E+02 
  35907.7841     0.62520E+02 
  35940.0462     0.63018E+02 
  35972.3084     0.63517E+02 
  36004.5706     0.64017E+02 
  36036.8327     0.64517E+02 
  36069.0949     0.65019E+02 
  36101.3570     0.65521E+02 
  36133.6192     0.66023E+02 
  36165.8814     0.66526E+02 
  36198.1435     0.67030E+02 
  36230.4057     0.67535E+02 
  36262.6678     0.68039E+02 
  36294.9300     0.68545E+02 
  36327.1922     0.69050E+02 
  36359.4543     0.69556E+02 
  36391.7165     0.70063E+02 
  36423.9786     0.70569E+02 
  36456.2408     0.71076E+02 
  36488.5030     0.71584E+02 
  36520.7651     0.72091E+02 
  36553.0273     0.72598E+02 
  36585.2894     0.73106E+02 
  36617.5516     0.73613E+02 
  36649.8138     0.74121E+02 
  36682.0759     0.74628E+02 
  36714.3381     0.75135E+02 
  36746.6002     0.75643E+02 
  36778.8624     0.76150E+02 
  36811.1246     0.76656E+02 
  36843.3867     0.77163E+02 
  36875.6489     0.77669E+02 
  36907.9110     0.78175E+02 
  36940.1732     0.78680E+02 
  36972.4354     0.79185E+02 
  37004.6975     0.79690E+02 
  37036.9597     0.80194E+02 
  37069.2218     0.80697E+02 
  37101.4840     0.81200E+02 
  37133.7462     0.81702E+02 
  37166.0083     0.82204E+02 
  37198.2705     0.82704E+02 
  37230.5326     0.83204E+02 
  37262.7948     0.83703E+02 
  37295.0570     0.84202E+02 
  37327.3191     0.84699E+02 
  37359.5813     0.85195E+02 
  37391.8434     0.85690E+02 
  37424.1056     0.86185E+02 
  37456.3678     0.86678E+02 
  37488.6299     0.87169E+02 
  37520.8921     0.87660E+02 
  37553.1542     0.88150E+02 
  37585.4164     0.88638E+02 
  37617.6786     0.89125E+02 
  37649.9407     0.89610E+02 
  37682.2029     0.90094E+02 
  37714.4650     0.90577E+02 
  37746.7272     0.91058E+02 
  37778.9894     0.91538E+02 
  37811.2515     0.92016E+02 
  37843.5137     0.92492E+02 
  37875.7758     0.92967E+02 
  37908.0380     0.93440E+02 
  37940.3002     0.93911E+02 
  37972.5623     0.94380E+02 
  38004.8245     0.94848E+02 
  38037.0866     0.95313E+02 
  38069.3488     0.95777E+02 
  38101.6110     0.96239E+02 
  38133.8731     0.96699E+02 
  38166.1353     0.97156E+02 
  38198.3974     0.97612E+02 
  38230.6596     0.98065E+02 
  38262.9218     0.98516E+02 
  38295.1839     0.98965E+02 
  38327.4461     0.99412E+02 
  38359.7082     0.99857E+02 
  38391.9704     0.10030E+03 
  38424.2326     0.10074E+03 
  38456.4947     0.10118E+03 
  38488.7569     0.10161E+03 
  38521.0190     0.10204E+03 
  38553.2812     0.10247E+03 
  38585.5434     0.10290E+03 
  38617.8055     0.10332E+03 
  38650.0677     0.10375E+03 
  38682.3298     0.10416E+03 
  38714.5920     0.10458E+03 
  38746.8542     0.10500E+03 
  38779.1163     0.10541E+03 
  38811.3785     0.10581E+03 
  38843.6406     0.10622E+03 
  38875.9028     0.10662E+03 
  38908.1650     0.10702E+03 
  38940.4271     0.10742E+03 
  38972.6893     0.10781E+03 
  39004.9514     0.10820E+03 
  39037.2136     0.10859E+03 
  39069.4758     0.10897E+03 
  39101.7379     0.10935E+03 
  39134.0001     0.10973E+03 
  39166.2622     0.11010E+03 
  39198.5244     0.11047E+03 
  39230.7866     0.11084E+03 
  39263.0487     0.11121E+03 
  39295.3109     0.11157E+03 
  39327.5730     0.11192E+03 
  39359.8352     0.11228E+03 
  39392.0974     0.11263E+03 
  39424.3595     0.11298E+03 
  39456.6217     0.11332E+03 
  39488.8838     0.11366E+03 
  39521.1460     0.11400E+03 
  39553.4082     0.11433E+03 
  39585.6703     0.11466E+03 
  39617.9325     0.11499E+03 
  39650.1946     0.11531E+03 
  39682.4568     0.11563E+03 
  39714.7190     0.11594E+03 
  39746.9811     0.11625E+03 
  39779.2433     0.11656E+03 
  39811.5054     0.11686E+03 
  39843.7676     0.11716E+03 
  39876.0298     0.11746E+03 
  39908.2919     0.11775E+03 
  39940.5541     0.11804E+03 
  39972.8162     0.11832E+03 
  40005.0784     0.11860E+03 
  40037.3406     0.11888E+03 
  40069.6027     0.11915E+03 
  40101.8649     0.11942E+03 
  40134.1270     0.11968E+03 
  40166.3892     0.11994E+03 
  40198.6514     0.12020E+03 
  40230.9135     0.12045E+03 
  40263.1757     0.12070E+03 
  40295.4378     0.12094E+03 
  40327.7000     0.12118E+03 
  40359.9622     0.12141E+03 
  40392.2243     0.12164E+03 
  40424.4865     0.12187E+03 
  40456.7486     0.12209E+03 
  40489.0108     0.12231E+03 
  40521.2730     0.12253E+03 
  40553.5351     0.12274E+03 
  40585.7973     0.12294E+03 
  40618.0594     0.12314E+03 
  40650.3216     0.12334E+03 
  40682.5838     0.12353E+03 
  40714.8459     0.12372E+03 
  40747.1081     0.12391E+03 
  40779.3702     0.12409E+03 
  40811.6324     0.12426E+03 
  40843.8946     0.12443E+03 
  40876.1567     0.12460E+03 
  40908.4189     0.12476E+03 
  40940.6810     0.12492E+03 
  40972.9432     0.12507E+03 
  41005.2054     0.12522E+03 
  41037.4675     0.12537E+03 
  41069.7297     0.12551E+03 
  41101.9918     0.12565E+03 
  41134.2540     0.12578E+03 
  41166.5162     0.12590E+03 
  41198.7783     0.12603E+03 
  41231.0405     0.12615E+03 
  41263.3026     0.12626E+03 
  41295.5648     0.12637E+03 
  41327.8270     0.12648E+03 
  41360.0891     0.12658E+03 
  41392.3513     0.12667E+03 
  41424.6134     0.12676E+03 
  41456.8756     0.12685E+03 
  41489.1378     0.12693E+03 
  41521.3999     0.12701E+03 
  41553.6621     0.12709E+03 
  41585.9242     0.12716E+03 
  41618.1864     0.12722E+03 
  41650.4486     0.12728E+03 
  41682.7107     0.12734E+03 
  41714.9729     0.12739E+03 
  41747.2350     0.12744E+03 
  41779.4972     0.12748E+03 
  41811.7594     0.12752E+03 
  41844.0215     0.12756E+03 
  41876.2837     0.12759E+03 
  41908.5458     0.12761E+03 
  41940.8080     0.12763E+03 
  41973.0702     0.12765E+03 
  42005.3323     0.12766E+03 
  42037.5945     0.12767E+03 
  42069.8566     0.12768E+03 
  42102.1188     0.12768E+03 
  42134.3810     0.12767E+03 
  42166.6431     0.12766E+03 
  42198.9053     0.12765E+03 
  42231.1674     0.12763E+03 
  42263.4296     0.12761E+03 
  42295.6918     0.12758E+03 
  42327.9539     0.12755E+03 
  42360.2161     0.12752E+03 
  42392.4782     0.12748E+03 
  42424.7404     0.12744E+03 
  42457.0026     0.12739E+03 
  42489.2647     0.12734E+03 
  42521.5269     0.12728E+03 
  42553.7890     0.12722E+03 
  42586.0512     0.12716E+03 
  42618.3134     0.12709E+03 
  42650.5755     0.12702E+03 
  42682.8377     0.12694E+03 
  42715.0998     0.12686E+03 
  42747.3620     0.12678E+03 
  42779.6242     0.12669E+03 
  42811.8863     0.12660E+03 
  42844.1485     0.12650E+03 
  42876.4106     0.12640E+03 
  42908.6728     0.12629E+03 
  42940.9350     0.12619E+03 
  42973.1971     0.12607E+03 
  43005.4593     0.12596E+03 
  43037.7214     0.12584E+03 
  43069.9836     0.12571E+03 
  43102.2458     0.12559E+03 
  43134.5079     0.12545E+03 
  43166.7701     0.12532E+03 
  43199.0322     0.12518E+03 
  43231.2944     0.12504E+03 
  43263.5566     0.12489E+03 
  43295.8187     0.12474E+03 
  43328.0809     0.12458E+03 
  43360.3430     0.12443E+03 
  43392.6052     0.12426E+03 
  43424.8674     0.12410E+03 
  43457.1295     0.12393E+03 
  43489.3917     0.12376E+03 
  43521.6538     0.12358E+03 
  43553.9160     0.12340E+03 
  43586.1782     0.12322E+03 
  43618.4403     0.12303E+03 
  43650.7025     0.12284E+03 
  43682.9646     0.12265E+03 
  43715.2268     0.12245E+03 
  43747.4890     0.12225E+03 
  43779.7511     0.12205E+03 
  43812.0133     0.12184E+03 
  43844.2754     0.12163E+03 
  43876.5376     0.12141E+03 
  43908.7998     0.12120E+03 
  43941.0619     0.12098E+03 
  43973.3241     0.12075E+03 
  44005.5862     0.12053E+03 
  44037.8484     0.12030E+03 
  44070.1106     0.12006E+03 
  44102.3727     0.11983E+03 
  44134.6349     0.11959E+03 
  44166.8970     0.11935E+03 
  44199.1592     0.11910E+03 
  44231.4214     0.11885E+03 
  44263.6835     0.11860E+03 
  44295.9457     0.11835E+03 
  44328.2078     0.11809E+03 
  44360.4700     0.11783E+03 
  44392.7322     0.11757E+03 
  44424.9943     0.11730E+03 
  44457.2565     0.11703E+03 
  44489.5186     0.11676E+03 
  44521.7808     0.11649E+03 
  44554.0430     0.11621E+03 
  44586.3051     0.11593E+03 
  44618.5673     0.11565E+03 
  44650.8294     0.11537E+03 
  44683.0916     0.11508E+03 
  44715.3538     0.11479E+03 
  44747.6159     0.11450E+03 
  44779.8781     0.11420E+03 
  44812.1402     0.11391E+03 
  44844.4024     0.11361E+03 
  44876.6646     0.11331E+03 
  44908.9267     0.11300E+03 
  44941.1889     0.11269E+03 
  44973.4510     0.11239E+03 
  45005.7132     0.11207E+03 
  45037.9754     0.11176E+03 
  45070.2375     0.11144E+03 
  45102.4997     0.11113E+03 
  45134.7618     0.11081E+03 
  45167.0240     0.11048E+03 
  45199.2862     0.11016E+03 
  45231.5483     0.10983E+03 
  45263.8105     0.10951E+03 
  45296.0726     0.10918E+03 
  45328.3348     0.10884E+03 
  45360.5970     0.10851E+03 
  45392.8591     0.10817E+03 
  45425.1213     0.10783E+03 
  45457.3834     0.10749E+03 
  45489.6456     0.10715E+03 
  45521.9078     0.10681E+03 
  45554.1699     0.10646E+03 
  45586.4321     0.10612E+03 
  45618.6942     0.10577E+03 
  45650.9564     0.10542E+03 
  45683.2186     0.10506E+03 
  45715.4807     0.10471E+03 
  45747.7429     0.10435E+03 
  45780.0050     0.10400E+03 
  45812.2672     0.10364E+03 
  45844.5294     0.10328E+03 
  45876.7915     0.10292E+03 
  45909.0537     0.10255E+03 
  45941.3158     0.10219E+03 
  45973.5780     0.10182E+03 
  46005.8402     0.10146E+03 
  46038.1023     0.10109E+03 
  46070.3645     0.10072E+03 
  46102.6266     0.10035E+03 
  46134.8888     0.99976E+02 
  46167.1510     0.99603E+02 
  46199.4131     0.99228E+02 
  46231.6753     0.98852E+02 
  46263.9374     0.98475E+02 
  46296.1996     0.98098E+02 
  46328.4618     0.97719E+02 
  46360.7239     0.97338E+02 
  46392.9861     0.96957E+02 
  46425.2482     0.96575E+02 
  46457.5104     0.96192E+02 
  46489.7726     0.95809E+02 
  46522.0347     0.95424E+02 
  46554.2969     0.95038E+02 
  46586.5590     0.94652E+02 
  46618.8212     0.94264E+02 
  46651.0834     0.93876E+02 
  46683.3455     0.93487E+02 
  46715.6077     0.93098E+02 
  46747.8698     0.92708E+02 
  46780.1320     0.92317E+02 
  46812.3942     0.91925E+02 
  46844.6563     0.91533E+02 
  46876.9185     0.91140E+02 
  46909.1806     0.90747E+02 
  46941.4428     0.90353E+02 
  46973.7050     0.89958E+02 
  47005.9671     0.89564E+02 
  47038.2293     0.89168E+02 
  47070.4914     0.88772E+02 
  47102.7536     0.88376E+02 
  47135.0158     0.87980E+02 
  47167.2779     0.87583E+02 
  47199.5401     0.87185E+02 
  47231.8022     0.86788E+02 
  47264.0644     0.86390E+02 
  47296.3266     0.85992E+02 
  47328.5887     0.85593E+02 
  47360.8509     0.85195E+02 
  47393.1130     0.84796E+02 
  47425.3752     0.84397E+02 
  47457.6374     0.83998E+02 
  47489.8995     0.83598E+02 
  47522.1617     0.83199E+02 
  47554.4238     0.82800E+02 
  47586.6860     0.82400E+02 
  47618.9482     0.82001E+02 
  47651.2103     0.81601E+02 
  47683.4725     0.81202E+02 
  47715.7346     0.80802E+02 
  47747.9968     0.80403E+02 
  47780.2590     0.80003E+02 
  47812.5211     0.79604E+02 
  47844.7833     0.79205E+02 
  47877.0454     0.78806E+02 
  47909.3076     0.78407E+02 
  47941.5698     0.78009E+02 
  47973.8319     0.77610E+02 
  48006.0941     0.77212E+02 
  48038.3562     0.76814E+02 
  48070.6184     0.76417E+02 
  48102.8806     0.76019E+02 
  48135.1427     0.75622E+02 
  48167.4049     0.75226E+02 
  48199.6670     0.74829E+02 
  48231.9292     0.74433E+02 
  48264.1914     0.74038E+02 
  48296.4535     0.73642E+02 
  48328.7157     0.73248E+02 
  48360.9778     0.72853E+02 
  48393.2400     0.72460E+02 
  48425.5022     0.72066E+02 
  48457.7643     0.71673E+02 
  48490.0265     0.71281E+02 
  48522.2886     0.70889E+02 
  48554.5508     0.70498E+02 
  48586.8130     0.70107E+02 
  48619.0751     0.69717E+02 
  48651.3373     0.69327E+02 
  48683.5994     0.68938E+02 
  48715.8616     0.68550E+02 
  48748.1238     0.68163E+02 
  48780.3859     0.67776E+02 
  48812.6481     0.67389E+02 
  48844.9102     0.67004E+02 
  48877.1724     0.66619E+02 
  48909.4346     0.66235E+02 
  48941.6967     0.65851E+02 
  48973.9589     0.65469E+02 
  49006.2210     0.65087E+02 
  49038.4832     0.64706E+02 
  49070.7454     0.64325E+02 
  49103.0075     0.63946E+02 
  49135.2697     0.63567E+02 
  49167.5318     0.63190E+02 
  49199.7940     0.62813E+02 
  49232.0562     0.62437E+02 
  49264.3183     0.62061E+02 
  49296.5805     0.61687E+02 
  49328.8426     0.61314E+02 
  49361.1048     0.60941E+02 
  49393.3670     0.60570E+02 
  49425.6291     0.60199E+02 
  49457.8913     0.59829E+02 
  49490.1534     0.59461E+02 
  49522.4156     0.59093E+02 
  49554.6778     0.58726E+02 
  49586.9399     0.58361E+02 
  49619.2021     0.57996E+02 
  49651.4642     0.57632E+02 
  49683.7264     0.57270E+02 
  49715.9886     0.56908E+02 
  49748.2507     0.56548E+02 
  49780.5129     0.56188E+02 
  49812.7750     0.55830E+02 
  49845.0372     0.55472E+02 
  49877.2994     0.55116E+02 
  49909.5615     0.54761E+02 
  49941.8237     0.54407E+02 
  49974.0858     0.54054E+02 
  50006.3480     0.53703E+02 
  50038.6102     0.53352E+02 
  50070.8723     0.53003E+02 
  50103.1345     0.52654E+02 
  50135.3966     0.52307E+02 
  50167.6588     0.51961E+02 
  50199.9210     0.51616E+02 
  50232.1831     0.51273E+02 
  50264.4453     0.50931E+02 
  50296.7074     0.50589E+02 
  50328.9696     0.50249E+02 
  50361.2318     0.49911E+02 
  50393.4939     0.49573E+02 
  50425.7561     0.49237E+02 
  50458.0182     0.48902E+02 
  50490.2804     0.48568E+02 
  50522.5426     0.48235E+02 
  50554.8047     0.47904E+02 
  50587.0669     0.47574E+02 
  50619.3290     0.47245E+02 
  50651.5912     0.46918E+02 
  50683.8534     0.46592E+02 
  50716.1155     0.46267E+02 
  50748.3777     0.45943E+02 
  50780.6398     0.45621E+02 
  50812.9020     0.45300E+02 
  50845.1642     0.44980E+02 
  50877.4263     0.44662E+02 
  50909.6885     0.44345E+02 
  50941.9506     0.44029E+02 
  50974.2128     0.43714E+02 
  51006.4750     0.43401E+02 
  51038.7371     0.43089E+02 
  51070.9993     0.42779E+02 
  51103.2614     0.42470E+02 
  51135.5236     0.42162E+02 
  51167.7858     0.41855E+02 
  51200.0479     0.41550E+02 
  51232.3101     0.41247E+02 
  51264.5722     0.40944E+02 
  51296.8344     0.40643E+02 
  51329.0966     0.40343E+02 
  51361.3587     0.40045E+02 
  51393.6209     0.39748E+02 
  51425.8830     0.39453E+02 
  51458.1452     0.39158E+02 
  51490.4074     0.38865E+02 
  51522.6695     0.38574E+02 
  51554.9317     0.38284E+02 
  51587.1938     0.37995E+02 
  51619.4560     0.37708E+02 
  51651.7182     0.37422E+02 
  51683.9803     0.37137E+02 
  51716.2425     0.36854E+02 
  51748.5046     0.36572E+02 
  51780.7668     0.36292E+02 
  51813.0290     0.36012E+02 
  51845.2911     0.35735E+02 
  51877.5533     0.35458E+02 
  51909.8154     0.35184E+02 
  51942.0776     0.34910E+02 
  51974.3398     0.34638E+02 
  52006.6019     0.34367E+02 
  52038.8641     0.34098E+02 
  52071.1262     0.33830E+02 
  52103.3884     0.33563E+02 
  52135.6506     0.33298E+02 
  52167.9127     0.33034E+02 
  52200.1749     0.32771E+02 
  52232.4370     0.32510E+02 
  52264.6992     0.32251E+02 
  52296.9614     0.31992E+02 
  52329.2235     0.31735E+02 
  52361.4857     0.31480E+02 
  52393.7478     0.31226E+02 
  52426.0100     0.30973E+02 
  52458.2722     0.30721E+02 
  52490.5343     0.30471E+02 
  52522.7965     0.30223E+02 
  52555.0586     0.29975E+02 
  52587.3208     0.29729E+02 
  52619.5830     0.29485E+02 
  52651.8451     0.29242E+02 
  52684.1073     0.29000E+02 
  52716.3694     0.28759E+02 
  52748.6316     0.28520E+02 
  52780.8938     0.28282E+02 
  52813.1559     0.28046E+02 
  52845.4181     0.27811E+02 
  52877.6802     0.27577E+02 
  52909.9424     0.27345E+02 
  52942.2046     0.27114E+02 
  52974.4667     0.26884E+02 
  53006.7289     0.26656E+02 
  53038.9910     0.26429E+02 
  53071.2532     0.26204E+02 
  53103.5154     0.25979E+02 
  53135.7775     0.25756E+02 
  53168.0397     0.25535E+02 
  53200.3018     0.25314E+02 
  53232.5640     0.25096E+02 
  53264.8262     0.24878E+02 
  53297.0883     0.24662E+02 
  53329.3505     0.24447E+02 
  53361.6126     0.24233E+02 
  53393.8748     0.24020E+02 
  53426.1370     0.23809E+02 
  53458.3991     0.23600E+02 
  53490.6613     0.23391E+02 
  53522.9234     0.23184E+02 
  53555.1856     0.22978E+02 
  53587.4478     0.22773E+02 
  53619.7099     0.22570E+02 
  53651.9721     0.22368E+02 
  53684.2342     0.22167E+02 
  53716.4964     0.21968E+02 
  53748.7586     0.21770E+02 
  53781.0207     0.21573E+02 
  53813.2829     0.21377E+02 
  53845.5450     0.21182E+02 
  53877.8072     0.20989E+02 
  53910.0694     0.20797E+02 
  53942.3315     0.20607E+02 
  53974.5937     0.20417E+02 
  54006.8558     0.20229E+02 
  54039.1180     0.20042E+02 
  54071.3802     0.19856E+02 
  54103.6423     0.19672E+02 
  54135.9045     0.19488E+02 
  54168.1666     0.19306E+02 
  54200.4288     0.19125E+02 
  54232.6910     0.18946E+02 
  54264.9531     0.18767E+02 
  54297.2153     0.18590E+02 
  54329.4774     0.18414E+02 
  54361.7396     0.18239E+02 
  54394.0018     0.18065E+02 
  54426.2639     0.17892E+02 
  54458.5261     0.17721E+02 
  54490.7882     0.17551E+02 
  54523.0504     0.17382E+02 
  54555.3126     0.17214E+02 
  54587.5747     0.17047E+02 
  54619.8369     0.16882E+02 
  54652.0990     0.16717E+02 
  54684.3612     0.16554E+02 
  54716.6234     0.16392E+02 
  54748.8855     0.16231E+02 
  54781.1477     0.16071E+02 
  54813.4098     0.15912E+02 
  54845.6720     0.15754E+02 
  54877.9342     0.15598E+02 
  54910.1963     0.15443E+02 
  54942.4585     0.15288E+02 
  54974.7206     0.15135E+02 
  55006.9828     0.14983E+02 
  55039.2450     0.14832E+02 
  55071.5071     0.14682E+02 
  55103.7693     0.14533E+02 
  55136.0314     0.14385E+02 
  55168.2936     0.14238E+02 
  55200.5558     0.14093E+02 
  55232.8179     0.13948E+02 
  55265.0801     0.13804E+02 
  55297.3422     0.13662E+02 
  55329.6044     0.13520E+02 
  55361.8666     0.13380E+02 
  55394.1287     0.13241E+02 
  55426.3909     0.13102E+02 
  55458.6530     0.12965E+02 
  55490.9152     0.12829E+02 
  55523.1774     0.12693E+02 
  55555.4395     0.12559E+02 
  55587.7017     0.12426E+02 
  55619.9638     0.12293E+02 
  55652.2260     0.12162E+02 
  55684.4882     0.12032E+02 
  55716.7503     0.11902E+02 
  55749.0125     0.11774E+02 
  55781.2746     0.11646E+02 
  55813.5368     0.11520E+02 
  55845.7990     0.11395E+02 
  55878.0611     0.11270E+02 
  55910.3233     0.11146E+02 
  55942.5854     0.11024E+02 
  55974.8476     0.10902E+02 
  56007.1098     0.10781E+02 
  56039.3719     0.10662E+02 
  56071.6341     0.10543E+02 
  56103.8962     0.10425E+02 
  56136.1584     0.10308E+02 
  56168.4206     0.10192E+02 
  56200.6827     0.10076E+02 
  56232.9449     0.99620E+01 
  56265.2070     0.98485E+01 
  56297.4692     0.97360E+01 
  56329.7314     0.96244E+01 
  56361.9935     0.95136E+01 
  56394.2557     0.94037E+01 
  56426.5178     0.92947E+01 
  56458.7800     0.91866E+01 
  56491.0422     0.90793E+01 
  56523.3043     0.89728E+01 
  56555.5665     0.88673E+01 
  56587.8286     0.87625E+01 
  56620.0908     0.86587E+01 
  56652.3530     0.85556E+01 
  56684.6151     0.84534E+01 
  56716.8773     0.83520E+01 
  56749.1394     0.82515E+01 
  56781.4016     0.81517E+01 
  56813.6638     0.80528E+01 
  56845.9259     0.79547E+01 
  56878.1881     0.78574E+01 
  56910.4502     0.77609E+01 
  56942.7124     0.76652E+01 
  56974.9746     0.75703E+01 
  57007.2367     0.74761E+01 
  57039.4989     0.73828E+01 
  57071.7610     0.72902E+01 
  57104.0232     0.71984E+01 
  57136.2854     0.71074E+01 
  57168.5475     0.70171E+01 
  57200.8097     0.69276E+01 
  57233.0718     0.68389E+01 
  57265.3340     0.67509E+01 
  57297.5962     0.66636E+01 
  57329.8583     0.65771E+01 
  57362.1205     0.64913E+01 
  57394.3826     0.64063E+01 
  57426.6448     0.63220E+01 
  57458.9070     0.62384E+01 
  57491.1691     0.61555E+01 
  57523.4313     0.60734E+01 
  57555.6934     0.59919E+01 
  57587.9556     0.59112E+01 
  57620.2178     0.58312E+01 
  57652.4799     0.57518E+01 
  57684.7421     0.56732E+01 
  57717.0042     0.55953E+01 
  57749.2664     0.55180E+01 
  57781.5286     0.54414E+01 
  57813.7907     0.53655E+01 
  57846.0529     0.52903E+01 
  57878.3150     0.52157E+01 
  57910.5772     0.51418E+01 
  57942.8394     0.50686E+01 
  57975.1015     0.49961E+01 
  58007.3637     0.49241E+01 
  58039.6258     0.48529E+01 
  58071.8880     0.47823E+01 
  58104.1502     0.47123E+01 
  58136.4123     0.46429E+01 
  58168.6745     0.45743E+01 
  58200.9366     0.45062E+01 
  58233.1988     0.44387E+01 
  58265.4610     0.43719E+01 
  58297.7231     0.43057E+01 
  58329.9853     0.42402E+01 
  58362.2474     0.41752E+01 
  58394.5096     0.41108E+01 
  58426.7718     0.40471E+01 
  58459.0339     0.39839E+01 
  58491.2961     0.39214E+01 
  58523.5582     0.38595E+01 
  58555.8204     0.37981E+01 
  58588.0826     0.37373E+01 
  58620.3447     0.36772E+01 
  58652.6069     0.36176E+01 
  58684.8690     0.35585E+01 
  58717.1312     0.35001E+01 
  58749.3934     0.34422E+01 
  58781.6555     0.33849E+01 
  58813.9177     0.33282E+01 
  58846.1798     0.32720E+01 
  58878.4420     0.32164E+01 
  58910.7042     0.31614E+01 
  58942.9663     0.31069E+01 
  58975.2285     0.30530E+01 
  59007.4906     0.29996E+01 
  59039.7528     0.29467E+01 
  59072.0150     0.28944E+01 
  59104.2771     0.28426E+01 
  59136.5393     0.27914E+01 
  59168.8014     0.27407E+01 
  59201.0636     0.26906E+01 
  59233.3258     0.26409E+01 
  59265.5879     0.25918E+01 
  59297.8501     0.25433E+01 
  59330.1122     0.24952E+01 
  59362.3744     0.24477E+01 
  59394.6366     0.24007E+01 
  59426.8987     0.23542E+01 
  59459.1609     0.23082E+01 
  59491.4230     0.22627E+01 
  59523.6852     0.22177E+01 
  59555.9474     0.21732E+01 
  59588.2095     0.21293E+01 
  59620.4717     0.20858E+01 
  59652.7338     0.20428E+01 
  59684.9960     0.20004E+01 
  59717.2582     0.19584E+01 
  59749.5203     0.19169E+01 
  59781.7825     0.18759E+01 
  59814.0446     0.18354E+01 
  59846.3068     0.17954E+01 
  59878.5690     0.17559E+01 
  59910.8311     0.17168E+01 
  59943.0933     0.16783E+01 
  59975.3554     0.16402E+01 
  60007.6176     0.16026E+01 
  60039.8798     0.15654E+01 
  60072.1419     0.15288E+01 
  60104.4041     0.14926E+01 
  60136.6662     0.14569E+01 
  60168.9284     0.14216E+01 
  60201.1906     0.13869E+01 
  60233.4527     0.13525E+01 
  60265.7149     0.13187E+01 
  60297.9770     0.12853E+01 
  60330.2392     0.12524E+01 
  60362.5014     0.12200E+01 
  60394.7635     0.11880E+01 
  60427.0257     0.11565E+01 
  60459.2878     0.11254E+01 
  60491.5500     0.10948E+01 
  60523.8122     0.10646E+01 
  60556.0743     0.10350E+01 
  60588.3365     0.10057E+01 
  60620.5986     0.97694E+00 
  60652.8608     0.94862E+00 
  60685.1230     0.92075E+00 
  60717.3851     0.89333E+00 
  60749.6473     0.86637E+00 
  60781.9094     0.83986E+00 
  60814.1716     0.81380E+00 
  60846.4338     0.78820E+00 
  60878.6959     0.76305E+00 
  60910.9581     0.73835E+00 
  60943.2202     0.71410E+00 
  60975.4824     0.69030E+00 
  61007.7446     0.66696E+00 
  61040.0067     0.64407E+00 
  61072.2689     0.62163E+00 
  61104.5310     0.59964E+00 
  61136.7932     0.57810E+00 
  61169.0554     0.55701E+00 
  61201.3175     0.53638E+00 
  61233.5797     0.51621E+00 
  61265.8418     0.49648E+00 
  61298.1040     0.47721E+00 
  61330.3662     0.45840E+00 
  61362.6283     0.44004E+00 
  61394.8905     0.42214E+00 
  61427.1526     0.40470E+00 
  61459.4148     0.38771E+00 
  61491.6770     0.37119E+00 
  61523.9391     0.35513E+00 
  61556.2013     0.33952E+00 
  61588.4634     0.32439E+00 
  61620.7256     0.30971E+00 
  61652.9878     0.29550E+00 
  61685.2499     0.28176E+00 
  61717.5121     0.26849E+00 
  61749.7742     0.25569E+00 
  61782.0364     0.24337E+00 
  61814.2986     0.23152E+00 
  61846.5607     0.22014E+00 
  61878.8229     0.20924E+00 
  61911.0850     0.19883E+00 
  61943.3472     0.18890E+00 
  61975.6094     0.17945E+00 
  62007.8715     0.17049E+00 
  62040.1337     0.16202E+00 
  62072.3958     0.15404E+00 
  62104.6580     0.14656E+00 
  62136.9202     0.13958E+00 
  62169.1823     0.13310E+00 
  62201.4445     0.12713E+00 
  62233.7066     0.12166E+00 
  62265.9688     0.11670E+00 
  62298.2310     0.11226E+00 
  62330.4931     0.10834E+00 
  62362.7553     0.10494E+00 
  62395.0174     0.10206E+00 
  62427.2796     0.99711E-01 
  62459.5418     0.97897E-01 
  62491.8039     0.96620E-01 
  62524.0661     0.95885E-01 
  62556.3282     0.95695E-01 
  62588.5904     0.96056E-01 
  62620.8526     0.96973E-01 
  62653.1147     0.98449E-01 
  62685.3769     0.10049E+00 
  62717.6390     0.10310E+00 
  62749.9012     0.10629E+00 
  62782.1634     0.11005E+00 
  62814.4255     0.11440E+00 
  62846.6877     0.11935E+00 
  62878.9498     0.12489E+00 
  62911.2120     0.13103E+00 
  62943.4742     0.13779E+00 
  62975.7363     0.14516E+00 
  63007.9985     0.15315E+00 
  63040.2606     0.16177E+00 
  63072.5228     0.17103E+00 
  63104.7850     0.18093E+00 
  63137.0471     0.19148E+00 
  63169.3093     0.20269E+00 
  63201.5714     0.21456E+00 
  63233.8336     0.22710E+00 
  63266.0958     0.24032E+00 
  63298.3579     0.25424E+00 
  63330.6201     0.26885E+00 
  63362.8822     0.28416E+00 
  63395.1444     0.30019E+00 
  63427.4066     0.31694E+00 
  63459.6687     0.33443E+00 
  63491.9309     0.35265E+00 
  63524.1930     0.37163E+00 
  63556.4552     0.39137E+00 
  63588.7174     0.41188E+00 
  63620.9795     0.43317E+00 
  63653.2417     0.45525E+00 
  63685.5038     0.47814E+00 
  63717.7660     0.50183E+00 
  63750.0282     0.52636E+00 
  63782.2903     0.55172E+00 
  63814.5525     0.57793E+00 
  63846.8146     0.60500E+00 
  63879.0768     0.63294E+00 
  63911.3390     0.66177E+00 
  63943.6011     0.69150E+00 
  63975.8633     0.72214E+00 
  64008.1254     0.75370E+00 
  64040.3876     0.78620E+00 
  64072.6498     0.81966E+00 
  64104.9119     0.85409E+00 
  64137.1741     0.88949E+00 
  64169.4362     0.92590E+00 
  64201.6984     0.96332E+00 
  64233.9606     0.10018E+01 
  64266.2227     0.10413E+01 
  64298.4849     0.10818E+01 
  64330.7470     0.11235E+01 
  64363.0092     0.11662E+01 
  64395.2714     0.12100E+01 
  64427.5335     0.12550E+01 
  64459.7957     0.13011E+01 
  64492.0578     0.13484E+01 
  64524.3200     0.13969E+01 
  64556.5822     0.14466E+01 
  64588.8443     0.14975E+01 
  64621.1065     0.15497E+01 
  64653.3686     0.16031E+01 
  64685.6308     0.16578E+01 
  64717.8930     0.17139E+01 
  64750.1551     0.17712E+01 
  64782.4173     0.18299E+01 
  64814.6794     0.18900E+01 
  64846.9416     0.19516E+01 
  64879.2038     0.20145E+01 
  64911.4659     0.20789E+01 
  64943.7281     0.21447E+01 
  64975.9902     0.22121E+01 
  65008.2524     0.22810E+01 
  65040.5146     0.23514E+01 
  65072.7767     0.24235E+01 
  65105.0389     0.24971E+01 
  65137.3010     0.25724E+01 
  65169.5632     0.26493E+01 
  65201.8254     0.27280E+01 
  65234.0875     0.28084E+01 
  65266.3497     0.28905E+01 
  65298.6118     0.29744E+01 
  65330.8740     0.30601E+01 
  65363.1362     0.31477E+01 
  65395.3983     0.32372E+01 
  65427.6605     0.33286E+01 
  65459.9226     0.34220E+01 
  65492.1848     0.35173E+01 
  65524.4470     0.36147E+01 
  65556.7091     0.37141E+01 
  65588.9713     0.38157E+01 
  65621.2334     0.39193E+01 
  65653.4956     0.40252E+01 
  65685.7578     0.41333E+01 
  65718.0199     0.42436E+01 
  65750.2821     0.43562E+01 
  65782.5442     0.44712E+01 
  65814.8064     0.45885E+01 
  65847.0686     0.47083E+01 
  65879.3307     0.48305E+01 
  65911.5929     0.49553E+01 
  65943.8550     0.50826E+01 
  65976.1172     0.52125E+01 
  66008.3794     0.53451E+01 
  66040.6415     0.54804E+01 
  66072.9037     0.56184E+01 
  66105.1658     0.57592E+01 
  66137.4280     0.59029E+01 
  66169.6902     0.60495E+01 
  66201.9523     0.61991E+01 
  66234.2145     0.63517E+01 
  66266.4766     0.65073E+01 
  66298.7388     0.66661E+01 
  66331.0010     0.68280E+01 
  66363.2631     0.69932E+01 
  66395.5253     0.71617E+01 
  66427.7874     0.73336E+01 
  66460.0496     0.75088E+01 
  66492.3118     0.76876E+01 
  66524.5739     0.78699E+01 
  66556.8361     0.80558E+01 
  66589.0982     0.82454E+01 
  66621.3604     0.84387E+01 
  66653.6226     0.86358E+01 
  66685.8847     0.88369E+01 
  66718.1469     0.90418E+01 
  66750.4090     0.92508E+01 
  66782.6712     0.94639E+01 
  66814.9334     0.96812E+01 
  66847.1955     0.99027E+01 
  66879.4577     0.10129E+02 
  66911.7198     0.10359E+02 
  66943.9820     0.10593E+02 
  66976.2442     0.10833E+02 
  67008.5063     0.11077E+02 
  67040.7685     0.11325E+02 
  67073.0306     0.11579E+02 
  67105.2928     0.11837E+02 
  67137.5550     0.12100E+02 
  67169.8171     0.12369E+02 
  67202.0793     0.12642E+02 
  67234.3414     0.12921E+02 
  67266.6036     0.13205E+02 
  67298.8658     0.13495E+02 
  67331.1279     0.13790E+02 
  67363.3901     0.14090E+02 
  67395.6522     0.14397E+02 
  67427.9144     0.14709E+02 
  67460.1766     0.15027E+02 
  67492.4387     0.15351E+02 
  67524.7009     0.15682E+02 
  67556.9630     0.16018E+02 
  67589.2252     0.16361E+02 
  67621.4874     0.16711E+02 
  67653.7495     0.17067E+02 
  67686.0117     0.17429E+02 
  67718.2738     0.17799E+02 
  67750.5360     0.18175E+02 
  67782.7982     0.18558E+02 
  67815.0603     0.18949E+02 
  67847.3225     0.19347E+02 
  67879.5846     0.19752E+02 
  67911.8468     0.20165E+02 
  67944.1090     0.20585E+02 
  67976.3711     0.21013E+02 
  68008.6333     0.21449E+02 
  68040.8954     0.21893E+02 
  68073.1576     0.22345E+02 
  68105.4198     0.22806E+02 
  68137.6819     0.23275E+02 
  68169.9441     0.23752E+02 
  68202.2062     0.24239E+02 
  68234.4684     0.24734E+02 
  68266.7306     0.25238E+02 
  68298.9927     0.25751E+02 
  68331.2549     0.26274E+02 
  68363.5170     0.26805E+02 
  68395.7792     0.27347E+02 
  68428.0414     0.27898E+02 
  68460.3035     0.28460E+02 
  68492.5657     0.29031E+02 
  68524.8278     0.29612E+02 
  68557.0900     0.30204E+02 
  68589.3522     0.30807E+02 
  68621.6143     0.31420E+02 
  68653.8765     0.32044E+02 
  68686.1386     0.32679E+02 
  68718.4008     0.33325E+02 
  68750.6630     0.33983E+02 
  68782.9251     0.34652E+02 
  68815.1873     0.35333E+02 
  68847.4494     0.36026E+02 
  68879.7116     0.36730E+02 
  68911.9738     0.37448E+02 
  68944.2359     0.38177E+02 
  68976.4981     0.38920E+02 
  69008.7602     0.39675E+02 
  69041.0224     0.40443E+02 
  69073.2846     0.41224E+02 
  69105.5467     0.42019E+02 
  69137.8089     0.42827E+02 
  69170.0710     0.43649E+02 
  69202.3332     0.44486E+02 
  69234.5954     0.45336E+02 
  69266.8575     0.46201E+02 
  69299.1197     0.47080E+02 
  69331.3818     0.47974E+02 
  69363.6440     0.48883E+02 
  69395.9062     0.49808E+02 
  69428.1683     0.50748E+02 
  69460.4305     0.51703E+02 
  69492.6926     0.52674E+02 
  69524.9548     0.53662E+02 
  69557.2170     0.54666E+02 
  69589.4791     0.55686E+02 
  69621.7413     0.56723E+02 
  69654.0034     0.57777E+02 
  69686.2656     0.58848E+02 
  69718.5278     0.59937E+02 
  69750.7899     0.61043E+02 
  69783.0521     0.62168E+02 
  69815.3142     0.63310E+02 
  69847.5764     0.64471E+02 
  69879.8386     0.65650E+02 
  69912.1007     0.66848E+02 
  69944.3629     0.68065E+02 
  69976.6250     0.69302E+02 
  70008.8872     0.70558E+02 
  70041.1494     0.71834E+02 
  70073.4115     0.73130E+02 
  70105.6737     0.74446E+02 
  70137.9358     0.75783E+02 
  70170.1980     0.77141E+02 
  70202.4602     0.78520E+02 
  70234.7223     0.79920E+02 
  70266.9845     0.81341E+02 
  70299.2466     0.82785E+02 
  70331.5088     0.84250E+02 
  70363.7710     0.85738E+02 
  70396.0331     0.87248E+02 
  70428.2953     0.88781E+02 
  70460.5574     0.90338E+02 
  70492.8196     0.91918E+02 
  70525.0818     0.93521E+02 
  70557.3439     0.95148E+02 
  70589.6061     0.96800E+02 
  70621.8682     0.98476E+02 
  70654.1304     0.10018E+03 
  70686.3926     0.10190E+03 
  70718.6547     0.10365E+03 
  70750.9169     0.10543E+03 
  70783.1790     0.10723E+03 
  70815.4412     0.10906E+03 
  70847.7034     0.11091E+03 
  70879.9655     0.11279E+03 
  70912.2277     0.11470E+03 
  70944.4898     0.11664E+03 
  70976.7520     0.11860E+03 
  71009.0142     0.12059E+03 
  71041.2763     0.12261E+03 
  71073.5385     0.12465E+03 
  71105.8006     0.12673E+03 
  71138.0628     0.12883E+03 
  71170.3250     0.13097E+03 
  71202.5871     0.13313E+03 
  71234.8493     0.13532E+03 
  71267.1114     0.13754E+03 
  71299.3736     0.13979E+03 
  71331.6358     0.14207E+03 
  71363.8979     0.14439E+03 
  71396.1601     0.14673E+03 
  71428.4222     0.14911E+03 
  71460.6844     0.15151E+03 
  71492.9466     0.15395E+03 
  71525.2087     0.15642E+03 
  71557.4709     0.15892E+03 
  71589.7330     0.16146E+03 
  71621.9952     0.16403E+03 
  71654.2574     0.16663E+03 
  71686.5195     0.16926E+03 
  71718.7817     0.17193E+03 
  71751.0438     0.17463E+03 
  71783.3060     0.17737E+03 
  71815.5682     0.18014E+03 
  71847.8303     0.18295E+03 
  71880.0925     0.18579E+03 
  71912.3546     0.18866E+03 
  71944.6168     0.19157E+03 
  71976.8790     0.19452E+03 
  72009.1411     0.19750E+03 
  72041.4033     0.20052E+03 
  72073.6654     0.20358E+03 
  72105.9276     0.20667E+03 
  72138.1898     0.20980E+03 
  72170.4519     0.21296E+03 
  72202.7141     0.21617E+03 
  72234.9762     0.21941E+03 
  72267.2384     0.22269E+03 
  72299.5006     0.22600E+03 
  72331.7627     0.22936E+03 
  72364.0249     0.23275E+03 
  72396.2870     0.23619E+03 
  72428.5492     0.23966E+03 
  72460.8114     0.24317E+03 
  72493.0735     0.24672E+03 
  72525.3357     0.25031E+03 
  72557.5978     0.25394E+03 
  72589.8600     0.25761E+03 
