  32262.1600     0.14854E+02 
  32294.4222     0.15051E+02 
  32326.6843     0.15249E+02 
  32358.9465     0.15450E+02 
  32391.2086     0.15652E+02 
  32423.4708     0.15856E+02 
  32455.7330     0.16062E+02 
  32487.9951     0.16269E+02 
  32520.2573     0.16478E+02 
  32552.5194     0.16690E+02 
  32584.7816     0.16902E+02 
  32617.0438     0.17117E+02 
  32649.3059     0.17333E+02 
  32681.5681     0.17552E+02 
  32713.8302     0.17772E+02 
  32746.0924     0.17993E+02 
  32778.3546     0.18217E+02 
  32810.6167     0.18442E+02 
  32842.8789     0.18669E+02 
  32875.1410     0.18898E+02 
  32907.4032     0.19129E+02 
  32939.6654     0.19361E+02 
  32971.9275     0.19595E+02 
  33004.1897     0.19831E+02 
  33036.4518     0.20069E+02 
  33068.7140     0.20308E+02 
  33100.9762     0.20550E+02 
  33133.2383     0.20793E+02 
  33165.5005     0.21037E+02 
  33197.7626     0.21284E+02 
  33230.0248     0.21532E+02 
  33262.2870     0.21782E+02 
  33294.5491     0.22033E+02 
  33326.8113     0.22287E+02 
  33359.0734     0.22542E+02 
  33391.3356     0.22798E+02 
  33423.5978     0.23057E+02 
  33455.8599     0.23317E+02 
  33488.1221     0.23579E+02 
  33520.3842     0.23842E+02 
  33552.6464     0.24107E+02 
  33584.9086     0.24374E+02 
  33617.1707     0.24642E+02 
  33649.4329     0.24912E+02 
  33681.6950     0.25184E+02 
  33713.9572     0.25458E+02 
  33746.2194     0.25732E+02 
  33778.4815     0.26009E+02 
  33810.7437     0.26287E+02 
  33843.0058     0.26567E+02 
  33875.2680     0.26848E+02 
  33907.5302     0.27131E+02 
  33939.7923     0.27416E+02 
  33972.0545     0.27702E+02 
  34004.3166     0.27989E+02 
  34036.5788     0.28278E+02 
  34068.8410     0.28569E+02 
  34101.1031     0.28861E+02 
  34133.3653     0.29154E+02 
  34165.6274     0.29449E+02 
  34197.8896     0.29745E+02 
  34230.1518     0.30043E+02 
  34262.4139     0.30343E+02 
  34294.6761     0.30643E+02 
  34326.9382     0.30945E+02 
  34359.2004     0.31249E+02 
  34391.4626     0.31554E+02 
  34423.7247     0.31860E+02 
  34455.9869     0.32167E+02 
  34488.2490     0.32476E+02 
  34520.5112     0.32786E+02 
  34552.7734     0.33098E+02 
  34585.0355     0.33410E+02 
  34617.2977     0.33724E+02 
  34649.5598     0.34039E+02 
  34681.8220     0.34356E+02 
  34714.0842     0.34673E+02 
  34746.3463     0.34992E+02 
  34778.6085     0.35312E+02 
  34810.8706     0.35633E+02 
  34843.1328     0.35955E+02 
  34875.3950     0.36279E+02 
  34907.6571     0.36603E+02 
  34939.9193     0.36929E+02 
  34972.1814     0.37255E+02 
  35004.4436     0.37583E+02 
  35036.7058     0.37911E+02 
  35068.9679     0.38241E+02 
  35101.2301     0.38571E+02 
  35133.4922     0.38903E+02 
  35165.7544     0.39235E+02 
  35198.0166     0.39568E+02 
  35230.2787     0.39902E+02 
  35262.5409     0.40237E+02 
  35294.8030     0.40573E+02 
  35327.0652     0.40910E+02 
  35359.3274     0.41247E+02 
  35391.5895     0.41586E+02 
  35423.8517     0.41925E+02 
  35456.1138     0.42264E+02 
  35488.3760     0.42605E+02 
  35520.6382     0.42946E+02 
  35552.9003     0.43287E+02 
  35585.1625     0.43630E+02 
  35617.4246     0.43973E+02 
  35649.6868     0.44316E+02 
  35681.9490     0.44660E+02 
  35714.2111     0.45005E+02 
  35746.4733     0.45350E+02 
  35778.7354     0.45696E+02 
  35810.9976     0.46042E+02 
  35843.2598     0.46388E+02 
  35875.5219     0.46735E+02 
  35907.7841     0.47082E+02 
  35940.0462     0.47430E+02 
  35972.3084     0.47778E+02 
  36004.5706     0.48126E+02 
  36036.8327     0.48475E+02 
  36069.0949     0.48824E+02 
  36101.3570     0.49173E+02 
  36133.6192     0.49522E+02 
  36165.8814     0.49871E+02 
  36198.1435     0.50221E+02 
  36230.4057     0.50570E+02 
  36262.6678     0.50920E+02 
  36294.9300     0.51270E+02 
  36327.1922     0.51620E+02 
  36359.4543     0.51969E+02 
  36391.7165     0.52319E+02 
  36423.9786     0.52669E+02 
  36456.2408     0.53019E+02 
  36488.5030     0.53368E+02 
  36520.7651     0.53718E+02 
  36553.0273     0.54067E+02 
  36585.2894     0.54416E+02 
  36617.5516     0.54765E+02 
  36649.8138     0.55114E+02 
  36682.0759     0.55462E+02 
  36714.3381     0.55810E+02 
  36746.6002     0.56158E+02 
  36778.8624     0.56506E+02 
  36811.1246     0.56853E+02 
  36843.3867     0.57199E+02 
  36875.6489     0.57546E+02 
  36907.9110     0.57891E+02 
  36940.1732     0.58237E+02 
  36972.4354     0.58581E+02 
  37004.6975     0.58926E+02 
  37036.9597     0.59269E+02 
  37069.2218     0.59612E+02 
  37101.4840     0.59955E+02 
  37133.7462     0.60296E+02 
  37166.0083     0.60637E+02 
  37198.2705     0.60978E+02 
  37230.5326     0.61317E+02 
  37262.7948     0.61656E+02 
  37295.0570     0.61994E+02 
  37327.3191     0.62331E+02 
  37359.5813     0.62668E+02 
  37391.8434     0.63003E+02 
  37424.1056     0.63338E+02 
  37456.3678     0.63671E+02 
  37488.6299     0.64004E+02 
  37520.8921     0.64335E+02 
  37553.1542     0.64666E+02 
  37585.4164     0.64996E+02 
  37617.6786     0.65324E+02 
  37649.9407     0.65651E+02 
  37682.2029     0.65978E+02 
  37714.4650     0.66303E+02 
  37746.7272     0.66627E+02 
  37778.9894     0.66949E+02 
  37811.2515     0.67271E+02 
  37843.5137     0.67591E+02 
  37875.7758     0.67910E+02 
  37908.0380     0.68227E+02 
  37940.3002     0.68543E+02 
  37972.5623     0.68858E+02 
  38004.8245     0.69172E+02 
  38037.0866     0.69484E+02 
  38069.3488     0.69794E+02 
  38101.6110     0.70103E+02 
  38133.8731     0.70411E+02 
  38166.1353     0.70717E+02 
  38198.3974     0.71021E+02 
  38230.6596     0.71324E+02 
  38262.9218     0.71625E+02 
  38295.1839     0.71925E+02 
  38327.4461     0.72223E+02 
  38359.7082     0.72519E+02 
  38391.9704     0.72814E+02 
  38424.2326     0.73107E+02 
  38456.4947     0.73398E+02 
  38488.7569     0.73687E+02 
  38521.0190     0.73975E+02 
  38553.2812     0.74261E+02 
  38585.5434     0.74545E+02 
  38617.8055     0.74827E+02 
  38650.0677     0.75107E+02 
  38682.3298     0.75385E+02 
  38714.5920     0.75661E+02 
  38746.8542     0.75936E+02 
  38779.1163     0.76208E+02 
  38811.3785     0.76478E+02 
  38843.6406     0.76747E+02 
  38875.9028     0.77013E+02 
  38908.1650     0.77277E+02 
  38940.4271     0.77539E+02 
  38972.6893     0.77799E+02 
  39004.9514     0.78057E+02 
  39037.2136     0.78313E+02 
  39069.4758     0.78567E+02 
  39101.7379     0.78818E+02 
  39134.0001     0.79067E+02 
  39166.2622     0.79314E+02 
  39198.5244     0.79559E+02 
  39230.7866     0.79801E+02 
  39263.0487     0.80041E+02 
  39295.3109     0.80279E+02 
  39327.5730     0.80515E+02 
  39359.8352     0.80748E+02 
  39392.0974     0.80979E+02 
  39424.3595     0.81207E+02 
  39456.6217     0.81433E+02 
  39488.8838     0.81657E+02 
  39521.1460     0.81878E+02 
  39553.4082     0.82097E+02 
  39585.6703     0.82313E+02 
  39617.9325     0.82527E+02 
  39650.1946     0.82738E+02 
  39682.4568     0.82947E+02 
  39714.7190     0.83154E+02 
  39746.9811     0.83357E+02 
  39779.2433     0.83559E+02 
  39811.5054     0.83757E+02 
  39843.7676     0.83954E+02 
  39876.0298     0.84147E+02 
  39908.2919     0.84338E+02 
  39940.5541     0.84526E+02 
  39972.8162     0.84712E+02 
  40005.0784     0.84895E+02 
  40037.3406     0.85076E+02 
  40069.6027     0.85253E+02 
  40101.8649     0.85428E+02 
  40134.1270     0.85601E+02 
  40166.3892     0.85771E+02 
  40198.6514     0.85938E+02 
  40230.9135     0.86102E+02 
  40263.1757     0.86263E+02 
  40295.4378     0.86422E+02 
  40327.7000     0.86578E+02 
  40359.9622     0.86732E+02 
  40392.2243     0.86882E+02 
  40424.4865     0.87030E+02 
  40456.7486     0.87175E+02 
  40489.0108     0.87317E+02 
  40521.2730     0.87456E+02 
  40553.5351     0.87593E+02 
  40585.7973     0.87727E+02 
  40618.0594     0.87858E+02 
  40650.3216     0.87986E+02 
  40682.5838     0.88111E+02 
  40714.8459     0.88234E+02 
  40747.1081     0.88353E+02 
  40779.3702     0.88470E+02 
  40811.6324     0.88584E+02 
  40843.8946     0.88695E+02 
  40876.1567     0.88803E+02 
  40908.4189     0.88908E+02 
  40940.6810     0.89011E+02 
  40972.9432     0.89110E+02 
  41005.2054     0.89207E+02 
  41037.4675     0.89301E+02 
  41069.7297     0.89392E+02 
  41101.9918     0.89480E+02 
  41134.2540     0.89565E+02 
  41166.5162     0.89647E+02 
  41198.7783     0.89727E+02 
  41231.0405     0.89803E+02 
  41263.3026     0.89877E+02 
  41295.5648     0.89947E+02 
  41327.8270     0.90015E+02 
  41360.0891     0.90080E+02 
  41392.3513     0.90142E+02 
  41424.6134     0.90201E+02 
  41456.8756     0.90257E+02 
  41489.1378     0.90311E+02 
  41521.3999     0.90361E+02 
  41553.6621     0.90409E+02 
  41585.9242     0.90453E+02 
  41618.1864     0.90495E+02 
  41650.4486     0.90534E+02 
  41682.7107     0.90570E+02 
  41714.9729     0.90603E+02 
  41747.2350     0.90633E+02 
  41779.4972     0.90661E+02 
  41811.7594     0.90685E+02 
  41844.0215     0.90707E+02 
  41876.2837     0.90726E+02 
  41908.5458     0.90741E+02 
  41940.8080     0.90755E+02 
  41973.0702     0.90765E+02 
  42005.3323     0.90772E+02 
  42037.5945     0.90777E+02 
  42069.8566     0.90778E+02 
  42102.1188     0.90777E+02 
  42134.3810     0.90773E+02 
  42166.6431     0.90767E+02 
  42198.9053     0.90757E+02 
  42231.1674     0.90745E+02 
  42263.4296     0.90729E+02 
  42295.6918     0.90712E+02 
  42327.9539     0.90691E+02 
  42360.2161     0.90667E+02 
  42392.4782     0.90641E+02 
  42424.7404     0.90612E+02 
  42457.0026     0.90580E+02 
  42489.2647     0.90546E+02 
  42521.5269     0.90509E+02 
  42553.7890     0.90469E+02 
  42586.0512     0.90426E+02 
  42618.3134     0.90381E+02 
  42650.5755     0.90333E+02 
  42682.8377     0.90282E+02 
  42715.0998     0.90229E+02 
  42747.3620     0.90173E+02 
  42779.6242     0.90114E+02 
  42811.8863     0.90053E+02 
  42844.1485     0.89989E+02 
  42876.4106     0.89922E+02 
  42908.6728     0.89853E+02 
  42940.9350     0.89782E+02 
  42973.1971     0.89707E+02 
  43005.4593     0.89630E+02 
  43037.7214     0.89551E+02 
  43069.9836     0.89469E+02 
  43102.2458     0.89385E+02 
  43134.5079     0.89298E+02 
  43166.7701     0.89208E+02 
  43199.0322     0.89116E+02 
  43231.2944     0.89022E+02 
  43263.5566     0.88925E+02 
  43295.8187     0.88825E+02 
  43328.0809     0.88724E+02 
  43360.3430     0.88619E+02 
  43392.6052     0.88513E+02 
  43424.8674     0.88404E+02 
  43457.1295     0.88292E+02 
  43489.3917     0.88179E+02 
  43521.6538     0.88062E+02 
  43553.9160     0.87944E+02 
  43586.1782     0.87823E+02 
  43618.4403     0.87700E+02 
  43650.7025     0.87575E+02 
  43682.9646     0.87447E+02 
  43715.2268     0.87317E+02 
  43747.4890     0.87185E+02 
  43779.7511     0.87051E+02 
  43812.0133     0.86914E+02 
  43844.2754     0.86775E+02 
  43876.5376     0.86635E+02 
  43908.7998     0.86491E+02 
  43941.0619     0.86346E+02 
  43973.3241     0.86199E+02 
  44005.5862     0.86049E+02 
  44037.8484     0.85898E+02 
  44070.1106     0.85744E+02 
  44102.3727     0.85588E+02 
  44134.6349     0.85431E+02 
  44166.8970     0.85271E+02 
  44199.1592     0.85109E+02 
  44231.4214     0.84945E+02 
  44263.6835     0.84779E+02 
  44295.9457     0.84612E+02 
  44328.2078     0.84442E+02 
  44360.4700     0.84270E+02 
  44392.7322     0.84097E+02 
  44424.9943     0.83921E+02 
  44457.2565     0.83744E+02 
  44489.5186     0.83565E+02 
  44521.7808     0.83384E+02 
  44554.0430     0.83201E+02 
  44586.3051     0.83017E+02 
  44618.5673     0.82830E+02 
  44650.8294     0.82642E+02 
  44683.0916     0.82452E+02 
  44715.3538     0.82261E+02 
  44747.6159     0.82067E+02 
  44779.8781     0.81872E+02 
  44812.1402     0.81676E+02 
  44844.4024     0.81477E+02 
  44876.6646     0.81277E+02 
  44908.9267     0.81076E+02 
  44941.1889     0.80873E+02 
  44973.4510     0.80668E+02 
  45005.7132     0.80462E+02 
  45037.9754     0.80254E+02 
  45070.2375     0.80044E+02 
  45102.4997     0.79834E+02 
  45134.7618     0.79621E+02 
  45167.0240     0.79407E+02 
  45199.2862     0.79192E+02 
  45231.5483     0.78975E+02 
  45263.8105     0.78757E+02 
  45296.0726     0.78538E+02 
  45328.3348     0.78317E+02 
  45360.5970     0.78095E+02 
  45392.8591     0.77871E+02 
  45425.1213     0.77646E+02 
  45457.3834     0.77420E+02 
  45489.6456     0.77193E+02 
  45521.9078     0.76964E+02 
  45554.1699     0.76734E+02 
  45586.4321     0.76503E+02 
  45618.6942     0.76271E+02 
  45650.9564     0.76037E+02 
  45683.2186     0.75802E+02 
  45715.4807     0.75566E+02 
  45747.7429     0.75329E+02 
  45780.0050     0.75091E+02 
  45812.2672     0.74852E+02 
  45844.5294     0.74612E+02 
  45876.7915     0.74371E+02 
  45909.0537     0.74128E+02 
  45941.3158     0.73885E+02 
  45973.5780     0.73640E+02 
  46005.8402     0.73395E+02 
  46038.1023     0.73149E+02 
  46070.3645     0.72902E+02 
  46102.6266     0.72653E+02 
  46134.8888     0.72404E+02 
  46167.1510     0.72154E+02 
  46199.4131     0.71903E+02 
  46231.6753     0.71652E+02 
  46263.9374     0.71399E+02 
  46296.1996     0.71146E+02 
  46328.4618     0.70892E+02 
  46360.7239     0.70637E+02 
  46392.9861     0.70381E+02 
  46425.2482     0.70125E+02 
  46457.5104     0.69868E+02 
  46489.7726     0.69610E+02 
  46522.0347     0.69351E+02 
  46554.2969     0.69092E+02 
  46586.5590     0.68832E+02 
  46618.8212     0.68572E+02 
  46651.0834     0.68311E+02 
  46683.3455     0.68049E+02 
  46715.6077     0.67787E+02 
  46747.8698     0.67524E+02 
  46780.1320     0.67260E+02 
  46812.3942     0.66996E+02 
  46844.6563     0.66732E+02 
  46876.9185     0.66467E+02 
  46909.1806     0.66201E+02 
  46941.4428     0.65935E+02 
  46973.7050     0.65669E+02 
  47005.9671     0.65402E+02 
  47038.2293     0.65135E+02 
  47070.4914     0.64867E+02 
  47102.7536     0.64599E+02 
  47135.0158     0.64331E+02 
  47167.2779     0.64062E+02 
  47199.5401     0.63793E+02 
  47231.8022     0.63524E+02 
  47264.0644     0.63254E+02 
  47296.3266     0.62984E+02 
  47328.5887     0.62714E+02 
  47360.8509     0.62443E+02 
  47393.1130     0.62173E+02 
  47425.3752     0.61902E+02 
  47457.6374     0.61630E+02 
  47489.8995     0.61359E+02 
  47522.1617     0.61088E+02 
  47554.4238     0.60816E+02 
  47586.6860     0.60544E+02 
  47618.9482     0.60272E+02 
  47651.2103     0.60000E+02 
  47683.4725     0.59728E+02 
  47715.7346     0.59455E+02 
  47747.9968     0.59183E+02 
  47780.2590     0.58910E+02 
  47812.5211     0.58638E+02 
  47844.7833     0.58365E+02 
  47877.0454     0.58093E+02 
  47909.3076     0.57820E+02 
  47941.5698     0.57548E+02 
  47973.8319     0.57275E+02 
  48006.0941     0.57003E+02 
  48038.3562     0.56730E+02 
  48070.6184     0.56458E+02 
  48102.8806     0.56186E+02 
  48135.1427     0.55913E+02 
  48167.4049     0.55641E+02 
  48199.6670     0.55369E+02 
  48231.9292     0.55098E+02 
  48264.1914     0.54826E+02 
  48296.4535     0.54554E+02 
  48328.7157     0.54283E+02 
  48360.9778     0.54012E+02 
  48393.2400     0.53741E+02 
  48425.5022     0.53470E+02 
  48457.7643     0.53199E+02 
  48490.0265     0.52929E+02 
  48522.2886     0.52659E+02 
  48554.5508     0.52389E+02 
  48586.8130     0.52119E+02 
  48619.0751     0.51850E+02 
  48651.3373     0.51581E+02 
  48683.5994     0.51312E+02 
  48715.8616     0.51043E+02 
  48748.1238     0.50775E+02 
  48780.3859     0.50508E+02 
  48812.6481     0.50240E+02 
  48844.9102     0.49973E+02 
  48877.1724     0.49706E+02 
  48909.4346     0.49440E+02 
  48941.6967     0.49174E+02 
  48973.9589     0.48908E+02 
  49006.2210     0.48643E+02 
  49038.4832     0.48378E+02 
  49070.7454     0.48114E+02 
  49103.0075     0.47850E+02 
  49135.2697     0.47586E+02 
  49167.5318     0.47323E+02 
  49199.7940     0.47061E+02 
  49232.0562     0.46799E+02 
  49264.3183     0.46537E+02 
  49296.5805     0.46276E+02 
  49328.8426     0.46015E+02 
  49361.1048     0.45755E+02 
  49393.3670     0.45496E+02 
  49425.6291     0.45237E+02 
  49457.8913     0.44978E+02 
  49490.1534     0.44720E+02 
  49522.4156     0.44463E+02 
  49554.6778     0.44206E+02 
  49586.9399     0.43950E+02 
  49619.2021     0.43694E+02 
  49651.4642     0.43439E+02 
  49683.7264     0.43184E+02 
  49715.9886     0.42930E+02 
  49748.2507     0.42677E+02 
  49780.5129     0.42424E+02 
  49812.7750     0.42172E+02 
  49845.0372     0.41920E+02 
  49877.2994     0.41670E+02 
  49909.5615     0.41419E+02 
  49941.8237     0.41170E+02 
  49974.0858     0.40921E+02 
  50006.3480     0.40673E+02 
  50038.6102     0.40425E+02 
  50070.8723     0.40178E+02 
  50103.1345     0.39932E+02 
  50135.3966     0.39687E+02 
  50167.6588     0.39442E+02 
  50199.9210     0.39198E+02 
  50232.1831     0.38954E+02 
  50264.4453     0.38712E+02 
  50296.7074     0.38470E+02 
  50328.9696     0.38228E+02 
  50361.2318     0.37988E+02 
  50393.4939     0.37748E+02 
  50425.7561     0.37509E+02 
  50458.0182     0.37271E+02 
  50490.2804     0.37033E+02 
  50522.5426     0.36796E+02 
  50554.8047     0.36560E+02 
  50587.0669     0.36325E+02 
  50619.3290     0.36091E+02 
  50651.5912     0.35857E+02 
  50683.8534     0.35624E+02 
  50716.1155     0.35392E+02 
  50748.3777     0.35161E+02 
  50780.6398     0.34930E+02 
  50812.9020     0.34700E+02 
  50845.1642     0.34471E+02 
  50877.4263     0.34243E+02 
  50909.6885     0.34016E+02 
  50941.9506     0.33790E+02 
  50974.2128     0.33564E+02 
  51006.4750     0.33339E+02 
  51038.7371     0.33115E+02 
  51070.9993     0.32892E+02 
  51103.2614     0.32669E+02 
  51135.5236     0.32448E+02 
  51167.7858     0.32227E+02 
  51200.0479     0.32007E+02 
  51232.3101     0.31788E+02 
  51264.5722     0.31570E+02 
  51296.8344     0.31353E+02 
  51329.0966     0.31136E+02 
  51361.3587     0.30921E+02 
  51393.6209     0.30706E+02 
  51425.8830     0.30492E+02 
  51458.1452     0.30279E+02 
  51490.4074     0.30067E+02 
  51522.6695     0.29856E+02 
  51554.9317     0.29645E+02 
  51587.1938     0.29436E+02 
  51619.4560     0.29227E+02 
  51651.7182     0.29019E+02 
  51683.9803     0.28812E+02 
  51716.2425     0.28606E+02 
  51748.5046     0.28401E+02 
  51780.7668     0.28197E+02 
  51813.0290     0.27993E+02 
  51845.2911     0.27791E+02 
  51877.5533     0.27589E+02 
  51909.8154     0.27388E+02 
  51942.0776     0.27189E+02 
  51974.3398     0.26990E+02 
  52006.6019     0.26792E+02 
  52038.8641     0.26594E+02 
  52071.1262     0.26398E+02 
  52103.3884     0.26203E+02 
  52135.6506     0.26008E+02 
  52167.9127     0.25815E+02 
  52200.1749     0.25622E+02 
  52232.4370     0.25430E+02 
  52264.6992     0.25239E+02 
  52296.9614     0.25049E+02 
  52329.2235     0.24860E+02 
  52361.4857     0.24672E+02 
  52393.7478     0.24485E+02 
  52426.0100     0.24299E+02 
  52458.2722     0.24113E+02 
  52490.5343     0.23928E+02 
  52522.7965     0.23745E+02 
  52555.0586     0.23562E+02 
  52587.3208     0.23380E+02 
  52619.5830     0.23199E+02 
  52651.8451     0.23019E+02 
  52684.1073     0.22840E+02 
  52716.3694     0.22662E+02 
  52748.6316     0.22484E+02 
  52780.8938     0.22308E+02 
  52813.1559     0.22132E+02 
  52845.4181     0.21957E+02 
  52877.6802     0.21784E+02 
  52909.9424     0.21611E+02 
  52942.2046     0.21439E+02 
  52974.4667     0.21268E+02 
  53006.7289     0.21098E+02 
  53038.9910     0.20928E+02 
  53071.2532     0.20760E+02 
  53103.5154     0.20592E+02 
  53135.7775     0.20426E+02 
  53168.0397     0.20260E+02 
  53200.3018     0.20095E+02 
  53232.5640     0.19931E+02 
  53264.8262     0.19768E+02 
  53297.0883     0.19606E+02 
  53329.3505     0.19444E+02 
  53361.6126     0.19284E+02 
  53393.8748     0.19124E+02 
  53426.1370     0.18966E+02 
  53458.3991     0.18808E+02 
  53490.6613     0.18651E+02 
  53522.9234     0.18495E+02 
  53555.1856     0.18340E+02 
  53587.4478     0.18186E+02 
  53619.7099     0.18032E+02 
  53651.9721     0.17880E+02 
  53684.2342     0.17728E+02 
  53716.4964     0.17577E+02 
  53748.7586     0.17427E+02 
  53781.0207     0.17278E+02 
  53813.2829     0.17130E+02 
  53845.5450     0.16982E+02 
  53877.8072     0.16836E+02 
  53910.0694     0.16690E+02 
  53942.3315     0.16545E+02 
  53974.5937     0.16401E+02 
  54006.8558     0.16258E+02 
  54039.1180     0.16116E+02 
  54071.3802     0.15975E+02 
  54103.6423     0.15834E+02 
  54135.9045     0.15694E+02 
  54168.1666     0.15555E+02 
  54200.4288     0.15417E+02 
  54232.6910     0.15280E+02 
  54264.9531     0.15143E+02 
  54297.2153     0.15008E+02 
  54329.4774     0.14873E+02 
  54361.7396     0.14739E+02 
  54394.0018     0.14606E+02 
  54426.2639     0.14474E+02 
  54458.5261     0.14342E+02 
  54490.7882     0.14212E+02 
  54523.0504     0.14082E+02 
  54555.3126     0.13953E+02 
  54587.5747     0.13824E+02 
  54619.8369     0.13697E+02 
  54652.0990     0.13570E+02 
  54684.3612     0.13444E+02 
  54716.6234     0.13319E+02 
  54748.8855     0.13195E+02 
  54781.1477     0.13072E+02 
  54813.4098     0.12949E+02 
  54845.6720     0.12827E+02 
  54877.9342     0.12706E+02 
  54910.1963     0.12586E+02 
  54942.4585     0.12466E+02 
  54974.7206     0.12347E+02 
  55006.9828     0.12229E+02 
  55039.2450     0.12112E+02 
  55071.5071     0.11996E+02 
  55103.7693     0.11880E+02 
  55136.0314     0.11765E+02 
  55168.2936     0.11651E+02 
  55200.5558     0.11537E+02 
  55232.8179     0.11425E+02 
  55265.0801     0.11313E+02 
  55297.3422     0.11201E+02 
  55329.6044     0.11091E+02 
  55361.8666     0.10981E+02 
  55394.1287     0.10872E+02 
  55426.3909     0.10764E+02 
  55458.6530     0.10656E+02 
  55490.9152     0.10550E+02 
  55523.1774     0.10444E+02 
  55555.4395     0.10338E+02 
  55587.7017     0.10234E+02 
  55619.9638     0.10130E+02 
  55652.2260     0.10026E+02 
  55684.4882     0.99240E+01 
  55716.7503     0.98222E+01 
  55749.0125     0.97211E+01 
  55781.2746     0.96208E+01 
  55813.5368     0.95211E+01 
  55845.7990     0.94221E+01 
  55878.0611     0.93238E+01 
  55910.3233     0.92262E+01 
  55942.5854     0.91293E+01 
  55974.8476     0.90331E+01 
  56007.1098     0.89375E+01 
  56039.3719     0.88426E+01 
  56071.6341     0.87484E+01 
  56103.8962     0.86549E+01 
  56136.1584     0.85620E+01 
  56168.4206     0.84698E+01 
  56200.6827     0.83783E+01 
  56232.9449     0.82874E+01 
  56265.2070     0.81972E+01 
  56297.4692     0.81076E+01 
  56329.7314     0.80187E+01 
  56361.9935     0.79304E+01 
  56394.2557     0.78428E+01 
  56426.5178     0.77558E+01 
  56458.7800     0.76695E+01 
  56491.0422     0.75838E+01 
  56523.3043     0.74987E+01 
  56555.5665     0.74142E+01 
  56587.8286     0.73304E+01 
  56620.0908     0.72472E+01 
  56652.3530     0.71646E+01 
  56684.6151     0.70826E+01 
  56716.8773     0.70012E+01 
  56749.1394     0.69205E+01 
  56781.4016     0.68403E+01 
  56813.6638     0.67608E+01 
  56845.9259     0.66819E+01 
  56878.1881     0.66035E+01 
  56910.4502     0.65258E+01 
  56942.7124     0.64486E+01 
  56974.9746     0.63721E+01 
  57007.2367     0.62961E+01 
  57039.4989     0.62207E+01 
  57071.7610     0.61459E+01 
  57104.0232     0.60717E+01 
  57136.2854     0.59980E+01 
  57168.5475     0.59249E+01 
  57200.8097     0.58524E+01 
  57233.0718     0.57805E+01 
  57265.3340     0.57091E+01 
  57297.5962     0.56383E+01 
  57329.8583     0.55680E+01 
  57362.1205     0.54983E+01 
  57394.3826     0.54292E+01 
  57426.6448     0.53606E+01 
  57458.9070     0.52925E+01 
  57491.1691     0.52250E+01 
  57523.4313     0.51580E+01 
  57555.6934     0.50916E+01 
  57587.9556     0.50257E+01 
  57620.2178     0.49603E+01 
  57652.4799     0.48955E+01 
  57684.7421     0.48312E+01 
  57717.0042     0.47674E+01 
  57749.2664     0.47042E+01 
  57781.5286     0.46414E+01 
  57813.7907     0.45792E+01 
  57846.0529     0.45175E+01 
  57878.3150     0.44563E+01 
  57910.5772     0.43956E+01 
  57942.8394     0.43355E+01 
  57975.1015     0.42758E+01 
  58007.3637     0.42166E+01 
  58039.6258     0.41579E+01 
  58071.8880     0.40998E+01 
  58104.1502     0.40421E+01 
  58136.4123     0.39849E+01 
  58168.6745     0.39282E+01 
  58200.9366     0.38720E+01 
  58233.1988     0.38163E+01 
  58265.4610     0.37610E+01 
  58297.7231     0.37063E+01 
  58329.9853     0.36520E+01 
  58362.2474     0.35982E+01 
  58394.5096     0.35448E+01 
  58426.7718     0.34920E+01 
  58459.0339     0.34396E+01 
  58491.2961     0.33876E+01 
  58523.5582     0.33362E+01 
  58555.8204     0.32852E+01 
  58588.0826     0.32346E+01 
  58620.3447     0.31845E+01 
  58652.6069     0.31349E+01 
  58684.8690     0.30857E+01 
  58717.1312     0.30370E+01 
  58749.3934     0.29887E+01 
  58781.6555     0.29409E+01 
  58813.9177     0.28935E+01 
  58846.1798     0.28465E+01 
  58878.4420     0.28000E+01 
  58910.7042     0.27539E+01 
  58942.9663     0.27083E+01 
  58975.2285     0.26631E+01 
  59007.4906     0.26183E+01 
  59039.7528     0.25740E+01 
  59072.0150     0.25301E+01 
  59104.2771     0.24866E+01 
  59136.5393     0.24436E+01 
  59168.8014     0.24009E+01 
  59201.0636     0.23587E+01 
  59233.3258     0.23169E+01 
  59265.5879     0.22756E+01 
  59297.8501     0.22346E+01 
  59330.1122     0.21941E+01 
  59362.3744     0.21540E+01 
  59394.6366     0.21142E+01 
  59426.8987     0.20749E+01 
  59459.1609     0.20360E+01 
  59491.4230     0.19976E+01 
  59523.6852     0.19595E+01 
  59555.9474     0.19218E+01 
  59588.2095     0.18845E+01 
  59620.4717     0.18477E+01 
  59652.7338     0.18112E+01 
  59684.9960     0.17751E+01 
  59717.2582     0.17394E+01 
  59749.5203     0.17042E+01 
  59781.7825     0.16693E+01 
  59814.0446     0.16348E+01 
  59846.3068     0.16007E+01 
  59878.5690     0.15670E+01 
  59910.8311     0.15336E+01 
  59943.0933     0.15007E+01 
  59975.3554     0.14682E+01 
  60007.6176     0.14360E+01 
  60039.8798     0.14043E+01 
  60072.1419     0.13729E+01 
  60104.4041     0.13419E+01 
  60136.6662     0.13113E+01 
  60168.9284     0.12810E+01 
  60201.1906     0.12512E+01 
  60233.4527     0.12217E+01 
  60265.7149     0.11926E+01 
  60297.9770     0.11639E+01 
  60330.2392     0.11356E+01 
  60362.5014     0.11076E+01 
  60394.7635     0.10800E+01 
  60427.0257     0.10528E+01 
  60459.2878     0.10260E+01 
  60491.5500     0.99957E+00 
  60523.8122     0.97350E+00 
  60556.0743     0.94781E+00 
  60588.3365     0.92249E+00 
  60620.5986     0.89754E+00 
  60652.8608     0.87297E+00 
  60685.1230     0.84877E+00 
  60717.3851     0.82495E+00 
  60749.6473     0.80150E+00 
  60781.9094     0.77842E+00 
  60814.1716     0.75572E+00 
  60846.4338     0.73339E+00 
  60878.6959     0.71144E+00 
  60910.9581     0.68986E+00 
  60943.2202     0.66865E+00 
  60975.4824     0.64782E+00 
  61007.7446     0.62736E+00 
  61040.0067     0.60728E+00 
  61072.2689     0.58757E+00 
  61104.5310     0.56824E+00 
  61136.7932     0.54928E+00 
  61169.0554     0.53071E+00 
  61201.3175     0.51251E+00 
  61233.5797     0.49468E+00 
  61265.8418     0.47724E+00 
  61298.1040     0.46018E+00 
  61330.3662     0.44349E+00 
  61362.6283     0.42719E+00 
  61394.8905     0.41127E+00 
  61427.1526     0.39573E+00 
  61459.4148     0.38058E+00 
  61491.6770     0.36581E+00 
  61523.9391     0.35143E+00 
  61556.2013     0.33743E+00 
  61588.4634     0.32383E+00 
  61620.7256     0.31062E+00 
  61652.9878     0.29779E+00 
  61685.2499     0.28537E+00 
  61717.5121     0.27333E+00 
  61749.7742     0.26170E+00 
  61782.0364     0.25046E+00 
  61814.2986     0.23962E+00 
  61846.5607     0.22919E+00 
  61878.8229     0.21916E+00 
  61911.0850     0.20953E+00 
  61943.3472     0.20032E+00 
  61975.6094     0.19151E+00 
  62007.8715     0.18312E+00 
  62040.1337     0.17514E+00 
  62072.3958     0.16758E+00 
  62104.6580     0.16045E+00 
  62136.9202     0.15373E+00 
  62169.1823     0.14744E+00 
  62201.4445     0.14158E+00 
  62233.7066     0.13615E+00 
  62265.9688     0.13116E+00 
  62298.2310     0.12660E+00 
  62330.4931     0.12249E+00 
  62362.7553     0.11882E+00 
  62395.0174     0.11559E+00 
  62427.2796     0.11282E+00 
  62459.5418     0.11051E+00 
  62491.8039     0.10865E+00 
  62524.0661     0.10725E+00 
  62556.3282     0.10633E+00 
  62588.5904     0.10587E+00 
  62620.8526     0.10589E+00 
  62653.1147     0.10638E+00 
  62685.3769     0.10737E+00 
  62717.6390     0.10883E+00 
  62749.9012     0.11080E+00 
  62782.1634     0.11326E+00 
  62814.4255     0.11622E+00 
  62846.6877     0.11969E+00 
  62878.9498     0.12368E+00 
  62911.2120     0.12818E+00 
  62943.4742     0.13321E+00 
  62975.7363     0.13877E+00 
  63007.9985     0.14486E+00 
  63040.2606     0.15149E+00 
  63072.5228     0.15868E+00 
  63104.7850     0.16642E+00 
  63137.0471     0.17471E+00 
  63169.3093     0.18358E+00 
  63201.5714     0.19302E+00 
  63233.8336     0.20304E+00 
  63266.0958     0.21365E+00 
  63298.3579     0.22485E+00 
  63330.6201     0.23666E+00 
  63362.8822     0.24907E+00 
  63395.1444     0.26211E+00 
  63427.4066     0.27577E+00 
  63459.6687     0.29007E+00 
  63491.9309     0.30501E+00 
  63524.1930     0.32060E+00 
  63556.4552     0.33685E+00 
  63588.7174     0.35377E+00 
  63620.9795     0.37137E+00 
  63653.2417     0.38966E+00 
  63685.5038     0.40865E+00 
  63717.7660     0.42835E+00 
  63750.0282     0.44876E+00 
  63782.2903     0.46990E+00 
  63814.5525     0.49178E+00 
  63846.8146     0.51441E+00 
  63879.0768     0.53781E+00 
  63911.3390     0.56197E+00 
  63943.6011     0.58692E+00 
  63975.8633     0.61267E+00 
  64008.1254     0.63922E+00 
  64040.3876     0.66660E+00 
  64072.6498     0.69481E+00 
  64104.9119     0.72386E+00 
  64137.1741     0.75378E+00 
  64169.4362     0.78457E+00 
  64201.6984     0.81624E+00 
  64233.9606     0.84882E+00 
  64266.2227     0.88231E+00 
  64298.4849     0.91674E+00 
  64330.7470     0.95211E+00 
  64363.0092     0.98844E+00 
  64395.2714     0.10257E+01 
  64427.5335     0.10641E+01 
  64459.7957     0.11034E+01 
  64492.0578     0.11437E+01 
  64524.3200     0.11851E+01 
  64556.5822     0.12275E+01 
  64588.8443     0.12711E+01 
  64621.1065     0.13157E+01 
  64653.3686     0.13614E+01 
  64685.6308     0.14083E+01 
  64717.8930     0.14563E+01 
  64750.1551     0.15055E+01 
  64782.4173     0.15560E+01 
  64814.6794     0.16076E+01 
  64846.9416     0.16604E+01 
  64879.2038     0.17145E+01 
  64911.4659     0.17699E+01 
  64943.7281     0.18267E+01 
  64975.9902     0.18847E+01 
  65008.2524     0.19441E+01 
  65040.5146     0.20048E+01 
  65072.7767     0.20670E+01 
  65105.0389     0.21306E+01 
  65137.3010     0.21956E+01 
  65169.5632     0.22621E+01 
  65201.8254     0.23301E+01 
  65234.0875     0.23996E+01 
  65266.3497     0.24707E+01 
  65298.6118     0.25434E+01 
  65330.8740     0.26177E+01 
  65363.1362     0.26936E+01 
  65395.3983     0.27712E+01 
  65427.6605     0.28505E+01 
  65459.9226     0.29316E+01 
  65492.1848     0.30144E+01 
  65524.4470     0.30990E+01 
  65556.7091     0.31854E+01 
  65588.9713     0.32737E+01 
  65621.2334     0.33639E+01 
  65653.4956     0.34560E+01 
  65685.7578     0.35501E+01 
  65718.0199     0.36462E+01 
  65750.2821     0.37443E+01 
  65782.5442     0.38446E+01 
  65814.8064     0.39469E+01 
  65847.0686     0.40514E+01 
  65879.3307     0.41580E+01 
  65911.5929     0.42670E+01 
  65943.8550     0.43781E+01 
  65976.1172     0.44916E+01 
  66008.3794     0.46075E+01 
  66040.6415     0.47258E+01 
  66072.9037     0.48465E+01 
  66105.1658     0.49697E+01 
  66137.4280     0.50954E+01 
  66169.6902     0.52238E+01 
  66201.9523     0.53547E+01 
  66234.2145     0.54883E+01 
  66266.4766     0.56247E+01 
  66298.7388     0.57638E+01 
  66331.0010     0.59058E+01 
  66363.2631     0.60506E+01 
  66395.5253     0.61984E+01 
  66427.7874     0.63492E+01 
  66460.0496     0.65030E+01 
  66492.3118     0.66599E+01 
  66524.5739     0.68199E+01 
  66556.8361     0.69832E+01 
  66589.0982     0.71497E+01 
  66621.3604     0.73195E+01 
  66653.6226     0.74928E+01 
  66685.8847     0.76694E+01 
  66718.1469     0.78496E+01 
  66750.4090     0.80334E+01 
  66782.6712     0.82208E+01 
  66814.9334     0.84118E+01 
  66847.1955     0.86067E+01 
  66879.4577     0.88054E+01 
  66911.7198     0.90079E+01 
  66943.9820     0.92145E+01 
  66976.2442     0.94251E+01 
  67008.5063     0.96398E+01 
  67040.7685     0.98587E+01 
  67073.0306     0.10082E+02 
  67105.2928     0.10309E+02 
  67137.5550     0.10541E+02 
  67169.8171     0.10778E+02 
  67202.0793     0.11018E+02 
  67234.3414     0.11264E+02 
  67266.6036     0.11514E+02 
  67298.8658     0.11769E+02 
  67331.1279     0.12029E+02 
  67363.3901     0.12294E+02 
  67395.6522     0.12564E+02 
  67427.9144     0.12839E+02 
  67460.1766     0.13120E+02 
  67492.4387     0.13406E+02 
  67524.7009     0.13697E+02 
  67556.9630     0.13993E+02 
  67589.2252     0.14295E+02 
  67621.4874     0.14603E+02 
  67653.7495     0.14917E+02 
  67686.0117     0.15237E+02 
  67718.2738     0.15562E+02 
  67750.5360     0.15894E+02 
  67782.7982     0.16231E+02 
  67815.0603     0.16575E+02 
  67847.3225     0.16926E+02 
  67879.5846     0.17283E+02 
  67911.8468     0.17646E+02 
  67944.1090     0.18016E+02 
  67976.3711     0.18393E+02 
  68008.6333     0.18777E+02 
  68040.8954     0.19168E+02 
  68073.1576     0.19566E+02 
  68105.4198     0.19972E+02 
  68137.6819     0.20384E+02 
  68169.9441     0.20805E+02 
  68202.2062     0.21232E+02 
  68234.4684     0.21668E+02 
  68266.7306     0.22111E+02 
  68298.9927     0.22563E+02 
  68331.2549     0.23022E+02 
  68363.5170     0.23490E+02 
  68395.7792     0.23965E+02 
  68428.0414     0.24450E+02 
  68460.3035     0.24943E+02 
  68492.5657     0.25445E+02 
  68524.8278     0.25955E+02 
  68557.0900     0.26475E+02 
  68589.3522     0.27003E+02 
  68621.6143     0.27541E+02 
  68653.8765     0.28089E+02 
  68686.1386     0.28645E+02 
  68718.4008     0.29212E+02 
  68750.6630     0.29788E+02 
  68782.9251     0.30375E+02 
  68815.1873     0.30971E+02 
  68847.4494     0.31578E+02 
  68879.7116     0.32195E+02 
  68911.9738     0.32822E+02 
  68944.2359     0.33460E+02 
  68976.4981     0.34109E+02 
  69008.7602     0.34770E+02 
  69041.0224     0.35441E+02 
  69073.2846     0.36123E+02 
  69105.5467     0.36817E+02 
  69137.8089     0.37523E+02 
  69170.0710     0.38240E+02 
  69202.3332     0.38969E+02 
  69234.5954     0.39710E+02 
  69266.8575     0.40464E+02 
  69299.1197     0.41230E+02 
  69331.3818     0.42009E+02 
  69363.6440     0.42800E+02 
  69395.9062     0.43604E+02 
  69428.1683     0.44421E+02 
  69460.4305     0.45252E+02 
  69492.6926     0.46095E+02 
  69524.9548     0.46953E+02 
  69557.2170     0.47824E+02 
  69589.4791     0.48709E+02 
  69621.7413     0.49608E+02 
  69654.0034     0.50522E+02 
  69686.2656     0.51450E+02 
  69718.5278     0.52392E+02 
  69750.7899     0.53349E+02 
  69783.0521     0.54322E+02 
  69815.3142     0.55309E+02 
  69847.5764     0.56312E+02 
  69879.8386     0.57330E+02 
  69912.1007     0.58364E+02 
  69944.3629     0.59414E+02 
  69976.6250     0.60480E+02 
  70008.8872     0.61562E+02 
  70041.1494     0.62661E+02 
  70073.4115     0.63776E+02 
  70105.6737     0.64908E+02 
  70137.9358     0.66057E+02 
  70170.1980     0.67223E+02 
  70202.4602     0.68406E+02 
  70234.7223     0.69608E+02 
  70266.9845     0.70826E+02 
  70299.2466     0.72063E+02 
  70331.5088     0.73318E+02 
  70363.7710     0.74591E+02 
  70396.0331     0.75883E+02 
  70428.2953     0.77193E+02 
  70460.5574     0.78522E+02 
  70492.8196     0.79870E+02 
  70525.0818     0.81238E+02 
  70557.3439     0.82625E+02 
  70589.6061     0.84031E+02 
  70621.8682     0.85458E+02 
  70654.1304     0.86904E+02 
  70686.3926     0.88371E+02 
  70718.6547     0.89858E+02 
  70750.9169     0.91365E+02 
  70783.1790     0.92894E+02 
  70815.4412     0.94443E+02 
  70847.7034     0.96014E+02 
  70879.9655     0.97605E+02 
  70912.2277     0.99219E+02 
  70944.4898     0.10085E+03 
  70976.7520     0.10251E+03 
  71009.0142     0.10419E+03 
  71041.2763     0.10589E+03 
  71073.5385     0.10762E+03 
  71105.8006     0.10936E+03 
  71138.0628     0.11113E+03 
  71170.3250     0.11292E+03 
  71202.5871     0.11474E+03 
  71234.8493     0.11658E+03 
  71267.1114     0.11844E+03 
  71299.3736     0.12033E+03 
  71331.6358     0.12224E+03 
  71363.8979     0.12417E+03 
  71396.1601     0.12613E+03 
  71428.4222     0.12811E+03 
  71460.6844     0.13012E+03 
  71492.9466     0.13216E+03 
  71525.2087     0.13421E+03 
  71557.4709     0.13630E+03 
  71589.7330     0.13840E+03 
  71621.9952     0.14054E+03 
  71654.2574     0.14270E+03 
  71686.5195     0.14488E+03 
  71718.7817     0.14709E+03 
  71751.0438     0.14933E+03 
  71783.3060     0.15160E+03 
  71815.5682     0.15389E+03 
  71847.8303     0.15620E+03 
  71880.0925     0.15855E+03 
  71912.3546     0.16092E+03 
  71944.6168     0.16331E+03 
  71976.8790     0.16574E+03 
  72009.1411     0.16819E+03 
  72041.4033     0.17067E+03 
  72073.6654     0.17318E+03 
  72105.9276     0.17571E+03 
  72138.1898     0.17828E+03 
  72170.4519     0.18087E+03 
  72202.7141     0.18349E+03 
  72234.9762     0.18614E+03 
  72267.2384     0.18881E+03 
  72299.5006     0.19152E+03 
  72331.7627     0.19425E+03 
  72364.0249     0.19702E+03 
  72396.2870     0.19981E+03 
  72428.5492     0.20263E+03 
  72460.8114     0.20548E+03 
  72493.0735     0.20836E+03 
  72525.3357     0.21127E+03 
  72557.5978     0.21420E+03 
  72589.8600     0.21717E+03 
