  32262.1600     0.38711E+02 
  32294.4222     0.39128E+02 
  32326.6843     0.39547E+02 
  32358.9465     0.39970E+02 
  32391.2086     0.40395E+02 
  32423.4708     0.40823E+02 
  32455.7330     0.41255E+02 
  32487.9951     0.41689E+02 
  32520.2573     0.42126E+02 
  32552.5194     0.42566E+02 
  32584.7816     0.43009E+02 
  32617.0438     0.43455E+02 
  32649.3059     0.43904E+02 
  32681.5681     0.44356E+02 
  32713.8302     0.44811E+02 
  32746.0924     0.45268E+02 
  32778.3546     0.45729E+02 
  32810.6167     0.46192E+02 
  32842.8789     0.46659E+02 
  32875.1410     0.47128E+02 
  32907.4032     0.47600E+02 
  32939.6654     0.48076E+02 
  32971.9275     0.48554E+02 
  33004.1897     0.49035E+02 
  33036.4518     0.49518E+02 
  33068.7140     0.50005E+02 
  33100.9762     0.50495E+02 
  33133.2383     0.50987E+02 
  33165.5005     0.51483E+02 
  33197.7626     0.51981E+02 
  33230.0248     0.52482E+02 
  33262.2870     0.52986E+02 
  33294.5491     0.53493E+02 
  33326.8113     0.54002E+02 
  33359.0734     0.54515E+02 
  33391.3356     0.55030E+02 
  33423.5978     0.55548E+02 
  33455.8599     0.56069E+02 
  33488.1221     0.56592E+02 
  33520.3842     0.57119E+02 
  33552.6464     0.57648E+02 
  33584.9086     0.58179E+02 
  33617.1707     0.58714E+02 
  33649.4329     0.59251E+02 
  33681.6950     0.59791E+02 
  33713.9572     0.60334E+02 
  33746.2194     0.60880E+02 
  33778.4815     0.61428E+02 
  33810.7437     0.61978E+02 
  33843.0058     0.62532E+02 
  33875.2680     0.63088E+02 
  33907.5302     0.63647E+02 
  33939.7923     0.64208E+02 
  33972.0545     0.64772E+02 
  34004.3166     0.65338E+02 
  34036.5788     0.65907E+02 
  34068.8410     0.66479E+02 
  34101.1031     0.67053E+02 
  34133.3653     0.67629E+02 
  34165.6274     0.68208E+02 
  34197.8896     0.68790E+02 
  34230.1518     0.69374E+02 
  34262.4139     0.69960E+02 
  34294.6761     0.70549E+02 
  34326.9382     0.71140E+02 
  34359.2004     0.71734E+02 
  34391.4626     0.72330E+02 
  34423.7247     0.72929E+02 
  34455.9869     0.73529E+02 
  34488.2490     0.74132E+02 
  34520.5112     0.74737E+02 
  34552.7734     0.75345E+02 
  34585.0355     0.75955E+02 
  34617.2977     0.76567E+02 
  34649.5598     0.77181E+02 
  34681.8220     0.77797E+02 
  34714.0842     0.78416E+02 
  34746.3463     0.79037E+02 
  34778.6085     0.79659E+02 
  34810.8706     0.80284E+02 
  34843.1328     0.80911E+02 
  34875.3950     0.81540E+02 
  34907.6571     0.82171E+02 
  34939.9193     0.82804E+02 
  34972.1814     0.83439E+02 
  35004.4436     0.84076E+02 
  35036.7058     0.84714E+02 
  35068.9679     0.85355E+02 
  35101.2301     0.85997E+02 
  35133.4922     0.86642E+02 
  35165.7544     0.87288E+02 
  35198.0166     0.87936E+02 
  35230.2787     0.88585E+02 
  35262.5409     0.89237E+02 
  35294.8030     0.89890E+02 
  35327.0652     0.90544E+02 
  35359.3274     0.91201E+02 
  35391.5895     0.91859E+02 
  35423.8517     0.92518E+02 
  35456.1138     0.93179E+02 
  35488.3760     0.93842E+02 
  35520.6382     0.94506E+02 
  35552.9003     0.95171E+02 
  35585.1625     0.95838E+02 
  35617.4246     0.96507E+02 
  35649.6868     0.97176E+02 
  35681.9490     0.97847E+02 
  35714.2111     0.98519E+02 
  35746.4733     0.99193E+02 
  35778.7354     0.99868E+02 
  35810.9976     0.10054E+03 
  35843.2598     0.10122E+03 
  35875.5219     0.10190E+03 
  35907.7841     0.10258E+03 
  35940.0462     0.10326E+03 
  35972.3084     0.10394E+03 
  36004.5706     0.10462E+03 
  36036.8327     0.10531E+03 
  36069.0949     0.10599E+03 
  36101.3570     0.10668E+03 
  36133.6192     0.10736E+03 
  36165.8814     0.10805E+03 
  36198.1435     0.10874E+03 
  36230.4057     0.10943E+03 
  36262.6678     0.11011E+03 
  36294.9300     0.11080E+03 
  36327.1922     0.11149E+03 
  36359.4543     0.11219E+03 
  36391.7165     0.11288E+03 
  36423.9786     0.11357E+03 
  36456.2408     0.11426E+03 
  36488.5030     0.11496E+03 
  36520.7651     0.11565E+03 
  36553.0273     0.11634E+03 
  36585.2894     0.11704E+03 
  36617.5516     0.11773E+03 
  36649.8138     0.11843E+03 
  36682.0759     0.11912E+03 
  36714.3381     0.11982E+03 
  36746.6002     0.12051E+03 
  36778.8624     0.12121E+03 
  36811.1246     0.12190E+03 
  36843.3867     0.12260E+03 
  36875.6489     0.12329E+03 
  36907.9110     0.12399E+03 
  36940.1732     0.12469E+03 
  36972.4354     0.12538E+03 
  37004.6975     0.12608E+03 
  37036.9597     0.12677E+03 
  37069.2218     0.12747E+03 
  37101.4840     0.12816E+03 
  37133.7462     0.12885E+03 
  37166.0083     0.12955E+03 
  37198.2705     0.13024E+03 
  37230.5326     0.13093E+03 
  37262.7948     0.13163E+03 
  37295.0570     0.13232E+03 
  37327.3191     0.13301E+03 
  37359.5813     0.13370E+03 
  37391.8434     0.13439E+03 
  37424.1056     0.13508E+03 
  37456.3678     0.13577E+03 
  37488.6299     0.13646E+03 
  37520.8921     0.13714E+03 
  37553.1542     0.13783E+03 
  37585.4164     0.13851E+03 
  37617.6786     0.13920E+03 
  37649.9407     0.13988E+03 
  37682.2029     0.14056E+03 
  37714.4650     0.14125E+03 
  37746.7272     0.14193E+03 
  37778.9894     0.14261E+03 
  37811.2515     0.14328E+03 
  37843.5137     0.14396E+03 
  37875.7758     0.14463E+03 
  37908.0380     0.14531E+03 
  37940.3002     0.14598E+03 
  37972.5623     0.14665E+03 
  38004.8245     0.14732E+03 
  38037.0866     0.14799E+03 
  38069.3488     0.14866E+03 
  38101.6110     0.14932E+03 
  38133.8731     0.14999E+03 
  38166.1353     0.15065E+03 
  38198.3974     0.15131E+03 
  38230.6596     0.15197E+03 
  38262.9218     0.15262E+03 
  38295.1839     0.15328E+03 
  38327.4461     0.15393E+03 
  38359.7082     0.15458E+03 
  38391.9704     0.15523E+03 
  38424.2326     0.15588E+03 
  38456.4947     0.15652E+03 
  38488.7569     0.15717E+03 
  38521.0190     0.15781E+03 
  38553.2812     0.15845E+03 
  38585.5434     0.15908E+03 
  38617.8055     0.15972E+03 
  38650.0677     0.16035E+03 
  38682.3298     0.16098E+03 
  38714.5920     0.16161E+03 
  38746.8542     0.16223E+03 
  38779.1163     0.16286E+03 
  38811.3785     0.16348E+03 
  38843.6406     0.16410E+03 
  38875.9028     0.16471E+03 
  38908.1650     0.16532E+03 
  38940.4271     0.16593E+03 
  38972.6893     0.16654E+03 
  39004.9514     0.16715E+03 
  39037.2136     0.16775E+03 
  39069.4758     0.16835E+03 
  39101.7379     0.16895E+03 
  39134.0001     0.16954E+03 
  39166.2622     0.17013E+03 
  39198.5244     0.17072E+03 
  39230.7866     0.17130E+03 
  39263.0487     0.17188E+03 
  39295.3109     0.17246E+03 
  39327.5730     0.17304E+03 
  39359.8352     0.17361E+03 
  39392.0974     0.17418E+03 
  39424.3595     0.17475E+03 
  39456.6217     0.17531E+03 
  39488.8838     0.17587E+03 
  39521.1460     0.17643E+03 
  39553.4082     0.17698E+03 
  39585.6703     0.17753E+03 
  39617.9325     0.17808E+03 
  39650.1946     0.17862E+03 
  39682.4568     0.17916E+03 
  39714.7190     0.17970E+03 
  39746.9811     0.18023E+03 
  39779.2433     0.18076E+03 
  39811.5054     0.18128E+03 
  39843.7676     0.18181E+03 
  39876.0298     0.18232E+03 
  39908.2919     0.18284E+03 
  39940.5541     0.18335E+03 
  39972.8162     0.18386E+03 
  40005.0784     0.18436E+03 
  40037.3406     0.18486E+03 
  40069.6027     0.18536E+03 
  40101.8649     0.18585E+03 
  40134.1270     0.18634E+03 
  40166.3892     0.18682E+03 
  40198.6514     0.18730E+03 
  40230.9135     0.18777E+03 
  40263.1757     0.18825E+03 
  40295.4378     0.18871E+03 
  40327.7000     0.18918E+03 
  40359.9622     0.18964E+03 
  40392.2243     0.19009E+03 
  40424.4865     0.19054E+03 
  40456.7486     0.19099E+03 
  40489.0108     0.19143E+03 
  40521.2730     0.19187E+03 
  40553.5351     0.19231E+03 
  40585.7973     0.19274E+03 
  40618.0594     0.19316E+03 
  40650.3216     0.19358E+03 
  40682.5838     0.19400E+03 
  40714.8459     0.19441E+03 
  40747.1081     0.19482E+03 
  40779.3702     0.19523E+03 
  40811.6324     0.19563E+03 
  40843.8946     0.19602E+03 
  40876.1567     0.19641E+03 
  40908.4189     0.19680E+03 
  40940.6810     0.19718E+03 
  40972.9432     0.19755E+03 
  41005.2054     0.19792E+03 
  41037.4675     0.19829E+03 
  41069.7297     0.19865E+03 
  41101.9918     0.19901E+03 
  41134.2540     0.19937E+03 
  41166.5162     0.19971E+03 
  41198.7783     0.20006E+03 
  41231.0405     0.20040E+03 
  41263.3026     0.20073E+03 
  41295.5648     0.20106E+03 
  41327.8270     0.20138E+03 
  41360.0891     0.20170E+03 
  41392.3513     0.20202E+03 
  41424.6134     0.20233E+03 
  41456.8756     0.20263E+03 
  41489.1378     0.20293E+03 
  41521.3999     0.20323E+03 
  41553.6621     0.20352E+03 
  41585.9242     0.20381E+03 
  41618.1864     0.20409E+03 
  41650.4486     0.20436E+03 
  41682.7107     0.20463E+03 
  41714.9729     0.20490E+03 
  41747.2350     0.20516E+03 
  41779.4972     0.20541E+03 
  41811.7594     0.20566E+03 
  41844.0215     0.20591E+03 
  41876.2837     0.20615E+03 
  41908.5458     0.20638E+03 
  41940.8080     0.20661E+03 
  41973.0702     0.20684E+03 
  42005.3323     0.20706E+03 
  42037.5945     0.20727E+03 
  42069.8566     0.20748E+03 
  42102.1188     0.20769E+03 
  42134.3810     0.20789E+03 
  42166.6431     0.20808E+03 
  42198.9053     0.20827E+03 
  42231.1674     0.20846E+03 
  42263.4296     0.20863E+03 
  42295.6918     0.20881E+03 
  42327.9539     0.20898E+03 
  42360.2161     0.20914E+03 
  42392.4782     0.20930E+03 
  42424.7404     0.20945E+03 
  42457.0026     0.20960E+03 
  42489.2647     0.20974E+03 
  42521.5269     0.20988E+03 
  42553.7890     0.21001E+03 
  42586.0512     0.21014E+03 
  42618.3134     0.21026E+03 
  42650.5755     0.21038E+03 
  42682.8377     0.21049E+03 
  42715.0998     0.21059E+03 
  42747.3620     0.21069E+03 
  42779.6242     0.21079E+03 
  42811.8863     0.21088E+03 
  42844.1485     0.21097E+03 
  42876.4106     0.21105E+03 
  42908.6728     0.21112E+03 
  42940.9350     0.21119E+03 
  42973.1971     0.21125E+03 
  43005.4593     0.21131E+03 
  43037.7214     0.21137E+03 
  43069.9836     0.21142E+03 
  43102.2458     0.21146E+03 
  43134.5079     0.21150E+03 
  43166.7701     0.21153E+03 
  43199.0322     0.21156E+03 
  43231.2944     0.21158E+03 
  43263.5566     0.21160E+03 
  43295.8187     0.21161E+03 
  43328.0809     0.21162E+03 
  43360.3430     0.21162E+03 
  43392.6052     0.21162E+03 
  43424.8674     0.21161E+03 
  43457.1295     0.21160E+03 
  43489.3917     0.21158E+03 
  43521.6538     0.21155E+03 
  43553.9160     0.21153E+03 
  43586.1782     0.21149E+03 
  43618.4403     0.21145E+03 
  43650.7025     0.21141E+03 
  43682.9646     0.21136E+03 
  43715.2268     0.21131E+03 
  43747.4890     0.21125E+03 
  43779.7511     0.21118E+03 
  43812.0133     0.21111E+03 
  43844.2754     0.21104E+03 
  43876.5376     0.21096E+03 
  43908.7998     0.21087E+03 
  43941.0619     0.21079E+03 
  43973.3241     0.21069E+03 
  44005.5862     0.21059E+03 
  44037.8484     0.21049E+03 
  44070.1106     0.21038E+03 
  44102.3727     0.21026E+03 
  44134.6349     0.21015E+03 
  44166.8970     0.21002E+03 
  44199.1592     0.20989E+03 
  44231.4214     0.20976E+03 
  44263.6835     0.20962E+03 
  44295.9457     0.20948E+03 
  44328.2078     0.20933E+03 
  44360.4700     0.20918E+03 
  44392.7322     0.20902E+03 
  44424.9943     0.20886E+03 
  44457.2565     0.20869E+03 
  44489.5186     0.20852E+03 
  44521.7808     0.20834E+03 
  44554.0430     0.20816E+03 
  44586.3051     0.20797E+03 
  44618.5673     0.20778E+03 
  44650.8294     0.20759E+03 
  44683.0916     0.20739E+03 
  44715.3538     0.20718E+03 
  44747.6159     0.20697E+03 
  44779.8781     0.20676E+03 
  44812.1402     0.20654E+03 
  44844.4024     0.20632E+03 
  44876.6646     0.20609E+03 
  44908.9267     0.20586E+03 
  44941.1889     0.20562E+03 
  44973.4510     0.20538E+03 
  45005.7132     0.20514E+03 
  45037.9754     0.20489E+03 
  45070.2375     0.20464E+03 
  45102.4997     0.20438E+03 
  45134.7618     0.20411E+03 
  45167.0240     0.20385E+03 
  45199.2862     0.20358E+03 
  45231.5483     0.20330E+03 
  45263.8105     0.20302E+03 
  45296.0726     0.20274E+03 
  45328.3348     0.20245E+03 
  45360.5970     0.20216E+03 
  45392.8591     0.20186E+03 
  45425.1213     0.20156E+03 
  45457.3834     0.20126E+03 
  45489.6456     0.20095E+03 
  45521.9078     0.20064E+03 
  45554.1699     0.20032E+03 
  45586.4321     0.20000E+03 
  45618.6942     0.19968E+03 
  45650.9564     0.19935E+03 
  45683.2186     0.19902E+03 
  45715.4807     0.19868E+03 
  45747.7429     0.19834E+03 
  45780.0050     0.19800E+03 
  45812.2672     0.19765E+03 
  45844.5294     0.19730E+03 
  45876.7915     0.19694E+03 
  45909.0537     0.19658E+03 
  45941.3158     0.19622E+03 
  45973.5780     0.19586E+03 
  46005.8402     0.19549E+03 
  46038.1023     0.19511E+03 
  46070.3645     0.19474E+03 
  46102.6266     0.19436E+03 
  46134.8888     0.19397E+03 
  46167.1510     0.19358E+03 
  46199.4131     0.19319E+03 
  46231.6753     0.19280E+03 
  46263.9374     0.19240E+03 
  46296.1996     0.19200E+03 
  46328.4618     0.19160E+03 
  46360.7239     0.19119E+03 
  46392.9861     0.19078E+03 
  46425.2482     0.19036E+03 
  46457.5104     0.18995E+03 
  46489.7726     0.18952E+03 
  46522.0347     0.18910E+03 
  46554.2969     0.18867E+03 
  46586.5590     0.18824E+03 
  46618.8212     0.18781E+03 
  46651.0834     0.18737E+03 
  46683.3455     0.18693E+03 
  46715.6077     0.18649E+03 
  46747.8698     0.18605E+03 
  46780.1320     0.18560E+03 
  46812.3942     0.18515E+03 
  46844.6563     0.18469E+03 
  46876.9185     0.18424E+03 
  46909.1806     0.18378E+03 
  46941.4428     0.18331E+03 
  46973.7050     0.18285E+03 
  47005.9671     0.18238E+03 
  47038.2293     0.18191E+03 
  47070.4914     0.18144E+03 
  47102.7536     0.18096E+03 
  47135.0158     0.18048E+03 
  47167.2779     0.18000E+03 
  47199.5401     0.17952E+03 
  47231.8022     0.17903E+03 
  47264.0644     0.17854E+03 
  47296.3266     0.17805E+03 
  47328.5887     0.17756E+03 
  47360.8509     0.17706E+03 
  47393.1130     0.17656E+03 
  47425.3752     0.17606E+03 
  47457.6374     0.17556E+03 
  47489.8995     0.17506E+03 
  47522.1617     0.17455E+03 
  47554.4238     0.17404E+03 
  47586.6860     0.17353E+03 
  47618.9482     0.17301E+03 
  47651.2103     0.17250E+03 
  47683.4725     0.17198E+03 
  47715.7346     0.17146E+03 
  47747.9968     0.17094E+03 
  47780.2590     0.17041E+03 
  47812.5211     0.16989E+03 
  47844.7833     0.16936E+03 
  47877.0454     0.16883E+03 
  47909.3076     0.16830E+03 
  47941.5698     0.16776E+03 
  47973.8319     0.16723E+03 
  48006.0941     0.16669E+03 
  48038.3562     0.16615E+03 
  48070.6184     0.16561E+03 
  48102.8806     0.16507E+03 
  48135.1427     0.16453E+03 
  48167.4049     0.16398E+03 
  48199.6670     0.16343E+03 
  48231.9292     0.16288E+03 
  48264.1914     0.16233E+03 
  48296.4535     0.16178E+03 
  48328.7157     0.16123E+03 
  48360.9778     0.16067E+03 
  48393.2400     0.16012E+03 
  48425.5022     0.15956E+03 
  48457.7643     0.15900E+03 
  48490.0265     0.15844E+03 
  48522.2886     0.15788E+03 
  48554.5508     0.15732E+03 
  48586.8130     0.15675E+03 
  48619.0751     0.15619E+03 
  48651.3373     0.15562E+03 
  48683.5994     0.15505E+03 
  48715.8616     0.15449E+03 
  48748.1238     0.15392E+03 
  48780.3859     0.15335E+03 
  48812.6481     0.15277E+03 
  48844.9102     0.15220E+03 
  48877.1724     0.15163E+03 
  48909.4346     0.15105E+03 
  48941.6967     0.15048E+03 
  48973.9589     0.14990E+03 
  49006.2210     0.14932E+03 
  49038.4832     0.14874E+03 
  49070.7454     0.14817E+03 
  49103.0075     0.14759E+03 
  49135.2697     0.14701E+03 
  49167.5318     0.14642E+03 
  49199.7940     0.14584E+03 
  49232.0562     0.14526E+03 
  49264.3183     0.14468E+03 
  49296.5805     0.14409E+03 
  49328.8426     0.14351E+03 
  49361.1048     0.14292E+03 
  49393.3670     0.14234E+03 
  49425.6291     0.14175E+03 
  49457.8913     0.14116E+03 
  49490.1534     0.14058E+03 
  49522.4156     0.13999E+03 
  49554.6778     0.13940E+03 
  49586.9399     0.13881E+03 
  49619.2021     0.13823E+03 
  49651.4642     0.13764E+03 
  49683.7264     0.13705E+03 
  49715.9886     0.13646E+03 
  49748.2507     0.13587E+03 
  49780.5129     0.13528E+03 
  49812.7750     0.13469E+03 
  49845.0372     0.13410E+03 
  49877.2994     0.13351E+03 
  49909.5615     0.13292E+03 
  49941.8237     0.13233E+03 
  49974.0858     0.13173E+03 
  50006.3480     0.13114E+03 
  50038.6102     0.13055E+03 
  50070.8723     0.12996E+03 
  50103.1345     0.12937E+03 
  50135.3966     0.12878E+03 
  50167.6588     0.12819E+03 
  50199.9210     0.12760E+03 
  50232.1831     0.12701E+03 
  50264.4453     0.12642E+03 
  50296.7074     0.12583E+03 
  50328.9696     0.12524E+03 
  50361.2318     0.12465E+03 
  50393.4939     0.12406E+03 
  50425.7561     0.12347E+03 
  50458.0182     0.12288E+03 
  50490.2804     0.12229E+03 
  50522.5426     0.12170E+03 
  50554.8047     0.12111E+03 
  50587.0669     0.12052E+03 
  50619.3290     0.11994E+03 
  50651.5912     0.11935E+03 
  50683.8534     0.11876E+03 
  50716.1155     0.11818E+03 
  50748.3777     0.11759E+03 
  50780.6398     0.11701E+03 
  50812.9020     0.11642E+03 
  50845.1642     0.11584E+03 
  50877.4263     0.11525E+03 
  50909.6885     0.11467E+03 
  50941.9506     0.11409E+03 
  50974.2128     0.11351E+03 
  51006.4750     0.11292E+03 
  51038.7371     0.11234E+03 
  51070.9993     0.11176E+03 
  51103.2614     0.11118E+03 
  51135.5236     0.11060E+03 
  51167.7858     0.11003E+03 
  51200.0479     0.10945E+03 
  51232.3101     0.10887E+03 
  51264.5722     0.10830E+03 
  51296.8344     0.10772E+03 
  51329.0966     0.10715E+03 
  51361.3587     0.10657E+03 
  51393.6209     0.10600E+03 
  51425.8830     0.10543E+03 
  51458.1452     0.10486E+03 
  51490.4074     0.10429E+03 
  51522.6695     0.10372E+03 
  51554.9317     0.10315E+03 
  51587.1938     0.10258E+03 
  51619.4560     0.10202E+03 
  51651.7182     0.10145E+03 
  51683.9803     0.10089E+03 
  51716.2425     0.10032E+03 
  51748.5046     0.99762E+02 
  51780.7668     0.99201E+02 
  51813.0290     0.98640E+02 
  51845.2911     0.98081E+02 
  51877.5533     0.97523E+02 
  51909.8154     0.96966E+02 
  51942.0776     0.96410E+02 
  51974.3398     0.95855E+02 
  52006.6019     0.95301E+02 
  52038.8641     0.94748E+02 
  52071.1262     0.94197E+02 
  52103.3884     0.93647E+02 
  52135.6506     0.93098E+02 
  52167.9127     0.92550E+02 
  52200.1749     0.92003E+02 
  52232.4370     0.91457E+02 
  52264.6992     0.90913E+02 
  52296.9614     0.90370E+02 
  52329.2235     0.89828E+02 
  52361.4857     0.89288E+02 
  52393.7478     0.88749E+02 
  52426.0100     0.88211E+02 
  52458.2722     0.87674E+02 
  52490.5343     0.87139E+02 
  52522.7965     0.86605E+02 
  52555.0586     0.86072E+02 
  52587.3208     0.85541E+02 
  52619.5830     0.85011E+02 
  52651.8451     0.84482E+02 
  52684.1073     0.83955E+02 
  52716.3694     0.83430E+02 
  52748.6316     0.82905E+02 
  52780.8938     0.82382E+02 
  52813.1559     0.81861E+02 
  52845.4181     0.81341E+02 
  52877.6802     0.80822E+02 
  52909.9424     0.80305E+02 
  52942.2046     0.79789E+02 
  52974.4667     0.79275E+02 
  53006.7289     0.78762E+02 
  53038.9910     0.78251E+02 
  53071.2532     0.77741E+02 
  53103.5154     0.77232E+02 
  53135.7775     0.76726E+02 
  53168.0397     0.76220E+02 
  53200.3018     0.75717E+02 
  53232.5640     0.75215E+02 
  53264.8262     0.74714E+02 
  53297.0883     0.74215E+02 
  53329.3505     0.73717E+02 
  53361.6126     0.73221E+02 
  53393.8748     0.72727E+02 
  53426.1370     0.72234E+02 
  53458.3991     0.71743E+02 
  53490.6613     0.71253E+02 
  53522.9234     0.70765E+02 
  53555.1856     0.70279E+02 
  53587.4478     0.69794E+02 
  53619.7099     0.69311E+02 
  53651.9721     0.68829E+02 
  53684.2342     0.68350E+02 
  53716.4964     0.67871E+02 
  53748.7586     0.67395E+02 
  53781.0207     0.66920E+02 
  53813.2829     0.66446E+02 
  53845.5450     0.65975E+02 
  53877.8072     0.65505E+02 
  53910.0694     0.65037E+02 
  53942.3315     0.64570E+02 
  53974.5937     0.64105E+02 
  54006.8558     0.63642E+02 
  54039.1180     0.63180E+02 
  54071.3802     0.62720E+02 
  54103.6423     0.62262E+02 
  54135.9045     0.61806E+02 
  54168.1666     0.61351E+02 
  54200.4288     0.60898E+02 
  54232.6910     0.60447E+02 
  54264.9531     0.59997E+02 
  54297.2153     0.59549E+02 
  54329.4774     0.59103E+02 
  54361.7396     0.58659E+02 
  54394.0018     0.58216E+02 
  54426.2639     0.57775E+02 
  54458.5261     0.57336E+02 
  54490.7882     0.56899E+02 
  54523.0504     0.56463E+02 
  54555.3126     0.56029E+02 
  54587.5747     0.55597E+02 
  54619.8369     0.55166E+02 
  54652.0990     0.54738E+02 
  54684.3612     0.54311E+02 
  54716.6234     0.53886E+02 
  54748.8855     0.53462E+02 
  54781.1477     0.53040E+02 
  54813.4098     0.52621E+02 
  54845.6720     0.52203E+02 
  54877.9342     0.51786E+02 
  54910.1963     0.51372E+02 
  54942.4585     0.50959E+02 
  54974.7206     0.50548E+02 
  55006.9828     0.50139E+02 
  55039.2450     0.49731E+02 
  55071.5071     0.49326E+02 
  55103.7693     0.48922E+02 
  55136.0314     0.48520E+02 
  55168.2936     0.48119E+02 
  55200.5558     0.47721E+02 
  55232.8179     0.47324E+02 
  55265.0801     0.46929E+02 
  55297.3422     0.46536E+02 
  55329.6044     0.46144E+02 
  55361.8666     0.45755E+02 
  55394.1287     0.45367E+02 
  55426.3909     0.44981E+02 
  55458.6530     0.44597E+02 
  55490.9152     0.44214E+02 
  55523.1774     0.43833E+02 
  55555.4395     0.43454E+02 
  55587.7017     0.43077E+02 
  55619.9638     0.42702E+02 
  55652.2260     0.42328E+02 
  55684.4882     0.41957E+02 
  55716.7503     0.41587E+02 
  55749.0125     0.41218E+02 
  55781.2746     0.40852E+02 
  55813.5368     0.40487E+02 
  55845.7990     0.40124E+02 
  55878.0611     0.39763E+02 
  55910.3233     0.39404E+02 
  55942.5854     0.39046E+02 
  55974.8476     0.38690E+02 
  56007.1098     0.38336E+02 
  56039.3719     0.37984E+02 
  56071.6341     0.37634E+02 
  56103.8962     0.37285E+02 
  56136.1584     0.36938E+02 
  56168.4206     0.36593E+02 
  56200.6827     0.36250E+02 
  56232.9449     0.35908E+02 
  56265.2070     0.35568E+02 
  56297.4692     0.35230E+02 
  56329.7314     0.34894E+02 
  56361.9935     0.34559E+02 
  56394.2557     0.34226E+02 
  56426.5178     0.33895E+02 
  56458.7800     0.33566E+02 
  56491.0422     0.33238E+02 
  56523.3043     0.32912E+02 
  56555.5665     0.32588E+02 
  56587.8286     0.32266E+02 
  56620.0908     0.31945E+02 
  56652.3530     0.31627E+02 
  56684.6151     0.31309E+02 
  56716.8773     0.30994E+02 
  56749.1394     0.30680E+02 
  56781.4016     0.30368E+02 
  56813.6638     0.30058E+02 
  56845.9259     0.29750E+02 
  56878.1881     0.29443E+02 
  56910.4502     0.29138E+02 
  56942.7124     0.28835E+02 
  56974.9746     0.28533E+02 
  57007.2367     0.28233E+02 
  57039.4989     0.27935E+02 
  57071.7610     0.27639E+02 
  57104.0232     0.27344E+02 
  57136.2854     0.27051E+02 
  57168.5475     0.26760E+02 
  57200.8097     0.26470E+02 
  57233.0718     0.26182E+02 
  57265.3340     0.25896E+02 
  57297.5962     0.25611E+02 
  57329.8583     0.25329E+02 
  57362.1205     0.25047E+02 
  57394.3826     0.24768E+02 
  57426.6448     0.24490E+02 
  57458.9070     0.24214E+02 
  57491.1691     0.23940E+02 
  57523.4313     0.23667E+02 
  57555.6934     0.23396E+02 
  57587.9556     0.23126E+02 
  57620.2178     0.22859E+02 
  57652.4799     0.22593E+02 
  57684.7421     0.22328E+02 
  57717.0042     0.22065E+02 
  57749.2664     0.21804E+02 
  57781.5286     0.21545E+02 
  57813.7907     0.21287E+02 
  57846.0529     0.21031E+02 
  57878.3150     0.20777E+02 
  57910.5772     0.20524E+02 
  57942.8394     0.20272E+02 
  57975.1015     0.20023E+02 
  58007.3637     0.19775E+02 
  58039.6258     0.19529E+02 
  58071.8880     0.19284E+02 
  58104.1502     0.19041E+02 
  58136.4123     0.18800E+02 
  58168.6745     0.18560E+02 
  58200.9366     0.18322E+02 
  58233.1988     0.18085E+02 
  58265.4610     0.17850E+02 
  58297.7231     0.17617E+02 
  58329.9853     0.17385E+02 
  58362.2474     0.17155E+02 
  58394.5096     0.16927E+02 
  58426.7718     0.16700E+02 
  58459.0339     0.16475E+02 
  58491.2961     0.16251E+02 
  58523.5582     0.16029E+02 
  58555.8204     0.15809E+02 
  58588.0826     0.15590E+02 
  58620.3447     0.15373E+02 
  58652.6069     0.15157E+02 
  58684.8690     0.14943E+02 
  58717.1312     0.14731E+02 
  58749.3934     0.14520E+02 
  58781.6555     0.14311E+02 
  58813.9177     0.14103E+02 
  58846.1798     0.13897E+02 
  58878.4420     0.13693E+02 
  58910.7042     0.13490E+02 
  58942.9663     0.13289E+02 
  58975.2285     0.13089E+02 
  59007.4906     0.12891E+02 
  59039.7528     0.12695E+02 
  59072.0150     0.12500E+02 
  59104.2771     0.12307E+02 
  59136.5393     0.12115E+02 
  59168.8014     0.11925E+02 
  59201.0636     0.11736E+02 
  59233.3258     0.11549E+02 
  59265.5879     0.11364E+02 
  59297.8501     0.11180E+02 
  59330.1122     0.10998E+02 
  59362.3744     0.10817E+02 
  59394.6366     0.10638E+02 
  59426.8987     0.10461E+02 
  59459.1609     0.10285E+02 
  59491.4230     0.10111E+02 
  59523.6852     0.99382E+01 
  59555.9474     0.97671E+01 
  59588.2095     0.95977E+01 
  59620.4717     0.94298E+01 
  59652.7338     0.92635E+01 
  59684.9960     0.90989E+01 
  59717.2582     0.89358E+01 
  59749.5203     0.87743E+01 
  59781.7825     0.86145E+01 
  59814.0446     0.84562E+01 
  59846.3068     0.82996E+01 
  59878.5690     0.81445E+01 
  59910.8311     0.79911E+01 
  59943.0933     0.78393E+01 
  59975.3554     0.76891E+01 
  60007.6176     0.75406E+01 
  60039.8798     0.73936E+01 
  60072.1419     0.72483E+01 
  60104.4041     0.71047E+01 
  60136.6662     0.69627E+01 
  60168.9284     0.68223E+01 
  60201.1906     0.66835E+01 
  60233.4527     0.65465E+01 
  60265.7149     0.64110E+01 
  60297.9770     0.62773E+01 
  60330.2392     0.61452E+01 
  60362.5014     0.60147E+01 
  60394.7635     0.58860E+01 
  60427.0257     0.57589E+01 
  60459.2878     0.56336E+01 
  60491.5500     0.55099E+01 
  60523.8122     0.53879E+01 
  60556.0743     0.52676E+01 
  60588.3365     0.51491E+01 
  60620.5986     0.50322E+01 
  60652.8608     0.49171E+01 
  60685.1230     0.48038E+01 
  60717.3851     0.46922E+01 
  60749.6473     0.45823E+01 
  60781.9094     0.44742E+01 
  60814.1716     0.43679E+01 
  60846.4338     0.42633E+01 
  60878.6959     0.41605E+01 
  60910.9581     0.40596E+01 
  60943.2202     0.39604E+01 
  60975.4824     0.38631E+01 
  61007.7446     0.37675E+01 
  61040.0067     0.36739E+01 
  61072.2689     0.35820E+01 
  61104.5310     0.34921E+01 
  61136.7932     0.34040E+01 
  61169.0554     0.33178E+01 
  61201.3175     0.32334E+01 
  61233.5797     0.31510E+01 
  61265.8418     0.30705E+01 
  61298.1040     0.29920E+01 
  61330.3662     0.29154E+01 
  61362.6283     0.28407E+01 
  61394.8905     0.27681E+01 
  61427.1526     0.26974E+01 
  61459.4148     0.26287E+01 
  61491.6770     0.25620E+01 
  61523.9391     0.24974E+01 
  61556.2013     0.24349E+01 
  61588.4634     0.23744E+01 
  61620.7256     0.23159E+01 
  61652.9878     0.22596E+01 
  61685.2499     0.22054E+01 
  61717.5121     0.21534E+01 
  61749.7742     0.21035E+01 
  61782.0364     0.20557E+01 
  61814.2986     0.20102E+01 
  61846.5607     0.19669E+01 
  61878.8229     0.19258E+01 
  61911.0850     0.18870E+01 
  61943.3472     0.18504E+01 
  61975.6094     0.18161E+01 
  62007.8715     0.17842E+01 
  62040.1337     0.17546E+01 
  62072.3958     0.17273E+01 
  62104.6580     0.17025E+01 
  62136.9202     0.16800E+01 
  62169.1823     0.16600E+01 
  62201.4445     0.16425E+01 
  62233.7066     0.16274E+01 
  62265.9688     0.16148E+01 
  62298.2310     0.16048E+01 
  62330.4931     0.15974E+01 
  62362.7553     0.15925E+01 
  62395.0174     0.15902E+01 
  62427.2796     0.15906E+01 
  62459.5418     0.15937E+01 
  62491.8039     0.15994E+01 
  62524.0661     0.16080E+01 
  62556.3282     0.16192E+01 
  62588.5904     0.16333E+01 
  62620.8526     0.16502E+01 
  62653.1147     0.16699E+01 
  62685.3769     0.16926E+01 
  62717.6390     0.17182E+01 
  62749.9012     0.17467E+01 
  62782.1634     0.17783E+01 
  62814.4255     0.18128E+01 
  62846.6877     0.18505E+01 
  62878.9498     0.18912E+01 
  62911.2120     0.19351E+01 
  62943.4742     0.19822E+01 
  62975.7363     0.20324E+01 
  63007.9985     0.20860E+01 
  63040.2606     0.21428E+01 
  63072.5228     0.22030E+01 
  63104.7850     0.22666E+01 
  63137.0471     0.23336E+01 
  63169.3093     0.24040E+01 
  63201.5714     0.24780E+01 
  63233.8336     0.25555E+01 
  63266.0958     0.26366E+01 
  63298.3579     0.27214E+01 
  63330.6201     0.28099E+01 
  63362.8822     0.29021E+01 
  63395.1444     0.29981E+01 
  63427.4066     0.30979E+01 
  63459.6687     0.32016E+01 
  63491.9309     0.33093E+01 
  63524.1930     0.34209E+01 
  63556.4552     0.35366E+01 
  63588.7174     0.36564E+01 
  63620.9795     0.37803E+01 
  63653.2417     0.39084E+01 
  63685.5038     0.40408E+01 
  63717.7660     0.41776E+01 
  63750.0282     0.43186E+01 
  63782.2903     0.44642E+01 
  63814.5525     0.46142E+01 
  63846.8146     0.47687E+01 
  63879.0768     0.49279E+01 
  63911.3390     0.50917E+01 
  63943.6011     0.52603E+01 
  63975.8633     0.54337E+01 
  64008.1254     0.56119E+01 
  64040.3876     0.57951E+01 
  64072.6498     0.59833E+01 
  64104.9119     0.61765E+01 
  64137.1741     0.63749E+01 
  64169.4362     0.65785E+01 
  64201.6984     0.67873E+01 
  64233.9606     0.70015E+01 
  64266.2227     0.72211E+01 
  64298.4849     0.74462E+01 
  64330.7470     0.76769E+01 
  64363.0092     0.79132E+01 
  64395.2714     0.81552E+01 
  64427.5335     0.84030E+01 
  64459.7957     0.86567E+01 
  64492.0578     0.89163E+01 
  64524.3200     0.91820E+01 
  64556.5822     0.94538E+01 
  64588.8443     0.97317E+01 
  64621.1065     0.10016E+02 
  64653.3686     0.10307E+02 
  64685.6308     0.10604E+02 
  64717.8930     0.10907E+02 
  64750.1551     0.11218E+02 
  64782.4173     0.11535E+02 
  64814.6794     0.11858E+02 
  64846.9416     0.12189E+02 
  64879.2038     0.12527E+02 
  64911.4659     0.12871E+02 
  64943.7281     0.13223E+02 
  64975.9902     0.13583E+02 
  65008.2524     0.13949E+02 
  65040.5146     0.14323E+02 
  65072.7767     0.14705E+02 
  65105.0389     0.15094E+02 
  65137.3010     0.15492E+02 
  65169.5632     0.15897E+02 
  65201.8254     0.16310E+02 
  65234.0875     0.16731E+02 
  65266.3497     0.17160E+02 
  65298.6118     0.17598E+02 
  65330.8740     0.18044E+02 
  65363.1362     0.18498E+02 
  65395.3983     0.18961E+02 
  65427.6605     0.19433E+02 
  65459.9226     0.19914E+02 
  65492.1848     0.20404E+02 
  65524.4470     0.20903E+02 
  65556.7091     0.21411E+02 
  65588.9713     0.21929E+02 
  65621.2334     0.22456E+02 
  65653.4956     0.22992E+02 
  65685.7578     0.23539E+02 
  65718.0199     0.24095E+02 
  65750.2821     0.24661E+02 
  65782.5442     0.25237E+02 
  65814.8064     0.25823E+02 
  65847.0686     0.26420E+02 
  65879.3307     0.27027E+02 
  65911.5929     0.27645E+02 
  65943.8550     0.28274E+02 
  65976.1172     0.28913E+02 
  66008.3794     0.29564E+02 
  66040.6415     0.30226E+02 
  66072.9037     0.30899E+02 
  66105.1658     0.31583E+02 
  66137.4280     0.32279E+02 
  66169.6902     0.32987E+02 
  66201.9523     0.33707E+02 
  66234.2145     0.34439E+02 
  66266.4766     0.35182E+02 
  66298.7388     0.35939E+02 
  66331.0010     0.36707E+02 
  66363.2631     0.37489E+02 
  66395.5253     0.38283E+02 
  66427.7874     0.39090E+02 
  66460.0496     0.39910E+02 
  66492.3118     0.40743E+02 
  66524.5739     0.41590E+02 
  66556.8361     0.42450E+02 
  66589.0982     0.43324E+02 
  66621.3604     0.44212E+02 
  66653.6226     0.45114E+02 
  66685.8847     0.46031E+02 
  66718.1469     0.46961E+02 
  66750.4090     0.47906E+02 
  66782.6712     0.48866E+02 
  66814.9334     0.49841E+02 
  66847.1955     0.50831E+02 
  66879.4577     0.51836E+02 
  66911.7198     0.52857E+02 
  66943.9820     0.53893E+02 
  66976.2442     0.54945E+02 
  67008.5063     0.56012E+02 
  67040.7685     0.57096E+02 
  67073.0306     0.58197E+02 
  67105.2928     0.59313E+02 
  67137.5550     0.60447E+02 
  67169.8171     0.61597E+02 
  67202.0793     0.62765E+02 
  67234.3414     0.63949E+02 
  67266.6036     0.65151E+02 
  67298.8658     0.66371E+02 
  67331.1279     0.67608E+02 
  67363.3901     0.68864E+02 
  67395.6522     0.70137E+02 
  67427.9144     0.71429E+02 
  67460.1766     0.72740E+02 
  67492.4387     0.74069E+02 
  67524.7009     0.75417E+02 
  67556.9630     0.76785E+02 
  67589.2252     0.78172E+02 
  67621.4874     0.79578E+02 
  67653.7495     0.81005E+02 
  67686.0117     0.82451E+02 
  67718.2738     0.83917E+02 
  67750.5360     0.85404E+02 
  67782.7982     0.86911E+02 
  67815.0603     0.88440E+02 
  67847.3225     0.89989E+02 
  67879.5846     0.91559E+02 
  67911.8468     0.93151E+02 
  67944.1090     0.94765E+02 
  67976.3711     0.96400E+02 
  68008.6333     0.98058E+02 
  68040.8954     0.99738E+02 
  68073.1576     0.10144E+03 
  68105.4198     0.10316E+03 
  68137.6819     0.10491E+03 
  68169.9441     0.10668E+03 
  68202.2062     0.10848E+03 
  68234.4684     0.11030E+03 
  68266.7306     0.11214E+03 
  68298.9927     0.11400E+03 
  68331.2549     0.11589E+03 
  68363.5170     0.11781E+03 
  68395.7792     0.11975E+03 
  68428.0414     0.12171E+03 
  68460.3035     0.12370E+03 
  68492.5657     0.12572E+03 
  68524.8278     0.12776E+03 
  68557.0900     0.12982E+03 
  68589.3522     0.13192E+03 
  68621.6143     0.13404E+03 
  68653.8765     0.13618E+03 
  68686.1386     0.13835E+03 
  68718.4008     0.14055E+03 
  68750.6630     0.14278E+03 
  68782.9251     0.14503E+03 
  68815.1873     0.14731E+03 
  68847.4494     0.14962E+03 
  68879.7116     0.15196E+03 
  68911.9738     0.15433E+03 
  68944.2359     0.15672E+03 
  68976.4981     0.15914E+03 
  69008.7602     0.16160E+03 
  69041.0224     0.16408E+03 
  69073.2846     0.16659E+03 
  69105.5467     0.16913E+03 
  69137.8089     0.17170E+03 
  69170.0710     0.17430E+03 
  69202.3332     0.17693E+03 
  69234.5954     0.17959E+03 
  69266.8575     0.18229E+03 
  69299.1197     0.18501E+03 
  69331.3818     0.18777E+03 
  69363.6440     0.19055E+03 
  69395.9062     0.19337E+03 
  69428.1683     0.19622E+03 
  69460.4305     0.19911E+03 
  69492.6926     0.20202E+03 
  69524.9548     0.20497E+03 
  69557.2170     0.20795E+03 
  69589.4791     0.21097E+03 
  69621.7413     0.21402E+03 
  69654.0034     0.21710E+03 
  69686.2656     0.22022E+03 
  69718.5278     0.22337E+03 
  69750.7899     0.22655E+03 
  69783.0521     0.22977E+03 
  69815.3142     0.23302E+03 
  69847.5764     0.23631E+03 
  69879.8386     0.23964E+03 
  69912.1007     0.24300E+03 
  69944.3629     0.24639E+03 
  69976.6250     0.24982E+03 
  70008.8872     0.25329E+03 
  70041.1494     0.25680E+03 
  70073.4115     0.26034E+03 
  70105.6737     0.26391E+03 
  70137.9358     0.26753E+03 
  70170.1980     0.27118E+03 
  70202.4602     0.27487E+03 
  70234.7223     0.27860E+03 
  70266.9845     0.28236E+03 
  70299.2466     0.28616E+03 
  70331.5088     0.29000E+03 
  70363.7710     0.29388E+03 
  70396.0331     0.29780E+03 
  70428.2953     0.30176E+03 
  70460.5574     0.30576E+03 
  70492.8196     0.30979E+03 
  70525.0818     0.31387E+03 
  70557.3439     0.31798E+03 
  70589.6061     0.32214E+03 
  70621.8682     0.32633E+03 
  70654.1304     0.33057E+03 
  70686.3926     0.33484E+03 
  70718.6547     0.33916E+03 
  70750.9169     0.34352E+03 
  70783.1790     0.34792E+03 
  70815.4412     0.35236E+03 
  70847.7034     0.35684E+03 
  70879.9655     0.36136E+03 
  70912.2277     0.36593E+03 
  70944.4898     0.37053E+03 
  70976.7520     0.37518E+03 
  71009.0142     0.37987E+03 
  71041.2763     0.38461E+03 
  71073.5385     0.38938E+03 
  71105.8006     0.39420E+03 
  71138.0628     0.39906E+03 
  71170.3250     0.40397E+03 
  71202.5871     0.40892E+03 
  71234.8493     0.41391E+03 
  71267.1114     0.41895E+03 
  71299.3736     0.42403E+03 
  71331.6358     0.42915E+03 
  71363.8979     0.43432E+03 
  71396.1601     0.43953E+03 
  71428.4222     0.44478E+03 
  71460.6844     0.45008E+03 
  71492.9466     0.45543E+03 
  71525.2087     0.46082E+03 
  71557.4709     0.46625E+03 
  71589.7330     0.47173E+03 
  71621.9952     0.47725E+03 
  71654.2574     0.48282E+03 
  71686.5195     0.48844E+03 
  71718.7817     0.49410E+03 
  71751.0438     0.49980E+03 
  71783.3060     0.50555E+03 
  71815.5682     0.51135E+03 
  71847.8303     0.51719E+03 
  71880.0925     0.52308E+03 
  71912.3546     0.52901E+03 
  71944.6168     0.53499E+03 
  71976.8790     0.54102E+03 
  72009.1411     0.54709E+03 
  72041.4033     0.55321E+03 
  72073.6654     0.55938E+03 
  72105.9276     0.56559E+03 
  72138.1898     0.57185E+03 
  72170.4519     0.57815E+03 
  72202.7141     0.58450E+03 
  72234.9762     0.59090E+03 
  72267.2384     0.59734E+03 
  72299.5006     0.60384E+03 
  72331.7627     0.61037E+03 
  72364.0249     0.61696E+03 
  72396.2870     0.62359E+03 
  72428.5492     0.63027E+03 
  72460.8114     0.63699E+03 
  72493.0735     0.64376E+03 
  72525.3357     0.65058E+03 
  72557.5978     0.65745E+03 
  72589.8600     0.66436E+03 
