  32262.1600     0.16125E+03 
  32294.4222     0.16320E+03 
  32326.6843     0.16517E+03 
  32358.9465     0.16716E+03 
  32391.2086     0.16917E+03 
  32423.4708     0.17118E+03 
  32455.7330     0.17322E+03 
  32487.9951     0.17527E+03 
  32520.2573     0.17734E+03 
  32552.5194     0.17942E+03 
  32584.7816     0.18152E+03 
  32617.0438     0.18364E+03 
  32649.3059     0.18577E+03 
  32681.5681     0.18792E+03 
  32713.8302     0.19008E+03 
  32746.0924     0.19227E+03 
  32778.3546     0.19446E+03 
  32810.6167     0.19667E+03 
  32842.8789     0.19890E+03 
  32875.1410     0.20115E+03 
  32907.4032     0.20341E+03 
  32939.6654     0.20569E+03 
  32971.9275     0.20798E+03 
  33004.1897     0.21029E+03 
  33036.4518     0.21261E+03 
  33068.7140     0.21496E+03 
  33100.9762     0.21731E+03 
  33133.2383     0.21968E+03 
  33165.5005     0.22207E+03 
  33197.7626     0.22448E+03 
  33230.0248     0.22690E+03 
  33262.2870     0.22933E+03 
  33294.5491     0.23179E+03 
  33326.8113     0.23425E+03 
  33359.0734     0.23674E+03 
  33391.3356     0.23924E+03 
  33423.5978     0.24175E+03 
  33455.8599     0.24428E+03 
  33488.1221     0.24682E+03 
  33520.3842     0.24939E+03 
  33552.6464     0.25196E+03 
  33584.9086     0.25455E+03 
  33617.1707     0.25716E+03 
  33649.4329     0.25978E+03 
  33681.6950     0.26242E+03 
  33713.9572     0.26507E+03 
  33746.2194     0.26773E+03 
  33778.4815     0.27042E+03 
  33810.7437     0.27311E+03 
  33843.0058     0.27582E+03 
  33875.2680     0.27855E+03 
  33907.5302     0.28129E+03 
  33939.7923     0.28404E+03 
  33972.0545     0.28681E+03 
  34004.3166     0.28959E+03 
  34036.5788     0.29239E+03 
  34068.8410     0.29520E+03 
  34101.1031     0.29803E+03 
  34133.3653     0.30087E+03 
  34165.6274     0.30372E+03 
  34197.8896     0.30659E+03 
  34230.1518     0.30947E+03 
  34262.4139     0.31236E+03 
  34294.6761     0.31527E+03 
  34326.9382     0.31819E+03 
  34359.2004     0.32112E+03 
  34391.4626     0.32407E+03 
  34423.7247     0.32703E+03 
  34455.9869     0.33000E+03 
  34488.2490     0.33298E+03 
  34520.5112     0.33598E+03 
  34552.7734     0.33899E+03 
  34585.0355     0.34201E+03 
  34617.2977     0.34505E+03 
  34649.5598     0.34809E+03 
  34681.8220     0.35115E+03 
  34714.0842     0.35422E+03 
  34746.3463     0.35730E+03 
  34778.6085     0.36039E+03 
  34810.8706     0.36350E+03 
  34843.1328     0.36661E+03 
  34875.3950     0.36974E+03 
  34907.6571     0.37288E+03 
  34939.9193     0.37603E+03 
  34972.1814     0.37918E+03 
  35004.4436     0.38235E+03 
  35036.7058     0.38553E+03 
  35068.9679     0.38872E+03 
  35101.2301     0.39192E+03 
  35133.4922     0.39513E+03 
  35165.7544     0.39835E+03 
  35198.0166     0.40158E+03 
  35230.2787     0.40481E+03 
  35262.5409     0.40806E+03 
  35294.8030     0.41131E+03 
  35327.0652     0.41458E+03 
  35359.3274     0.41785E+03 
  35391.5895     0.42113E+03 
  35423.8517     0.42442E+03 
  35456.1138     0.42772E+03 
  35488.3760     0.43102E+03 
  35520.6382     0.43433E+03 
  35552.9003     0.43765E+03 
  35585.1625     0.44098E+03 
  35617.4246     0.44431E+03 
  35649.6868     0.44765E+03 
  35681.9490     0.45100E+03 
  35714.2111     0.45436E+03 
  35746.4733     0.45772E+03 
  35778.7354     0.46108E+03 
  35810.9976     0.46445E+03 
  35843.2598     0.46783E+03 
  35875.5219     0.47122E+03 
  35907.7841     0.47460E+03 
  35940.0462     0.47800E+03 
  35972.3084     0.48140E+03 
  36004.5706     0.48480E+03 
  36036.8327     0.48821E+03 
  36069.0949     0.49162E+03 
  36101.3570     0.49503E+03 
  36133.6192     0.49845E+03 
  36165.8814     0.50187E+03 
  36198.1435     0.50530E+03 
  36230.4057     0.50873E+03 
  36262.6678     0.51216E+03 
  36294.9300     0.51559E+03 
  36327.1922     0.51903E+03 
  36359.4543     0.52247E+03 
  36391.7165     0.52591E+03 
  36423.9786     0.52935E+03 
  36456.2408     0.53280E+03 
  36488.5030     0.53624E+03 
  36520.7651     0.53969E+03 
  36553.0273     0.54314E+03 
  36585.2894     0.54658E+03 
  36617.5516     0.55003E+03 
  36649.8138     0.55348E+03 
  36682.0759     0.55693E+03 
  36714.3381     0.56037E+03 
  36746.6002     0.56382E+03 
  36778.8624     0.56727E+03 
  36811.1246     0.57071E+03 
  36843.3867     0.57416E+03 
  36875.6489     0.57760E+03 
  36907.9110     0.58104E+03 
  36940.1732     0.58448E+03 
  36972.4354     0.58791E+03 
  37004.6975     0.59135E+03 
  37036.9597     0.59478E+03 
  37069.2218     0.59820E+03 
  37101.4840     0.60163E+03 
  37133.7462     0.60505E+03 
  37166.0083     0.60847E+03 
  37198.2705     0.61188E+03 
  37230.5326     0.61529E+03 
  37262.7948     0.61869E+03 
  37295.0570     0.62209E+03 
  37327.3191     0.62548E+03 
  37359.5813     0.62887E+03 
  37391.8434     0.63226E+03 
  37424.1056     0.63564E+03 
  37456.3678     0.63901E+03 
  37488.6299     0.64237E+03 
  37520.8921     0.64573E+03 
  37553.1542     0.64908E+03 
  37585.4164     0.65243E+03 
  37617.6786     0.65577E+03 
  37649.9407     0.65910E+03 
  37682.2029     0.66242E+03 
  37714.4650     0.66574E+03 
  37746.7272     0.66904E+03 
  37778.9894     0.67234E+03 
  37811.2515     0.67563E+03 
  37843.5137     0.67891E+03 
  37875.7758     0.68219E+03 
  37908.0380     0.68545E+03 
  37940.3002     0.68870E+03 
  37972.5623     0.69194E+03 
  38004.8245     0.69518E+03 
  38037.0866     0.69840E+03 
  38069.3488     0.70161E+03 
  38101.6110     0.70481E+03 
  38133.8731     0.70800E+03 
  38166.1353     0.71118E+03 
  38198.3974     0.71435E+03 
  38230.6596     0.71750E+03 
  38262.9218     0.72064E+03 
  38295.1839     0.72377E+03 
  38327.4461     0.72689E+03 
  38359.7082     0.73000E+03 
  38391.9704     0.73309E+03 
  38424.2326     0.73617E+03 
  38456.4947     0.73923E+03 
  38488.7569     0.74229E+03 
  38521.0190     0.74532E+03 
  38553.2812     0.74835E+03 
  38585.5434     0.75136E+03 
  38617.8055     0.75435E+03 
  38650.0677     0.75733E+03 
  38682.3298     0.76030E+03 
  38714.5920     0.76325E+03 
  38746.8542     0.76618E+03 
  38779.1163     0.76910E+03 
  38811.3785     0.77200E+03 
  38843.6406     0.77489E+03 
  38875.9028     0.77776E+03 
  38908.1650     0.78061E+03 
  38940.4271     0.78345E+03 
  38972.6893     0.78627E+03 
  39004.9514     0.78907E+03 
  39037.2136     0.79186E+03 
  39069.4758     0.79462E+03 
  39101.7379     0.79737E+03 
  39134.0001     0.80011E+03 
  39166.2622     0.80282E+03 
  39198.5244     0.80551E+03 
  39230.7866     0.80819E+03 
  39263.0487     0.81085E+03 
  39295.3109     0.81349E+03 
  39327.5730     0.81611E+03 
  39359.8352     0.81871E+03 
  39392.0974     0.82129E+03 
  39424.3595     0.82385E+03 
  39456.6217     0.82639E+03 
  39488.8838     0.82891E+03 
  39521.1460     0.83141E+03 
  39553.4082     0.83389E+03 
  39585.6703     0.83635E+03 
  39617.9325     0.83878E+03 
  39650.1946     0.84120E+03 
  39682.4568     0.84360E+03 
  39714.7190     0.84597E+03 
  39746.9811     0.84832E+03 
  39779.2433     0.85065E+03 
  39811.5054     0.85296E+03 
  39843.7676     0.85525E+03 
  39876.0298     0.85751E+03 
  39908.2919     0.85976E+03 
  39940.5541     0.86198E+03 
  39972.8162     0.86417E+03 
  40005.0784     0.86635E+03 
  40037.3406     0.86850E+03 
  40069.6027     0.87063E+03 
  40101.8649     0.87273E+03 
  40134.1270     0.87481E+03 
  40166.3892     0.87687E+03 
  40198.6514     0.87891E+03 
  40230.9135     0.88092E+03 
  40263.1757     0.88290E+03 
  40295.4378     0.88486E+03 
  40327.7000     0.88680E+03 
  40359.9622     0.88872E+03 
  40392.2243     0.89061E+03 
  40424.4865     0.89247E+03 
  40456.7486     0.89431E+03 
  40489.0108     0.89612E+03 
  40521.2730     0.89791E+03 
  40553.5351     0.89968E+03 
  40585.7973     0.90142E+03 
  40618.0594     0.90313E+03 
  40650.3216     0.90482E+03 
  40682.5838     0.90648E+03 
  40714.8459     0.90812E+03 
  40747.1081     0.90973E+03 
  40779.3702     0.91132E+03 
  40811.6324     0.91288E+03 
  40843.8946     0.91442E+03 
  40876.1567     0.91592E+03 
  40908.4189     0.91741E+03 
  40940.6810     0.91886E+03 
  40972.9432     0.92029E+03 
  41005.2054     0.92169E+03 
  41037.4675     0.92307E+03 
  41069.7297     0.92442E+03 
  41101.9918     0.92574E+03 
  41134.2540     0.92704E+03 
  41166.5162     0.92831E+03 
  41198.7783     0.92955E+03 
  41231.0405     0.93077E+03 
  41263.3026     0.93196E+03 
  41295.5648     0.93312E+03 
  41327.8270     0.93426E+03 
  41360.0891     0.93537E+03 
  41392.3513     0.93645E+03 
  41424.6134     0.93750E+03 
  41456.8756     0.93853E+03 
  41489.1378     0.93953E+03 
  41521.3999     0.94050E+03 
  41553.6621     0.94144E+03 
  41585.9242     0.94236E+03 
  41618.1864     0.94325E+03 
  41650.4486     0.94411E+03 
  41682.7107     0.94494E+03 
  41714.9729     0.94575E+03 
  41747.2350     0.94653E+03 
  41779.4972     0.94728E+03 
  41811.7594     0.94801E+03 
  41844.0215     0.94870E+03 
  41876.2837     0.94937E+03 
  41908.5458     0.95002E+03 
  41940.8080     0.95063E+03 
  41973.0702     0.95122E+03 
  42005.3323     0.95177E+03 
  42037.5945     0.95231E+03 
  42069.8566     0.95281E+03 
  42102.1188     0.95329E+03 
  42134.3810     0.95373E+03 
  42166.6431     0.95415E+03 
  42198.9053     0.95455E+03 
  42231.1674     0.95491E+03 
  42263.4296     0.95525E+03 
  42295.6918     0.95556E+03 
  42327.9539     0.95585E+03 
  42360.2161     0.95610E+03 
  42392.4782     0.95633E+03 
  42424.7404     0.95653E+03 
  42457.0026     0.95670E+03 
  42489.2647     0.95685E+03 
  42521.5269     0.95697E+03 
  42553.7890     0.95706E+03 
  42586.0512     0.95712E+03 
  42618.3134     0.95716E+03 
  42650.5755     0.95717E+03 
  42682.8377     0.95715E+03 
  42715.0998     0.95711E+03 
  42747.3620     0.95704E+03 
  42779.6242     0.95694E+03 
  42811.8863     0.95681E+03 
  42844.1485     0.95666E+03 
  42876.4106     0.95648E+03 
  42908.6728     0.95628E+03 
  42940.9350     0.95604E+03 
  42973.1971     0.95578E+03 
  43005.4593     0.95550E+03 
  43037.7214     0.95519E+03 
  43069.9836     0.95485E+03 
  43102.2458     0.95448E+03 
  43134.5079     0.95409E+03 
  43166.7701     0.95368E+03 
  43199.0322     0.95323E+03 
  43231.2944     0.95276E+03 
  43263.5566     0.95227E+03 
  43295.8187     0.95175E+03 
  43328.0809     0.95120E+03 
  43360.3430     0.95063E+03 
  43392.6052     0.95003E+03 
  43424.8674     0.94941E+03 
  43457.1295     0.94876E+03 
  43489.3917     0.94809E+03 
  43521.6538     0.94739E+03 
  43553.9160     0.94666E+03 
  43586.1782     0.94592E+03 
  43618.4403     0.94514E+03 
  43650.7025     0.94434E+03 
  43682.9646     0.94352E+03 
  43715.2268     0.94267E+03 
  43747.4890     0.94180E+03 
  43779.7511     0.94090E+03 
  43812.0133     0.93998E+03 
  43844.2754     0.93904E+03 
  43876.5376     0.93807E+03 
  43908.7998     0.93708E+03 
  43941.0619     0.93606E+03 
  43973.3241     0.93502E+03 
  44005.5862     0.93396E+03 
  44037.8484     0.93287E+03 
  44070.1106     0.93176E+03 
  44102.3727     0.93063E+03 
  44134.6349     0.92947E+03 
  44166.8970     0.92829E+03 
  44199.1592     0.92709E+03 
  44231.4214     0.92587E+03 
  44263.6835     0.92462E+03 
  44295.9457     0.92335E+03 
  44328.2078     0.92206E+03 
  44360.4700     0.92075E+03 
  44392.7322     0.91941E+03 
  44424.9943     0.91806E+03 
  44457.2565     0.91668E+03 
  44489.5186     0.91528E+03 
  44521.7808     0.91386E+03 
  44554.0430     0.91241E+03 
  44586.3051     0.91095E+03 
  44618.5673     0.90947E+03 
  44650.8294     0.90796E+03 
  44683.0916     0.90644E+03 
  44715.3538     0.90489E+03 
  44747.6159     0.90332E+03 
  44779.8781     0.90174E+03 
  44812.1402     0.90013E+03 
  44844.4024     0.89850E+03 
  44876.6646     0.89686E+03 
  44908.9267     0.89519E+03 
  44941.1889     0.89351E+03 
  44973.4510     0.89180E+03 
  45005.7132     0.89008E+03 
  45037.9754     0.88834E+03 
  45070.2375     0.88658E+03 
  45102.4997     0.88480E+03 
  45134.7618     0.88300E+03 
  45167.0240     0.88119E+03 
  45199.2862     0.87935E+03 
  45231.5483     0.87750E+03 
  45263.8105     0.87563E+03 
  45296.0726     0.87374E+03 
  45328.3348     0.87184E+03 
  45360.5970     0.86992E+03 
  45392.8591     0.86798E+03 
  45425.1213     0.86602E+03 
  45457.3834     0.86405E+03 
  45489.6456     0.86206E+03 
  45521.9078     0.86006E+03 
  45554.1699     0.85803E+03 
  45586.4321     0.85600E+03 
  45618.6942     0.85394E+03 
  45650.9564     0.85187E+03 
  45683.2186     0.84979E+03 
  45715.4807     0.84769E+03 
  45747.7429     0.84557E+03 
  45780.0050     0.84344E+03 
  45812.2672     0.84129E+03 
  45844.5294     0.83913E+03 
  45876.7915     0.83696E+03 
  45909.0537     0.83477E+03 
  45941.3158     0.83257E+03 
  45973.5780     0.83035E+03 
  46005.8402     0.82812E+03 
  46038.1023     0.82587E+03 
  46070.3645     0.82361E+03 
  46102.6266     0.82134E+03 
  46134.8888     0.81906E+03 
  46167.1510     0.81676E+03 
  46199.4131     0.81445E+03 
  46231.6753     0.81212E+03 
  46263.9374     0.80979E+03 
  46296.1996     0.80744E+03 
  46328.4618     0.80508E+03 
  46360.7239     0.80271E+03 
  46392.9861     0.80032E+03 
  46425.2482     0.79793E+03 
  46457.5104     0.79552E+03 
  46489.7726     0.79310E+03 
  46522.0347     0.79067E+03 
  46554.2969     0.78823E+03 
  46586.5590     0.78578E+03 
  46618.8212     0.78332E+03 
  46651.0834     0.78085E+03 
  46683.3455     0.77837E+03 
  46715.6077     0.77587E+03 
  46747.8698     0.77337E+03 
  46780.1320     0.77086E+03 
  46812.3942     0.76834E+03 
  46844.6563     0.76581E+03 
  46876.9185     0.76327E+03 
  46909.1806     0.76072E+03 
  46941.4428     0.75816E+03 
  46973.7050     0.75560E+03 
  47005.9671     0.75302E+03 
  47038.2293     0.75044E+03 
  47070.4914     0.74785E+03 
  47102.7536     0.74525E+03 
  47135.0158     0.74264E+03 
  47167.2779     0.74003E+03 
  47199.5401     0.73740E+03 
  47231.8022     0.73477E+03 
  47264.0644     0.73214E+03 
  47296.3266     0.72949E+03 
  47328.5887     0.72684E+03 
  47360.8509     0.72419E+03 
  47393.1130     0.72152E+03 
  47425.3752     0.71885E+03 
  47457.6374     0.71618E+03 
  47489.8995     0.71350E+03 
  47522.1617     0.71081E+03 
  47554.4238     0.70811E+03 
  47586.6860     0.70541E+03 
  47618.9482     0.70271E+03 
  47651.2103     0.70000E+03 
  47683.4725     0.69729E+03 
  47715.7346     0.69457E+03 
  47747.9968     0.69184E+03 
  47780.2590     0.68911E+03 
  47812.5211     0.68638E+03 
  47844.7833     0.68364E+03 
  47877.0454     0.68090E+03 
  47909.3076     0.67816E+03 
  47941.5698     0.67541E+03 
  47973.8319     0.67265E+03 
  48006.0941     0.66990E+03 
  48038.3562     0.66714E+03 
  48070.6184     0.66437E+03 
  48102.8806     0.66161E+03 
  48135.1427     0.65884E+03 
  48167.4049     0.65607E+03 
  48199.6670     0.65329E+03 
  48231.9292     0.65052E+03 
  48264.1914     0.64774E+03 
  48296.4535     0.64496E+03 
  48328.7157     0.64217E+03 
  48360.9778     0.63939E+03 
  48393.2400     0.63660E+03 
  48425.5022     0.63381E+03 
  48457.7643     0.63102E+03 
  48490.0265     0.62823E+03 
  48522.2886     0.62544E+03 
  48554.5508     0.62265E+03 
  48586.8130     0.61985E+03 
  48619.0751     0.61706E+03 
  48651.3373     0.61426E+03 
  48683.5994     0.61146E+03 
  48715.8616     0.60867E+03 
  48748.1238     0.60587E+03 
  48780.3859     0.60307E+03 
  48812.6481     0.60028E+03 
  48844.9102     0.59748E+03 
  48877.1724     0.59469E+03 
  48909.4346     0.59189E+03 
  48941.6967     0.58909E+03 
  48973.9589     0.58630E+03 
  49006.2210     0.58351E+03 
  49038.4832     0.58071E+03 
  49070.7454     0.57792E+03 
  49103.0075     0.57513E+03 
  49135.2697     0.57234E+03 
  49167.5318     0.56955E+03 
  49199.7940     0.56677E+03 
  49232.0562     0.56398E+03 
  49264.3183     0.56120E+03 
  49296.5805     0.55842E+03 
  49328.8426     0.55564E+03 
  49361.1048     0.55286E+03 
  49393.3670     0.55009E+03 
  49425.6291     0.54732E+03 
  49457.8913     0.54455E+03 
  49490.1534     0.54178E+03 
  49522.4156     0.53902E+03 
  49554.6778     0.53625E+03 
  49586.9399     0.53350E+03 
  49619.2021     0.53074E+03 
  49651.4642     0.52799E+03 
  49683.7264     0.52524E+03 
  49715.9886     0.52249E+03 
  49748.2507     0.51975E+03 
  49780.5129     0.51701E+03 
  49812.7750     0.51427E+03 
  49845.0372     0.51154E+03 
  49877.2994     0.50882E+03 
  49909.5615     0.50609E+03 
  49941.8237     0.50337E+03 
  49974.0858     0.50066E+03 
  50006.3480     0.49794E+03 
  50038.6102     0.49524E+03 
  50070.8723     0.49253E+03 
  50103.1345     0.48983E+03 
  50135.3966     0.48714E+03 
  50167.6588     0.48445E+03 
  50199.9210     0.48177E+03 
  50232.1831     0.47909E+03 
  50264.4453     0.47641E+03 
  50296.7074     0.47374E+03 
  50328.9696     0.47108E+03 
  50361.2318     0.46842E+03 
  50393.4939     0.46576E+03 
  50425.7561     0.46312E+03 
  50458.0182     0.46047E+03 
  50490.2804     0.45783E+03 
  50522.5426     0.45520E+03 
  50554.8047     0.45257E+03 
  50587.0669     0.44995E+03 
  50619.3290     0.44734E+03 
  50651.5912     0.44473E+03 
  50683.8534     0.44213E+03 
  50716.1155     0.43953E+03 
  50748.3777     0.43694E+03 
  50780.6398     0.43435E+03 
  50812.9020     0.43177E+03 
  50845.1642     0.42920E+03 
  50877.4263     0.42663E+03 
  50909.6885     0.42407E+03 
  50941.9506     0.42152E+03 
  50974.2128     0.41897E+03 
  51006.4750     0.41643E+03 
  51038.7371     0.41390E+03 
  51070.9993     0.41137E+03 
  51103.2614     0.40885E+03 
  51135.5236     0.40634E+03 
  51167.7858     0.40384E+03 
  51200.0479     0.40134E+03 
  51232.3101     0.39884E+03 
  51264.5722     0.39636E+03 
  51296.8344     0.39388E+03 
  51329.0966     0.39141E+03 
  51361.3587     0.38895E+03 
  51393.6209     0.38649E+03 
  51425.8830     0.38404E+03 
  51458.1452     0.38160E+03 
  51490.4074     0.37917E+03 
  51522.6695     0.37674E+03 
  51554.9317     0.37432E+03 
  51587.1938     0.37191E+03 
  51619.4560     0.36951E+03 
  51651.7182     0.36711E+03 
  51683.9803     0.36473E+03 
  51716.2425     0.36235E+03 
  51748.5046     0.35997E+03 
  51780.7668     0.35761E+03 
  51813.0290     0.35525E+03 
  51845.2911     0.35290E+03 
  51877.5533     0.35056E+03 
  51909.8154     0.34823E+03 
  51942.0776     0.34591E+03 
  51974.3398     0.34359E+03 
  52006.6019     0.34128E+03 
  52038.8641     0.33898E+03 
  52071.1262     0.33669E+03 
  52103.3884     0.33441E+03 
  52135.6506     0.33213E+03 
  52167.9127     0.32986E+03 
  52200.1749     0.32760E+03 
  52232.4370     0.32535E+03 
  52264.6992     0.32311E+03 
  52296.9614     0.32088E+03 
  52329.2235     0.31865E+03 
  52361.4857     0.31644E+03 
  52393.7478     0.31423E+03 
  52426.0100     0.31203E+03 
  52458.2722     0.30984E+03 
  52490.5343     0.30765E+03 
  52522.7965     0.30548E+03 
  52555.0586     0.30332E+03 
  52587.3208     0.30116E+03 
  52619.5830     0.29901E+03 
  52651.8451     0.29687E+03 
  52684.1073     0.29474E+03 
  52716.3694     0.29262E+03 
  52748.6316     0.29050E+03 
  52780.8938     0.28840E+03 
  52813.1559     0.28630E+03 
  52845.4181     0.28422E+03 
  52877.6802     0.28214E+03 
  52909.9424     0.28007E+03 
  52942.2046     0.27801E+03 
  52974.4667     0.27596E+03 
  53006.7289     0.27391E+03 
  53038.9910     0.27188E+03 
  53071.2532     0.26985E+03 
  53103.5154     0.26784E+03 
  53135.7775     0.26583E+03 
  53168.0397     0.26383E+03 
  53200.3018     0.26184E+03 
  53232.5640     0.25986E+03 
  53264.8262     0.25789E+03 
  53297.0883     0.25592E+03 
  53329.3505     0.25397E+03 
  53361.6126     0.25202E+03 
  53393.8748     0.25009E+03 
  53426.1370     0.24816E+03 
  53458.3991     0.24624E+03 
  53490.6613     0.24433E+03 
  53522.9234     0.24243E+03 
  53555.1856     0.24054E+03 
  53587.4478     0.23866E+03 
  53619.7099     0.23678E+03 
  53651.9721     0.23492E+03 
  53684.2342     0.23306E+03 
  53716.4964     0.23121E+03 
  53748.7586     0.22938E+03 
  53781.0207     0.22755E+03 
  53813.2829     0.22573E+03 
  53845.5450     0.22392E+03 
  53877.8072     0.22211E+03 
  53910.0694     0.22032E+03 
  53942.3315     0.21854E+03 
  53974.5937     0.21676E+03 
  54006.8558     0.21499E+03 
  54039.1180     0.21324E+03 
  54071.3802     0.21149E+03 
  54103.6423     0.20975E+03 
  54135.9045     0.20802E+03 
  54168.1666     0.20629E+03 
  54200.4288     0.20458E+03 
  54232.6910     0.20287E+03 
  54264.9531     0.20118E+03 
  54297.2153     0.19949E+03 
  54329.4774     0.19781E+03 
  54361.7396     0.19614E+03 
  54394.0018     0.19448E+03 
  54426.2639     0.19283E+03 
  54458.5261     0.19119E+03 
  54490.7882     0.18956E+03 
  54523.0504     0.18793E+03 
  54555.3126     0.18631E+03 
  54587.5747     0.18471E+03 
  54619.8369     0.18311E+03 
  54652.0990     0.18152E+03 
  54684.3612     0.17993E+03 
  54716.6234     0.17836E+03 
  54748.8855     0.17680E+03 
  54781.1477     0.17524E+03 
  54813.4098     0.17369E+03 
  54845.6720     0.17215E+03 
  54877.9342     0.17062E+03 
  54910.1963     0.16910E+03 
  54942.4585     0.16759E+03 
  54974.7206     0.16609E+03 
  55006.9828     0.16459E+03 
  55039.2450     0.16310E+03 
  55071.5071     0.16162E+03 
  55103.7693     0.16015E+03 
  55136.0314     0.15869E+03 
  55168.2936     0.15724E+03 
  55200.5558     0.15579E+03 
  55232.8179     0.15436E+03 
  55265.0801     0.15293E+03 
  55297.3422     0.15151E+03 
  55329.6044     0.15010E+03 
  55361.8666     0.14869E+03 
  55394.1287     0.14730E+03 
  55426.3909     0.14591E+03 
  55458.6530     0.14453E+03 
  55490.9152     0.14316E+03 
  55523.1774     0.14180E+03 
  55555.4395     0.14045E+03 
  55587.7017     0.13910E+03 
  55619.9638     0.13776E+03 
  55652.2260     0.13643E+03 
  55684.4882     0.13511E+03 
  55716.7503     0.13380E+03 
  55749.0125     0.13249E+03 
  55781.2746     0.13119E+03 
  55813.5368     0.12991E+03 
  55845.7990     0.12862E+03 
  55878.0611     0.12735E+03 
  55910.3233     0.12609E+03 
  55942.5854     0.12483E+03 
  55974.8476     0.12358E+03 
  56007.1098     0.12234E+03 
  56039.3719     0.12110E+03 
  56071.6341     0.11988E+03 
  56103.8962     0.11866E+03 
  56136.1584     0.11745E+03 
  56168.4206     0.11624E+03 
  56200.6827     0.11505E+03 
  56232.9449     0.11386E+03 
  56265.2070     0.11268E+03 
  56297.4692     0.11151E+03 
  56329.7314     0.11034E+03 
  56361.9935     0.10919E+03 
  56394.2557     0.10804E+03 
  56426.5178     0.10690E+03 
  56458.7800     0.10576E+03 
  56491.0422     0.10463E+03 
  56523.3043     0.10351E+03 
  56555.5665     0.10240E+03 
  56587.8286     0.10130E+03 
  56620.0908     0.10020E+03 
  56652.3530     0.99110E+02 
  56684.6151     0.98027E+02 
  56716.8773     0.96952E+02 
  56749.1394     0.95883E+02 
  56781.4016     0.94822E+02 
  56813.6638     0.93769E+02 
  56845.9259     0.92722E+02 
  56878.1881     0.91683E+02 
  56910.4502     0.90651E+02 
  56942.7124     0.89625E+02 
  56974.9746     0.88607E+02 
  57007.2367     0.87596E+02 
  57039.4989     0.86592E+02 
  57071.7610     0.85595E+02 
  57104.0232     0.84605E+02 
  57136.2854     0.83622E+02 
  57168.5475     0.82646E+02 
  57200.8097     0.81677E+02 
  57233.0718     0.80715E+02 
  57265.3340     0.79759E+02 
  57297.5962     0.78811E+02 
  57329.8583     0.77869E+02 
  57362.1205     0.76934E+02 
  57394.3826     0.76005E+02 
  57426.6448     0.75084E+02 
  57458.9070     0.74169E+02 
  57491.1691     0.73261E+02 
  57523.4313     0.72359E+02 
  57555.6934     0.71464E+02 
  57587.9556     0.70575E+02 
  57620.2178     0.69694E+02 
  57652.4799     0.68818E+02 
  57684.7421     0.67949E+02 
  57717.0042     0.67087E+02 
  57749.2664     0.66231E+02 
  57781.5286     0.65382E+02 
  57813.7907     0.64539E+02 
  57846.0529     0.63702E+02 
  57878.3150     0.62872E+02 
  57910.5772     0.62048E+02 
  57942.8394     0.61230E+02 
  57975.1015     0.60419E+02 
  58007.3637     0.59614E+02 
  58039.6258     0.58815E+02 
  58071.8880     0.58023E+02 
  58104.1502     0.57236E+02 
  58136.4123     0.56456E+02 
  58168.6745     0.55682E+02 
  58200.9366     0.54914E+02 
  58233.1988     0.54152E+02 
  58265.4610     0.53396E+02 
  58297.7231     0.52647E+02 
  58329.9853     0.51903E+02 
  58362.2474     0.51165E+02 
  58394.5096     0.50434E+02 
  58426.7718     0.49708E+02 
  58459.0339     0.48988E+02 
  58491.2961     0.48274E+02 
  58523.5582     0.47566E+02 
  58555.8204     0.46864E+02 
  58588.0826     0.46168E+02 
  58620.3447     0.45478E+02 
  58652.6069     0.44793E+02 
  58684.8690     0.44115E+02 
  58717.1312     0.43442E+02 
  58749.3934     0.42774E+02 
  58781.6555     0.42113E+02 
  58813.9177     0.41457E+02 
  58846.1798     0.40807E+02 
  58878.4420     0.40163E+02 
  58910.7042     0.39524E+02 
  58942.9663     0.38891E+02 
  58975.2285     0.38264E+02 
  59007.4906     0.37642E+02 
  59039.7528     0.37026E+02 
  59072.0150     0.36415E+02 
  59104.2771     0.35810E+02 
  59136.5393     0.35211E+02 
  59168.8014     0.34617E+02 
  59201.0636     0.34028E+02 
  59233.3258     0.33445E+02 
  59265.5879     0.32868E+02 
  59297.8501     0.32296E+02 
  59330.1122     0.31729E+02 
  59362.3744     0.31168E+02 
  59394.6366     0.30612E+02 
  59426.8987     0.30062E+02 
  59459.1609     0.29517E+02 
  59491.4230     0.28978E+02 
  59523.6852     0.28443E+02 
  59555.9474     0.27915E+02 
  59588.2095     0.27391E+02 
  59620.4717     0.26873E+02 
  59652.7338     0.26360E+02 
  59684.9960     0.25853E+02 
  59717.2582     0.25351E+02 
  59749.5203     0.24854E+02 
  59781.7825     0.24362E+02 
  59814.0446     0.23876E+02 
  59846.3068     0.23395E+02 
  59878.5690     0.22919E+02 
  59910.8311     0.22448E+02 
  59943.0933     0.21983E+02 
  59975.3554     0.21523E+02 
  60007.6176     0.21068E+02 
  60039.8798     0.20619E+02 
  60072.1419     0.20174E+02 
  60104.4041     0.19735E+02 
  60136.6662     0.19301E+02 
  60168.9284     0.18873E+02 
  60201.1906     0.18449E+02 
  60233.4527     0.18031E+02 
  60265.7149     0.17618E+02 
  60297.9770     0.17210E+02 
  60330.2392     0.16807E+02 
  60362.5014     0.16409E+02 
  60394.7635     0.16017E+02 
  60427.0257     0.15630E+02 
  60459.2878     0.15248E+02 
  60491.5500     0.14871E+02 
  60523.8122     0.14500E+02 
  60556.0743     0.14134E+02 
  60588.3365     0.13773E+02 
  60620.5986     0.13417E+02 
  60652.8608     0.13066E+02 
  60685.1230     0.12721E+02 
  60717.3851     0.12380E+02 
  60749.6473     0.12046E+02 
  60781.9094     0.11716E+02 
  60814.1716     0.11391E+02 
  60846.4338     0.11072E+02 
  60878.6959     0.10758E+02 
  60910.9581     0.10450E+02 
  60943.2202     0.10147E+02 
  60975.4824     0.98487E+01 
  61007.7446     0.95561E+01 
  61040.0067     0.92688E+01 
  61072.2689     0.89869E+01 
  61104.5310     0.87104E+01 
  61136.7932     0.84392E+01 
  61169.0554     0.81735E+01 
  61201.3175     0.79132E+01 
  61233.5797     0.76583E+01 
  61265.8418     0.74089E+01 
  61298.1040     0.71650E+01 
  61330.3662     0.69267E+01 
  61362.6283     0.66938E+01 
  61394.8905     0.64665E+01 
  61427.1526     0.62448E+01 
  61459.4148     0.60287E+01 
  61491.6770     0.58182E+01 
  61523.9391     0.56134E+01 
  61556.2013     0.54143E+01 
  61588.4634     0.52210E+01 
  61620.7256     0.50333E+01 
  61652.9878     0.48515E+01 
  61685.2499     0.46755E+01 
  61717.5121     0.45054E+01 
  61749.7742     0.43411E+01 
  61782.0364     0.41828E+01 
  61814.2986     0.40304E+01 
  61846.5607     0.38841E+01 
  61878.8229     0.37438E+01 
  61911.0850     0.36096E+01 
  61943.3472     0.34815E+01 
  61975.6094     0.33597E+01 
  62007.8715     0.32440E+01 
  62040.1337     0.31346E+01 
  62072.3958     0.30316E+01 
  62104.6580     0.29349E+01 
  62136.9202     0.28447E+01 
  62169.1823     0.27609E+01 
  62201.4445     0.26837E+01 
  62233.7066     0.26130E+01 
  62265.9688     0.25490E+01 
  62298.2310     0.24918E+01 
  62330.4931     0.24412E+01 
  62362.7553     0.23976E+01 
  62395.0174     0.23608E+01 
  62427.2796     0.23310E+01 
  62459.5418     0.23082E+01 
  62491.8039     0.22925E+01 
  62524.0661     0.22840E+01 
  62556.3282     0.22828E+01 
  62588.5904     0.22889E+01 
  62620.8526     0.23023E+01 
  62653.1147     0.23233E+01 
  62685.3769     0.23518E+01 
  62717.6390     0.23879E+01 
  62749.9012     0.24318E+01 
  62782.1634     0.24834E+01 
  62814.4255     0.25430E+01 
  62846.6877     0.26106E+01 
  62878.9498     0.26863E+01 
  62911.2120     0.27701E+01 
  62943.4742     0.28622E+01 
  62975.7363     0.29627E+01 
  63007.9985     0.30716E+01 
  63040.2606     0.31892E+01 
  63072.5228     0.33154E+01 
  63104.7850     0.34505E+01 
  63137.0471     0.35944E+01 
  63169.3093     0.37474E+01 
  63201.5714     0.39095E+01 
  63233.8336     0.40808E+01 
  63266.0958     0.42616E+01 
  63298.3579     0.44518E+01 
  63330.6201     0.46517E+01 
  63362.8822     0.48613E+01 
  63395.1444     0.50808E+01 
  63427.4066     0.53103E+01 
  63459.6687     0.55500E+01 
  63491.9309     0.58000E+01 
  63524.1930     0.60605E+01 
  63556.4552     0.63315E+01 
  63588.7174     0.66133E+01 
  63620.9795     0.69060E+01 
  63653.2417     0.72097E+01 
  63685.5038     0.75246E+01 
  63717.7660     0.78509E+01 
  63750.0282     0.81887E+01 
  63782.2903     0.85383E+01 
  63814.5525     0.88997E+01 
  63846.8146     0.92731E+01 
  63879.0768     0.96588E+01 
  63911.3390     0.10057E+02 
  63943.6011     0.10468E+02 
  63975.8633     0.10891E+02 
  64008.1254     0.11328E+02 
  64040.3876     0.11777E+02 
  64072.6498     0.12240E+02 
  64104.9119     0.12717E+02 
  64137.1741     0.13207E+02 
  64169.4362     0.13711E+02 
  64201.6984     0.14230E+02 
  64233.9606     0.14763E+02 
  64266.2227     0.15311E+02 
  64298.4849     0.15873E+02 
  64330.7470     0.16451E+02 
  64363.0092     0.17044E+02 
  64395.2714     0.17652E+02 
  64427.5335     0.18277E+02 
  64459.7957     0.18917E+02 
  64492.0578     0.19574E+02 
  64524.3200     0.20248E+02 
  64556.5822     0.20938E+02 
  64588.8443     0.21645E+02 
  64621.1065     0.22370E+02 
  64653.3686     0.23113E+02 
  64685.6308     0.23873E+02 
  64717.8930     0.24652E+02 
  64750.1551     0.25449E+02 
  64782.4173     0.26265E+02 
  64814.6794     0.27101E+02 
  64846.9416     0.27955E+02 
  64879.2038     0.28830E+02 
  64911.4659     0.29724E+02 
  64943.7281     0.30639E+02 
  64975.9902     0.31575E+02 
  65008.2524     0.32532E+02 
  65040.5146     0.33510E+02 
  65072.7767     0.34510E+02 
  65105.0389     0.35532E+02 
  65137.3010     0.36576E+02 
  65169.5632     0.37643E+02 
  65201.8254     0.38734E+02 
  65234.0875     0.39848E+02 
  65266.3497     0.40985E+02 
  65298.6118     0.42148E+02 
  65330.8740     0.43335E+02 
  65363.1362     0.44547E+02 
  65395.3983     0.45784E+02 
  65427.6605     0.47048E+02 
  65459.9226     0.48338E+02 
  65492.1848     0.49654E+02 
  65524.4470     0.50998E+02 
  65556.7091     0.52370E+02 
  65588.9713     0.53769E+02 
  65621.2334     0.55197E+02 
  65653.4956     0.56654E+02 
  65685.7578     0.58141E+02 
  65718.0199     0.59657E+02 
  65750.2821     0.61204E+02 
  65782.5442     0.62782E+02 
  65814.8064     0.64391E+02 
  65847.0686     0.66032E+02 
  65879.3307     0.67706E+02 
  65911.5929     0.69412E+02 
  65943.8550     0.71152E+02 
  65976.1172     0.72925E+02 
  66008.3794     0.74734E+02 
  66040.6415     0.76577E+02 
  66072.9037     0.78456E+02 
  66105.1658     0.80371E+02 
  66137.4280     0.82322E+02 
  66169.6902     0.84311E+02 
  66201.9523     0.86338E+02 
  66234.2145     0.88403E+02 
  66266.4766     0.90508E+02 
  66298.7388     0.92652E+02 
  66331.0010     0.94836E+02 
  66363.2631     0.97061E+02 
  66395.5253     0.99328E+02 
  66427.7874     0.10164E+03 
  66460.0496     0.10399E+03 
  66492.3118     0.10638E+03 
  66524.5739     0.10882E+03 
  66556.8361     0.11131E+03 
  66589.0982     0.11384E+03 
  66621.3604     0.11641E+03 
  66653.6226     0.11904E+03 
  66685.8847     0.12171E+03 
  66718.1469     0.12442E+03 
  66750.4090     0.12719E+03 
  66782.6712     0.13001E+03 
  66814.9334     0.13288E+03 
  66847.1955     0.13580E+03 
  66879.4577     0.13877E+03 
  66911.7198     0.14179E+03 
  66943.9820     0.14487E+03 
  66976.2442     0.14800E+03 
  67008.5063     0.15119E+03 
  67040.7685     0.15443E+03 
  67073.0306     0.15773E+03 
  67105.2928     0.16109E+03 
  67137.5550     0.16451E+03 
  67169.8171     0.16798E+03 
  67202.0793     0.17152E+03 
  67234.3414     0.17511E+03 
  67266.6036     0.17877E+03 
  67298.8658     0.18249E+03 
  67331.1279     0.18628E+03 
  67363.3901     0.19013E+03 
  67395.6522     0.19404E+03 
  67427.9144     0.19803E+03 
  67460.1766     0.20207E+03 
  67492.4387     0.20619E+03 
  67524.7009     0.21038E+03 
  67556.9630     0.21463E+03 
  67589.2252     0.21896E+03 
  67621.4874     0.22336E+03 
  67653.7495     0.22783E+03 
  67686.0117     0.23238E+03 
  67718.2738     0.23700E+03 
  67750.5360     0.24170E+03 
  67782.7982     0.24648E+03 
  67815.0603     0.25133E+03 
  67847.3225     0.25626E+03 
  67879.5846     0.26127E+03 
  67911.8468     0.26637E+03 
  67944.1090     0.27155E+03 
  67976.3711     0.27681E+03 
  68008.6333     0.28215E+03 
  68040.8954     0.28758E+03 
  68073.1576     0.29310E+03 
  68105.4198     0.29870E+03 
  68137.6819     0.30440E+03 
  68169.9441     0.31018E+03 
  68202.2062     0.31606E+03 
  68234.4684     0.32202E+03 
  68266.7306     0.32808E+03 
  68298.9927     0.33424E+03 
  68331.2549     0.34049E+03 
  68363.5170     0.34684E+03 
  68395.7792     0.35329E+03 
  68428.0414     0.35984E+03 
  68460.3035     0.36649E+03 
  68492.5657     0.37324E+03 
  68524.8278     0.38009E+03 
  68557.0900     0.38705E+03 
  68589.3522     0.39411E+03 
  68621.6143     0.40128E+03 
  68653.8765     0.40856E+03 
  68686.1386     0.41595E+03 
  68718.4008     0.42345E+03 
  68750.6630     0.43106E+03 
  68782.9251     0.43879E+03 
  68815.1873     0.44662E+03 
  68847.4494     0.45458E+03 
  68879.7116     0.46265E+03 
  68911.9738     0.47084E+03 
  68944.2359     0.47916E+03 
  68976.4981     0.48759E+03 
  69008.7602     0.49615E+03 
  69041.0224     0.50483E+03 
  69073.2846     0.51363E+03 
  69105.5467     0.52256E+03 
  69137.8089     0.53162E+03 
  69170.0710     0.54081E+03 
  69202.3332     0.55013E+03 
  69234.5954     0.55959E+03 
  69266.8575     0.56917E+03 
  69299.1197     0.57890E+03 
  69331.3818     0.58876E+03 
  69363.6440     0.59875E+03 
  69395.9062     0.60889E+03 
  69428.1683     0.61916E+03 
  69460.4305     0.62958E+03 
  69492.6926     0.64015E+03 
  69524.9548     0.65086E+03 
  69557.2170     0.66171E+03 
  69589.4791     0.67271E+03 
  69621.7413     0.68387E+03 
  69654.0034     0.69517E+03 
  69686.2656     0.70662E+03 
  69718.5278     0.71823E+03 
  69750.7899     0.73000E+03 
  69783.0521     0.74192E+03 
  69815.3142     0.75400E+03 
  69847.5764     0.76624E+03 
  69879.8386     0.77864E+03 
  69912.1007     0.79121E+03 
  69944.3629     0.80393E+03 
  69976.6250     0.81683E+03 
  70008.8872     0.82989E+03 
  70041.1494     0.84312E+03 
  70073.4115     0.85652E+03 
  70105.6737     0.87009E+03 
  70137.9358     0.88383E+03 
  70170.1980     0.89775E+03 
  70202.4602     0.91185E+03 
  70234.7223     0.92612E+03 
  70266.9845     0.94057E+03 
  70299.2466     0.95520E+03 
  70331.5088     0.97002E+03 
  70363.7710     0.98502E+03 
  70396.0331     0.10002E+04 
  70428.2953     0.10156E+04 
  70460.5574     0.10311E+04 
  70492.8196     0.10469E+04 
  70525.0818     0.10628E+04 
  70557.3439     0.10789E+04 
  70589.6061     0.10953E+04 
  70621.8682     0.11118E+04 
  70654.1304     0.11285E+04 
  70686.3926     0.11454E+04 
  70718.6547     0.11625E+04 
  70750.9169     0.11798E+04 
  70783.1790     0.11974E+04 
  70815.4412     0.12151E+04 
  70847.7034     0.12330E+04 
  70879.9655     0.12511E+04 
  70912.2277     0.12695E+04 
  70944.4898     0.12880E+04 
  70976.7520     0.13068E+04 
  71009.0142     0.13258E+04 
  71041.2763     0.13449E+04 
  71073.5385     0.13643E+04 
  71105.8006     0.13840E+04 
  71138.0628     0.14038E+04 
  71170.3250     0.14238E+04 
  71202.5871     0.14441E+04 
  71234.8493     0.14646E+04 
  71267.1114     0.14853E+04 
  71299.3736     0.15063E+04 
  71331.6358     0.15275E+04 
  71363.8979     0.15488E+04 
  71396.1601     0.15705E+04 
  71428.4222     0.15923E+04 
  71460.6844     0.16144E+04 
  71492.9466     0.16367E+04 
  71525.2087     0.16593E+04 
  71557.4709     0.16821E+04 
  71589.7330     0.17051E+04 
  71621.9952     0.17283E+04 
  71654.2574     0.17518E+04 
  71686.5195     0.17755E+04 
  71718.7817     0.17995E+04 
  71751.0438     0.18237E+04 
  71783.3060     0.18482E+04 
  71815.5682     0.18729E+04 
  71847.8303     0.18978E+04 
  71880.0925     0.19230E+04 
  71912.3546     0.19484E+04 
  71944.6168     0.19741E+04 
  71976.8790     0.20000E+04 
  72009.1411     0.20262E+04 
  72041.4033     0.20526E+04 
  72073.6654     0.20793E+04 
  72105.9276     0.21062E+04 
  72138.1898     0.21334E+04 
  72170.4519     0.21608E+04 
  72202.7141     0.21885E+04 
  72234.9762     0.22165E+04 
  72267.2384     0.22447E+04 
  72299.5006     0.22731E+04 
  72331.7627     0.23018E+04 
  72364.0249     0.23308E+04 
  72396.2870     0.23600E+04 
  72428.5492     0.23895E+04 
  72460.8114     0.24193E+04 
  72493.0735     0.24493E+04 
  72525.3357     0.24795E+04 
  72557.5978     0.25101E+04 
  72589.8600     0.25409E+04 
