  32262.1600     0.80174E+02 
  32294.4222     0.80995E+02 
  32326.6843     0.81822E+02 
  32358.9465     0.82653E+02 
  32391.2086     0.83490E+02 
  32423.4708     0.84331E+02 
  32455.7330     0.85178E+02 
  32487.9951     0.86030E+02 
  32520.2573     0.86886E+02 
  32552.5194     0.87748E+02 
  32584.7816     0.88614E+02 
  32617.0438     0.89486E+02 
  32649.3059     0.90362E+02 
  32681.5681     0.91243E+02 
  32713.8302     0.92129E+02 
  32746.0924     0.93020E+02 
  32778.3546     0.93916E+02 
  32810.6167     0.94817E+02 
  32842.8789     0.95722E+02 
  32875.1410     0.96633E+02 
  32907.4032     0.97548E+02 
  32939.6654     0.98467E+02 
  32971.9275     0.99392E+02 
  33004.1897     0.10032E+03 
  33036.4518     0.10126E+03 
  33068.7140     0.10219E+03 
  33100.9762     0.10314E+03 
  33133.2383     0.10409E+03 
  33165.5005     0.10504E+03 
  33197.7626     0.10599E+03 
  33230.0248     0.10696E+03 
  33262.2870     0.10792E+03 
  33294.5491     0.10889E+03 
  33326.8113     0.10987E+03 
  33359.0734     0.11085E+03 
  33391.3356     0.11183E+03 
  33423.5978     0.11282E+03 
  33455.8599     0.11381E+03 
  33488.1221     0.11481E+03 
  33520.3842     0.11581E+03 
  33552.6464     0.11682E+03 
  33584.9086     0.11783E+03 
  33617.1707     0.11884E+03 
  33649.4329     0.11986E+03 
  33681.6950     0.12088E+03 
  33713.9572     0.12191E+03 
  33746.2194     0.12294E+03 
  33778.4815     0.12397E+03 
  33810.7437     0.12501E+03 
  33843.0058     0.12605E+03 
  33875.2680     0.12710E+03 
  33907.5302     0.12815E+03 
  33939.7923     0.12920E+03 
  33972.0545     0.13026E+03 
  34004.3166     0.13132E+03 
  34036.5788     0.13239E+03 
  34068.8410     0.13346E+03 
  34101.1031     0.13453E+03 
  34133.3653     0.13561E+03 
  34165.6274     0.13669E+03 
  34197.8896     0.13777E+03 
  34230.1518     0.13886E+03 
  34262.4139     0.13995E+03 
  34294.6761     0.14104E+03 
  34326.9382     0.14214E+03 
  34359.2004     0.14324E+03 
  34391.4626     0.14434E+03 
  34423.7247     0.14545E+03 
  34455.9869     0.14656E+03 
  34488.2490     0.14767E+03 
  34520.5112     0.14879E+03 
  34552.7734     0.14991E+03 
  34585.0355     0.15103E+03 
  34617.2977     0.15215E+03 
  34649.5598     0.15328E+03 
  34681.8220     0.15441E+03 
  34714.0842     0.15555E+03 
  34746.3463     0.15668E+03 
  34778.6085     0.15782E+03 
  34810.8706     0.15896E+03 
  34843.1328     0.16011E+03 
  34875.3950     0.16125E+03 
  34907.6571     0.16240E+03 
  34939.9193     0.16355E+03 
  34972.1814     0.16471E+03 
  35004.4436     0.16586E+03 
  35036.7058     0.16702E+03 
  35068.9679     0.16818E+03 
  35101.2301     0.16935E+03 
  35133.4922     0.17051E+03 
  35165.7544     0.17168E+03 
  35198.0166     0.17285E+03 
  35230.2787     0.17402E+03 
  35262.5409     0.17519E+03 
  35294.8030     0.17636E+03 
  35327.0652     0.17754E+03 
  35359.3274     0.17872E+03 
  35391.5895     0.17990E+03 
  35423.8517     0.18108E+03 
  35456.1138     0.18226E+03 
  35488.3760     0.18345E+03 
  35520.6382     0.18463E+03 
  35552.9003     0.18582E+03 
  35585.1625     0.18701E+03 
  35617.4246     0.18820E+03 
  35649.6868     0.18939E+03 
  35681.9490     0.19058E+03 
  35714.2111     0.19177E+03 
  35746.4733     0.19297E+03 
  35778.7354     0.19416E+03 
  35810.9976     0.19536E+03 
  35843.2598     0.19655E+03 
  35875.5219     0.19775E+03 
  35907.7841     0.19895E+03 
  35940.0462     0.20014E+03 
  35972.3084     0.20134E+03 
  36004.5706     0.20254E+03 
  36036.8327     0.20374E+03 
  36069.0949     0.20494E+03 
  36101.3570     0.20614E+03 
  36133.6192     0.20734E+03 
  36165.8814     0.20854E+03 
  36198.1435     0.20974E+03 
  36230.4057     0.21094E+03 
  36262.6678     0.21214E+03 
  36294.9300     0.21334E+03 
  36327.1922     0.21454E+03 
  36359.4543     0.21574E+03 
  36391.7165     0.21694E+03 
  36423.9786     0.21814E+03 
  36456.2408     0.21934E+03 
  36488.5030     0.22054E+03 
  36520.7651     0.22174E+03 
  36553.0273     0.22294E+03 
  36585.2894     0.22413E+03 
  36617.5516     0.22533E+03 
  36649.8138     0.22652E+03 
  36682.0759     0.22772E+03 
  36714.3381     0.22891E+03 
  36746.6002     0.23010E+03 
  36778.8624     0.23129E+03 
  36811.1246     0.23248E+03 
  36843.3867     0.23367E+03 
  36875.6489     0.23486E+03 
  36907.9110     0.23604E+03 
  36940.1732     0.23722E+03 
  36972.4354     0.23841E+03 
  37004.6975     0.23959E+03 
  37036.9597     0.24077E+03 
  37069.2218     0.24194E+03 
  37101.4840     0.24312E+03 
  37133.7462     0.24429E+03 
  37166.0083     0.24547E+03 
  37198.2705     0.24663E+03 
  37230.5326     0.24780E+03 
  37262.7948     0.24897E+03 
  37295.0570     0.25013E+03 
  37327.3191     0.25129E+03 
  37359.5813     0.25245E+03 
  37391.8434     0.25361E+03 
  37424.1056     0.25476E+03 
  37456.3678     0.25591E+03 
  37488.6299     0.25706E+03 
  37520.8921     0.25821E+03 
  37553.1542     0.25935E+03 
  37585.4164     0.26049E+03 
  37617.6786     0.26163E+03 
  37649.9407     0.26276E+03 
  37682.2029     0.26389E+03 
  37714.4650     0.26502E+03 
  37746.7272     0.26615E+03 
  37778.9894     0.26727E+03 
  37811.2515     0.26839E+03 
  37843.5137     0.26950E+03 
  37875.7758     0.27062E+03 
  37908.0380     0.27172E+03 
  37940.3002     0.27283E+03 
  37972.5623     0.27393E+03 
  38004.8245     0.27503E+03 
  38037.0866     0.27612E+03 
  38069.3488     0.27721E+03 
  38101.6110     0.27830E+03 
  38133.8731     0.27938E+03 
  38166.1353     0.28046E+03 
  38198.3974     0.28153E+03 
  38230.6596     0.28260E+03 
  38262.9218     0.28367E+03 
  38295.1839     0.28473E+03 
  38327.4461     0.28579E+03 
  38359.7082     0.28684E+03 
  38391.9704     0.28789E+03 
  38424.2326     0.28893E+03 
  38456.4947     0.28997E+03 
  38488.7569     0.29101E+03 
  38521.0190     0.29204E+03 
  38553.2812     0.29307E+03 
  38585.5434     0.29409E+03 
  38617.8055     0.29510E+03 
  38650.0677     0.29611E+03 
  38682.3298     0.29712E+03 
  38714.5920     0.29812E+03 
  38746.8542     0.29911E+03 
  38779.1163     0.30011E+03 
  38811.3785     0.30109E+03 
  38843.6406     0.30207E+03 
  38875.9028     0.30305E+03 
  38908.1650     0.30402E+03 
  38940.4271     0.30498E+03 
  38972.6893     0.30594E+03 
  39004.9514     0.30689E+03 
  39037.2136     0.30784E+03 
  39069.4758     0.30878E+03 
  39101.7379     0.30972E+03 
  39134.0001     0.31065E+03 
  39166.2622     0.31157E+03 
  39198.5244     0.31249E+03 
  39230.7866     0.31340E+03 
  39263.0487     0.31431E+03 
  39295.3109     0.31521E+03 
  39327.5730     0.31610E+03 
  39359.8352     0.31699E+03 
  39392.0974     0.31787E+03 
  39424.3595     0.31875E+03 
  39456.6217     0.31962E+03 
  39488.8838     0.32048E+03 
  39521.1460     0.32134E+03 
  39553.4082     0.32219E+03 
  39585.6703     0.32303E+03 
  39617.9325     0.32387E+03 
  39650.1946     0.32470E+03 
  39682.4568     0.32552E+03 
  39714.7190     0.32634E+03 
  39746.9811     0.32715E+03 
  39779.2433     0.32796E+03 
  39811.5054     0.32875E+03 
  39843.7676     0.32954E+03 
  39876.0298     0.33033E+03 
  39908.2919     0.33110E+03 
  39940.5541     0.33187E+03 
  39972.8162     0.33264E+03 
  40005.0784     0.33339E+03 
  40037.3406     0.33414E+03 
  40069.6027     0.33488E+03 
  40101.8649     0.33561E+03 
  40134.1270     0.33634E+03 
  40166.3892     0.33706E+03 
  40198.6514     0.33777E+03 
  40230.9135     0.33848E+03 
  40263.1757     0.33918E+03 
  40295.4378     0.33987E+03 
  40327.7000     0.34055E+03 
  40359.9622     0.34122E+03 
  40392.2243     0.34189E+03 
  40424.4865     0.34255E+03 
  40456.7486     0.34320E+03 
  40489.0108     0.34385E+03 
  40521.2730     0.34449E+03 
  40553.5351     0.34512E+03 
  40585.7973     0.34574E+03 
  40618.0594     0.34635E+03 
  40650.3216     0.34696E+03 
  40682.5838     0.34756E+03 
  40714.8459     0.34815E+03 
  40747.1081     0.34873E+03 
  40779.3702     0.34931E+03 
  40811.6324     0.34988E+03 
  40843.8946     0.35043E+03 
  40876.1567     0.35099E+03 
  40908.4189     0.35153E+03 
  40940.6810     0.35206E+03 
  40972.9432     0.35259E+03 
  41005.2054     0.35311E+03 
  41037.4675     0.35362E+03 
  41069.7297     0.35413E+03 
  41101.9918     0.35462E+03 
  41134.2540     0.35511E+03 
  41166.5162     0.35559E+03 
  41198.7783     0.35606E+03 
  41231.0405     0.35652E+03 
  41263.3026     0.35697E+03 
  41295.5648     0.35742E+03 
  41327.8270     0.35786E+03 
  41360.0891     0.35829E+03 
  41392.3513     0.35871E+03 
  41424.6134     0.35912E+03 
  41456.8756     0.35952E+03 
  41489.1378     0.35992E+03 
  41521.3999     0.36031E+03 
  41553.6621     0.36069E+03 
  41585.9242     0.36106E+03 
  41618.1864     0.36142E+03 
  41650.4486     0.36178E+03 
  41682.7107     0.36212E+03 
  41714.9729     0.36246E+03 
  41747.2350     0.36279E+03 
  41779.4972     0.36311E+03 
  41811.7594     0.36342E+03 
  41844.0215     0.36372E+03 
  41876.2837     0.36402E+03 
  41908.5458     0.36431E+03 
  41940.8080     0.36458E+03 
  41973.0702     0.36485E+03 
  42005.3323     0.36511E+03 
  42037.5945     0.36537E+03 
  42069.8566     0.36561E+03 
  42102.1188     0.36585E+03 
  42134.3810     0.36607E+03 
  42166.6431     0.36629E+03 
  42198.9053     0.36650E+03 
  42231.1674     0.36671E+03 
  42263.4296     0.36690E+03 
  42295.6918     0.36708E+03 
  42327.9539     0.36726E+03 
  42360.2161     0.36743E+03 
  42392.4782     0.36759E+03 
  42424.7404     0.36774E+03 
  42457.0026     0.36788E+03 
  42489.2647     0.36801E+03 
  42521.5269     0.36814E+03 
  42553.7890     0.36826E+03 
  42586.0512     0.36836E+03 
  42618.3134     0.36846E+03 
  42650.5755     0.36855E+03 
  42682.8377     0.36864E+03 
  42715.0998     0.36871E+03 
  42747.3620     0.36878E+03 
  42779.6242     0.36884E+03 
  42811.8863     0.36888E+03 
  42844.1485     0.36893E+03 
  42876.4106     0.36896E+03 
  42908.6728     0.36898E+03 
  42940.9350     0.36900E+03 
  42973.1971     0.36900E+03 
  43005.4593     0.36900E+03 
  43037.7214     0.36899E+03 
  43069.9836     0.36898E+03 
  43102.2458     0.36895E+03 
  43134.5079     0.36891E+03 
  43166.7701     0.36887E+03 
  43199.0322     0.36882E+03 
  43231.2944     0.36876E+03 
  43263.5566     0.36869E+03 
  43295.8187     0.36862E+03 
  43328.0809     0.36853E+03 
  43360.3430     0.36844E+03 
  43392.6052     0.36834E+03 
  43424.8674     0.36823E+03 
  43457.1295     0.36812E+03 
  43489.3917     0.36799E+03 
  43521.6538     0.36786E+03 
  43553.9160     0.36772E+03 
  43586.1782     0.36757E+03 
  43618.4403     0.36741E+03 
  43650.7025     0.36725E+03 
  43682.9646     0.36707E+03 
  43715.2268     0.36689E+03 
  43747.4890     0.36670E+03 
  43779.7511     0.36651E+03 
  43812.0133     0.36630E+03 
  43844.2754     0.36609E+03 
  43876.5376     0.36587E+03 
  43908.7998     0.36564E+03 
  43941.0619     0.36541E+03 
  43973.3241     0.36516E+03 
  44005.5862     0.36491E+03 
  44037.8484     0.36465E+03 
  44070.1106     0.36438E+03 
  44102.3727     0.36411E+03 
  44134.6349     0.36383E+03 
  44166.8970     0.36354E+03 
  44199.1592     0.36324E+03 
  44231.4214     0.36294E+03 
  44263.6835     0.36262E+03 
  44295.9457     0.36230E+03 
  44328.2078     0.36198E+03 
  44360.4700     0.36164E+03 
  44392.7322     0.36130E+03 
  44424.9943     0.36095E+03 
  44457.2565     0.36059E+03 
  44489.5186     0.36023E+03 
  44521.7808     0.35986E+03 
  44554.0430     0.35948E+03 
  44586.3051     0.35909E+03 
  44618.5673     0.35870E+03 
  44650.8294     0.35830E+03 
  44683.0916     0.35790E+03 
  44715.3538     0.35748E+03 
  44747.6159     0.35706E+03 
  44779.8781     0.35663E+03 
  44812.1402     0.35620E+03 
  44844.4024     0.35576E+03 
  44876.6646     0.35531E+03 
  44908.9267     0.35485E+03 
  44941.1889     0.35439E+03 
  44973.4510     0.35392E+03 
  45005.7132     0.35344E+03 
  45037.9754     0.35296E+03 
  45070.2375     0.35247E+03 
  45102.4997     0.35198E+03 
  45134.7618     0.35148E+03 
  45167.0240     0.35097E+03 
  45199.2862     0.35045E+03 
  45231.5483     0.34993E+03 
  45263.8105     0.34940E+03 
  45296.0726     0.34887E+03 
  45328.3348     0.34833E+03 
  45360.5970     0.34778E+03 
  45392.8591     0.34723E+03 
  45425.1213     0.34667E+03 
  45457.3834     0.34610E+03 
  45489.6456     0.34553E+03 
  45521.9078     0.34495E+03 
  45554.1699     0.34437E+03 
  45586.4321     0.34378E+03 
  45618.6942     0.34319E+03 
  45650.9564     0.34258E+03 
  45683.2186     0.34198E+03 
  45715.4807     0.34136E+03 
  45747.7429     0.34074E+03 
  45780.0050     0.34012E+03 
  45812.2672     0.33949E+03 
  45844.5294     0.33885E+03 
  45876.7915     0.33821E+03 
  45909.0537     0.33756E+03 
  45941.3158     0.33691E+03 
  45973.5780     0.33625E+03 
  46005.8402     0.33559E+03 
  46038.1023     0.33492E+03 
  46070.3645     0.33425E+03 
  46102.6266     0.33357E+03 
  46134.8888     0.33288E+03 
  46167.1510     0.33219E+03 
  46199.4131     0.33150E+03 
  46231.6753     0.33080E+03 
  46263.9374     0.33009E+03 
  46296.1996     0.32938E+03 
  46328.4618     0.32867E+03 
  46360.7239     0.32795E+03 
  46392.9861     0.32722E+03 
  46425.2482     0.32649E+03 
  46457.5104     0.32576E+03 
  46489.7726     0.32502E+03 
  46522.0347     0.32427E+03 
  46554.2969     0.32353E+03 
  46586.5590     0.32277E+03 
  46618.8212     0.32202E+03 
  46651.0834     0.32125E+03 
  46683.3455     0.32049E+03 
  46715.6077     0.31971E+03 
  46747.8698     0.31894E+03 
  46780.1320     0.31816E+03 
  46812.3942     0.31738E+03 
  46844.6563     0.31659E+03 
  46876.9185     0.31579E+03 
  46909.1806     0.31500E+03 
  46941.4428     0.31420E+03 
  46973.7050     0.31339E+03 
  47005.9671     0.31258E+03 
  47038.2293     0.31177E+03 
  47070.4914     0.31095E+03 
  47102.7536     0.31013E+03 
  47135.0158     0.30931E+03 
  47167.2779     0.30848E+03 
  47199.5401     0.30765E+03 
  47231.8022     0.30681E+03 
  47264.0644     0.30598E+03 
  47296.3266     0.30513E+03 
  47328.5887     0.30429E+03 
  47360.8509     0.30344E+03 
  47393.1130     0.30258E+03 
  47425.3752     0.30173E+03 
  47457.6374     0.30087E+03 
  47489.8995     0.30000E+03 
  47522.1617     0.29914E+03 
  47554.4238     0.29827E+03 
  47586.6860     0.29740E+03 
  47618.9482     0.29652E+03 
  47651.2103     0.29564E+03 
  47683.4725     0.29476E+03 
  47715.7346     0.29388E+03 
  47747.9968     0.29299E+03 
  47780.2590     0.29210E+03 
  47812.5211     0.29120E+03 
  47844.7833     0.29031E+03 
  47877.0454     0.28941E+03 
  47909.3076     0.28851E+03 
  47941.5698     0.28760E+03 
  47973.8319     0.28670E+03 
  48006.0941     0.28579E+03 
  48038.3562     0.28488E+03 
  48070.6184     0.28396E+03 
  48102.8806     0.28304E+03 
  48135.1427     0.28213E+03 
  48167.4049     0.28120E+03 
  48199.6670     0.28028E+03 
  48231.9292     0.27935E+03 
  48264.1914     0.27843E+03 
  48296.4535     0.27750E+03 
  48328.7157     0.27656E+03 
  48360.9778     0.27563E+03 
  48393.2400     0.27469E+03 
  48425.5022     0.27376E+03 
  48457.7643     0.27281E+03 
  48490.0265     0.27187E+03 
  48522.2886     0.27093E+03 
  48554.5508     0.26998E+03 
  48586.8130     0.26904E+03 
  48619.0751     0.26809E+03 
  48651.3373     0.26714E+03 
  48683.5994     0.26618E+03 
  48715.8616     0.26523E+03 
  48748.1238     0.26427E+03 
  48780.3859     0.26332E+03 
  48812.6481     0.26236E+03 
  48844.9102     0.26140E+03 
  48877.1724     0.26044E+03 
  48909.4346     0.25947E+03 
  48941.6967     0.25851E+03 
  48973.9589     0.25754E+03 
  49006.2210     0.25658E+03 
  49038.4832     0.25561E+03 
  49070.7454     0.25464E+03 
  49103.0075     0.25367E+03 
  49135.2697     0.25270E+03 
  49167.5318     0.25173E+03 
  49199.7940     0.25076E+03 
  49232.0562     0.24978E+03 
  49264.3183     0.24881E+03 
  49296.5805     0.24783E+03 
  49328.8426     0.24686E+03 
  49361.1048     0.24588E+03 
  49393.3670     0.24490E+03 
  49425.6291     0.24393E+03 
  49457.8913     0.24295E+03 
  49490.1534     0.24197E+03 
  49522.4156     0.24099E+03 
  49554.6778     0.24001E+03 
  49586.9399     0.23903E+03 
  49619.2021     0.23805E+03 
  49651.4642     0.23706E+03 
  49683.7264     0.23608E+03 
  49715.9886     0.23510E+03 
  49748.2507     0.23412E+03 
  49780.5129     0.23313E+03 
  49812.7750     0.23215E+03 
  49845.0372     0.23117E+03 
  49877.2994     0.23018E+03 
  49909.5615     0.22920E+03 
  49941.8237     0.22822E+03 
  49974.0858     0.22723E+03 
  50006.3480     0.22625E+03 
  50038.6102     0.22526E+03 
  50070.8723     0.22428E+03 
  50103.1345     0.22330E+03 
  50135.3966     0.22231E+03 
  50167.6588     0.22133E+03 
  50199.9210     0.22035E+03 
  50232.1831     0.21936E+03 
  50264.4453     0.21838E+03 
  50296.7074     0.21740E+03 
  50328.9696     0.21642E+03 
  50361.2318     0.21544E+03 
  50393.4939     0.21445E+03 
  50425.7561     0.21347E+03 
  50458.0182     0.21249E+03 
  50490.2804     0.21151E+03 
  50522.5426     0.21053E+03 
  50554.8047     0.20956E+03 
  50587.0669     0.20858E+03 
  50619.3290     0.20760E+03 
  50651.5912     0.20662E+03 
  50683.8534     0.20565E+03 
  50716.1155     0.20467E+03 
  50748.3777     0.20370E+03 
  50780.6398     0.20272E+03 
  50812.9020     0.20175E+03 
  50845.1642     0.20078E+03 
  50877.4263     0.19981E+03 
  50909.6885     0.19884E+03 
  50941.9506     0.19787E+03 
  50974.2128     0.19690E+03 
  51006.4750     0.19593E+03 
  51038.7371     0.19496E+03 
  51070.9993     0.19400E+03 
  51103.2614     0.19303E+03 
  51135.5236     0.19207E+03 
  51167.7858     0.19111E+03 
  51200.0479     0.19015E+03 
  51232.3101     0.18919E+03 
  51264.5722     0.18823E+03 
  51296.8344     0.18727E+03 
  51329.0966     0.18632E+03 
  51361.3587     0.18536E+03 
  51393.6209     0.18441E+03 
  51425.8830     0.18345E+03 
  51458.1452     0.18250E+03 
  51490.4074     0.18155E+03 
  51522.6695     0.18061E+03 
  51554.9317     0.17966E+03 
  51587.1938     0.17871E+03 
  51619.4560     0.17777E+03 
  51651.7182     0.17683E+03 
  51683.9803     0.17589E+03 
  51716.2425     0.17495E+03 
  51748.5046     0.17401E+03 
  51780.7668     0.17307E+03 
  51813.0290     0.17214E+03 
  51845.2911     0.17121E+03 
  51877.5533     0.17027E+03 
  51909.8154     0.16935E+03 
  51942.0776     0.16842E+03 
  51974.3398     0.16749E+03 
  52006.6019     0.16657E+03 
  52038.8641     0.16564E+03 
  52071.1262     0.16472E+03 
  52103.3884     0.16380E+03 
  52135.6506     0.16289E+03 
  52167.9127     0.16197E+03 
  52200.1749     0.16106E+03 
  52232.4370     0.16015E+03 
  52264.6992     0.15924E+03 
  52296.9614     0.15833E+03 
  52329.2235     0.15742E+03 
  52361.4857     0.15652E+03 
  52393.7478     0.15562E+03 
  52426.0100     0.15472E+03 
  52458.2722     0.15382E+03 
  52490.5343     0.15292E+03 
  52522.7965     0.15203E+03 
  52555.0586     0.15114E+03 
  52587.3208     0.15025E+03 
  52619.5830     0.14936E+03 
  52651.8451     0.14847E+03 
  52684.1073     0.14759E+03 
  52716.3694     0.14671E+03 
  52748.6316     0.14583E+03 
  52780.8938     0.14495E+03 
  52813.1559     0.14408E+03 
  52845.4181     0.14320E+03 
  52877.6802     0.14233E+03 
  52909.9424     0.14147E+03 
  52942.2046     0.14060E+03 
  52974.4667     0.13974E+03 
  53006.7289     0.13887E+03 
  53038.9910     0.13801E+03 
  53071.2532     0.13716E+03 
  53103.5154     0.13630E+03 
  53135.7775     0.13545E+03 
  53168.0397     0.13460E+03 
  53200.3018     0.13375E+03 
  53232.5640     0.13291E+03 
  53264.8262     0.13207E+03 
  53297.0883     0.13123E+03 
  53329.3505     0.13039E+03 
  53361.6126     0.12955E+03 
  53393.8748     0.12872E+03 
  53426.1370     0.12789E+03 
  53458.3991     0.12706E+03 
  53490.6613     0.12623E+03 
  53522.9234     0.12541E+03 
  53555.1856     0.12459E+03 
  53587.4478     0.12377E+03 
  53619.7099     0.12296E+03 
  53651.9721     0.12214E+03 
  53684.2342     0.12133E+03 
  53716.4964     0.12052E+03 
  53748.7586     0.11972E+03 
  53781.0207     0.11891E+03 
  53813.2829     0.11811E+03 
  53845.5450     0.11731E+03 
  53877.8072     0.11652E+03 
  53910.0694     0.11573E+03 
  53942.3315     0.11494E+03 
  53974.5937     0.11415E+03 
  54006.8558     0.11336E+03 
  54039.1180     0.11258E+03 
  54071.3802     0.11180E+03 
  54103.6423     0.11102E+03 
  54135.9045     0.11025E+03 
  54168.1666     0.10948E+03 
  54200.4288     0.10871E+03 
  54232.6910     0.10794E+03 
  54264.9531     0.10718E+03 
  54297.2153     0.10641E+03 
  54329.4774     0.10565E+03 
  54361.7396     0.10490E+03 
  54394.0018     0.10415E+03 
  54426.2639     0.10339E+03 
  54458.5261     0.10265E+03 
  54490.7882     0.10190E+03 
  54523.0504     0.10116E+03 
  54555.3126     0.10042E+03 
  54587.5747     0.99681E+02 
  54619.8369     0.98947E+02 
  54652.0990     0.98215E+02 
  54684.3612     0.97486E+02 
  54716.6234     0.96760E+02 
  54748.8855     0.96036E+02 
  54781.1477     0.95315E+02 
  54813.4098     0.94597E+02 
  54845.6720     0.93882E+02 
  54877.9342     0.93169E+02 
  54910.1963     0.92459E+02 
  54942.4585     0.91752E+02 
  54974.7206     0.91048E+02 
  55006.9828     0.90346E+02 
  55039.2450     0.89648E+02 
  55071.5071     0.88952E+02 
  55103.7693     0.88258E+02 
  55136.0314     0.87568E+02 
  55168.2936     0.86880E+02 
  55200.5558     0.86195E+02 
  55232.8179     0.85513E+02 
  55265.0801     0.84834E+02 
  55297.3422     0.84157E+02 
  55329.6044     0.83484E+02 
  55361.8666     0.82813E+02 
  55394.1287     0.82145E+02 
  55426.3909     0.81479E+02 
  55458.6530     0.80817E+02 
  55490.9152     0.80157E+02 
  55523.1774     0.79500E+02 
  55555.4395     0.78846E+02 
  55587.7017     0.78194E+02 
  55619.9638     0.77546E+02 
  55652.2260     0.76900E+02 
  55684.4882     0.76257E+02 
  55716.7503     0.75617E+02 
  55749.0125     0.74979E+02 
  55781.2746     0.74345E+02 
  55813.5368     0.73713E+02 
  55845.7990     0.73084E+02 
  55878.0611     0.72458E+02 
  55910.3233     0.71835E+02 
  55942.5854     0.71214E+02 
  55974.8476     0.70596E+02 
  56007.1098     0.69981E+02 
  56039.3719     0.69369E+02 
  56071.6341     0.68760E+02 
  56103.8962     0.68153E+02 
  56136.1584     0.67549E+02 
  56168.4206     0.66948E+02 
  56200.6827     0.66350E+02 
  56232.9449     0.65755E+02 
  56265.2070     0.65162E+02 
  56297.4692     0.64572E+02 
  56329.7314     0.63985E+02 
  56361.9935     0.63401E+02 
  56394.2557     0.62820E+02 
  56426.5178     0.62241E+02 
  56458.7800     0.61665E+02 
  56491.0422     0.61092E+02 
  56523.3043     0.60522E+02 
  56555.5665     0.59954E+02 
  56587.8286     0.59390E+02 
  56620.0908     0.58828E+02 
  56652.3530     0.58269E+02 
  56684.6151     0.57712E+02 
  56716.8773     0.57159E+02 
  56749.1394     0.56608E+02 
  56781.4016     0.56060E+02 
  56813.6638     0.55515E+02 
  56845.9259     0.54972E+02 
  56878.1881     0.54432E+02 
  56910.4502     0.53895E+02 
  56942.7124     0.53361E+02 
  56974.9746     0.52830E+02 
  57007.2367     0.52301E+02 
  57039.4989     0.51775E+02 
  57071.7610     0.51252E+02 
  57104.0232     0.50731E+02 
  57136.2854     0.50214E+02 
  57168.5475     0.49699E+02 
  57200.8097     0.49186E+02 
  57233.0718     0.48677E+02 
  57265.3340     0.48170E+02 
  57297.5962     0.47666E+02 
  57329.8583     0.47165E+02 
  57362.1205     0.46666E+02 
  57394.3826     0.46170E+02 
  57426.6448     0.45677E+02 
  57458.9070     0.45187E+02 
  57491.1691     0.44699E+02 
  57523.4313     0.44215E+02 
  57555.6934     0.43732E+02 
  57587.9556     0.43253E+02 
  57620.2178     0.42776E+02 
  57652.4799     0.42302E+02 
  57684.7421     0.41831E+02 
  57717.0042     0.41362E+02 
  57749.2664     0.40896E+02 
  57781.5286     0.40433E+02 
  57813.7907     0.39972E+02 
  57846.0529     0.39515E+02 
  57878.3150     0.39059E+02 
  57910.5772     0.38607E+02 
  57942.8394     0.38157E+02 
  57975.1015     0.37710E+02 
  58007.3637     0.37266E+02 
  58039.6258     0.36824E+02 
  58071.8880     0.36385E+02 
  58104.1502     0.35949E+02 
  58136.4123     0.35515E+02 
  58168.6745     0.35085E+02 
  58200.9366     0.34656E+02 
  58233.1988     0.34231E+02 
  58265.4610     0.33808E+02 
  58297.7231     0.33388E+02 
  58329.9853     0.32970E+02 
  58362.2474     0.32555E+02 
  58394.5096     0.32143E+02 
  58426.7718     0.31734E+02 
  58459.0339     0.31327E+02 
  58491.2961     0.30923E+02 
  58523.5582     0.30521E+02 
  58555.8204     0.30122E+02 
  58588.0826     0.29726E+02 
  58620.3447     0.29333E+02 
  58652.6069     0.28942E+02 
  58684.8690     0.28554E+02 
  58717.1312     0.28169E+02 
  58749.3934     0.27786E+02 
  58781.6555     0.27406E+02 
  58813.9177     0.27028E+02 
  58846.1798     0.26653E+02 
  58878.4420     0.26281E+02 
  58910.7042     0.25912E+02 
  58942.9663     0.25545E+02 
  58975.2285     0.25181E+02 
  59007.4906     0.24820E+02 
  59039.7528     0.24461E+02 
  59072.0150     0.24105E+02 
  59104.2771     0.23752E+02 
  59136.5393     0.23401E+02 
  59168.8014     0.23053E+02 
  59201.0636     0.22708E+02 
  59233.3258     0.22365E+02 
  59265.5879     0.22025E+02 
  59297.8501     0.21688E+02 
  59330.1122     0.21354E+02 
  59362.3744     0.21022E+02 
  59394.6366     0.20693E+02 
  59426.8987     0.20367E+02 
  59459.1609     0.20043E+02 
  59491.4230     0.19722E+02 
  59523.6852     0.19404E+02 
  59555.9474     0.19088E+02 
  59588.2095     0.18776E+02 
  59620.4717     0.18466E+02 
  59652.7338     0.18159E+02 
  59684.9960     0.17854E+02 
  59717.2582     0.17552E+02 
  59749.5203     0.17253E+02 
  59781.7825     0.16957E+02 
  59814.0446     0.16664E+02 
  59846.3068     0.16373E+02 
  59878.5690     0.16085E+02 
  59910.8311     0.15800E+02 
  59943.0933     0.15518E+02 
  59975.3554     0.15239E+02 
  60007.6176     0.14962E+02 
  60039.8798     0.14689E+02 
  60072.1419     0.14418E+02 
  60104.4041     0.14150E+02 
  60136.6662     0.13885E+02 
  60168.9284     0.13622E+02 
  60201.1906     0.13363E+02 
  60233.4527     0.13107E+02 
  60265.7149     0.12853E+02 
  60297.9770     0.12602E+02 
  60330.2392     0.12355E+02 
  60362.5014     0.12110E+02 
  60394.7635     0.11868E+02 
  60427.0257     0.11629E+02 
  60459.2878     0.11394E+02 
  60491.5500     0.11161E+02 
  60523.8122     0.10931E+02 
  60556.0743     0.10704E+02 
  60588.3365     0.10481E+02 
  60620.5986     0.10260E+02 
  60652.8608     0.10043E+02 
  60685.1230     0.98282E+01 
  60717.3851     0.96169E+01 
  60749.6473     0.94088E+01 
  60781.9094     0.92038E+01 
  60814.1716     0.90020E+01 
  60846.4338     0.88034E+01 
  60878.6959     0.86081E+01 
  60910.9581     0.84160E+01 
  60943.2202     0.82271E+01 
  60975.4824     0.80416E+01 
  61007.7446     0.78594E+01 
  61040.0067     0.76805E+01 
  61072.2689     0.75050E+01 
  61104.5310     0.73328E+01 
  61136.7932     0.71641E+01 
  61169.0554     0.69988E+01 
  61201.3175     0.68370E+01 
  61233.5797     0.66787E+01 
  61265.8418     0.65239E+01 
  61298.1040     0.63727E+01 
  61330.3662     0.62250E+01 
  61362.6283     0.60810E+01 
  61394.8905     0.59406E+01 
  61427.1526     0.58039E+01 
  61459.4148     0.56709E+01 
  61491.6770     0.55416E+01 
  61523.9391     0.54162E+01 
  61556.2013     0.52945E+01 
  61588.4634     0.51767E+01 
  61620.7256     0.50628E+01 
  61652.9878     0.49528E+01 
  61685.2499     0.48468E+01 
  61717.5121     0.47448E+01 
  61749.7742     0.46468E+01 
  61782.0364     0.45530E+01 
  61814.2986     0.44632E+01 
  61846.5607     0.43777E+01 
  61878.8229     0.42963E+01 
  61911.0850     0.42192E+01 
  61943.3472     0.41465E+01 
  61975.6094     0.40781E+01 
  62007.8715     0.40141E+01 
  62040.1337     0.39545E+01 
  62072.3958     0.38995E+01 
  62104.6580     0.38490E+01 
  62136.9202     0.38031E+01 
  62169.1823     0.37619E+01 
  62201.4445     0.37254E+01 
  62233.7066     0.36937E+01 
  62265.9688     0.36669E+01 
  62298.2310     0.36449E+01 
  62330.4931     0.36278E+01 
  62362.7553     0.36158E+01 
  62395.0174     0.36089E+01 
  62427.2796     0.36071E+01 
  62459.5418     0.36104E+01 
  62491.8039     0.36191E+01 
  62524.0661     0.36331E+01 
  62556.3282     0.36525E+01 
  62588.5904     0.36773E+01 
  62620.8526     0.37077E+01 
  62653.1147     0.37437E+01 
  62685.3769     0.37854E+01 
  62717.6390     0.38329E+01 
  62749.9012     0.38862E+01 
  62782.1634     0.39454E+01 
  62814.4255     0.40106E+01 
  62846.6877     0.40819E+01 
  62878.9498     0.41593E+01 
  62911.2120     0.42430E+01 
  62943.4742     0.43330E+01 
  62975.7363     0.44294E+01 
  63007.9985     0.45323E+01 
  63040.2606     0.46418E+01 
  63072.5228     0.47580E+01 
  63104.7850     0.48810E+01 
  63137.0471     0.50108E+01 
  63169.3093     0.51476E+01 
  63201.5714     0.52915E+01 
  63233.8336     0.54426E+01 
  63266.0958     0.56009E+01 
  63298.3579     0.57665E+01 
  63330.6201     0.59397E+01 
  63362.8822     0.61204E+01 
  63395.1444     0.63088E+01 
  63427.4066     0.65050E+01 
  63459.6687     0.67092E+01 
  63491.9309     0.69213E+01 
  63524.1930     0.71416E+01 
  63556.4552     0.73702E+01 
  63588.7174     0.76071E+01 
  63620.9795     0.78525E+01 
  63653.2417     0.81066E+01 
  63685.5038     0.83694E+01 
  63717.7660     0.86411E+01 
  63750.0282     0.89218E+01 
  63782.2903     0.92116E+01 
  63814.5525     0.95107E+01 
  63846.8146     0.98192E+01 
  63879.0768     0.10137E+02 
  63911.3390     0.10465E+02 
  63943.6011     0.10803E+02 
  63975.8633     0.11150E+02 
  64008.1254     0.11508E+02 
  64040.3876     0.11876E+02 
  64072.6498     0.12254E+02 
  64104.9119     0.12643E+02 
  64137.1741     0.13043E+02 
  64169.4362     0.13453E+02 
  64201.6984     0.13875E+02 
  64233.9606     0.14307E+02 
  64266.2227     0.14751E+02 
  64298.4849     0.15207E+02 
  64330.7470     0.15674E+02 
  64363.0092     0.16154E+02 
  64395.2714     0.16645E+02 
  64427.5335     0.17149E+02 
  64459.7957     0.17664E+02 
  64492.0578     0.18193E+02 
  64524.3200     0.18734E+02 
  64556.5822     0.19288E+02 
  64588.8443     0.19856E+02 
  64621.1065     0.20436E+02 
  64653.3686     0.21031E+02 
  64685.6308     0.21639E+02 
  64717.8930     0.22261E+02 
  64750.1551     0.22897E+02 
  64782.4173     0.23547E+02 
  64814.6794     0.24212E+02 
  64846.9416     0.24891E+02 
  64879.2038     0.25586E+02 
  64911.4659     0.26296E+02 
  64943.7281     0.27021E+02 
  64975.9902     0.27761E+02 
  65008.2524     0.28518E+02 
  65040.5146     0.29291E+02 
  65072.7767     0.30079E+02 
  65105.0389     0.30885E+02 
  65137.3010     0.31707E+02 
  65169.5632     0.32546E+02 
  65201.8254     0.33402E+02 
  65234.0875     0.34276E+02 
  65266.3497     0.35168E+02 
  65298.6118     0.36077E+02 
  65330.8740     0.37005E+02 
  65363.1362     0.37951E+02 
  65395.3983     0.38916E+02 
  65427.6605     0.39899E+02 
  65459.9226     0.40902E+02 
  65492.1848     0.41925E+02 
  65524.4470     0.42967E+02 
  65556.7091     0.44029E+02 
  65588.9713     0.45112E+02 
  65621.2334     0.46215E+02 
  65653.4956     0.47339E+02 
  65685.7578     0.48484E+02 
  65718.0199     0.49651E+02 
  65750.2821     0.50839E+02 
  65782.5442     0.52049E+02 
  65814.8064     0.53282E+02 
  65847.0686     0.54537E+02 
  65879.3307     0.55815E+02 
  65911.5929     0.57116E+02 
  65943.8550     0.58440E+02 
  65976.1172     0.59789E+02 
  66008.3794     0.61161E+02 
  66040.6415     0.62558E+02 
  66072.9037     0.63980E+02 
  66105.1658     0.65427E+02 
  66137.4280     0.66899E+02 
  66169.6902     0.68396E+02 
  66201.9523     0.69920E+02 
  66234.2145     0.71470E+02 
  66266.4766     0.73047E+02 
  66298.7388     0.74651E+02 
  66331.0010     0.76282E+02 
  66363.2631     0.77941E+02 
  66395.5253     0.79627E+02 
  66427.7874     0.81343E+02 
  66460.0496     0.83087E+02 
  66492.3118     0.84860E+02 
  66524.5739     0.86662E+02 
  66556.8361     0.88494E+02 
  66589.0982     0.90357E+02 
  66621.3604     0.92250E+02 
  66653.6226     0.94173E+02 
  66685.8847     0.96128E+02 
  66718.1469     0.98115E+02 
  66750.4090     0.10013E+03 
  66782.6712     0.10218E+03 
  66814.9334     0.10427E+03 
  66847.1955     0.10638E+03 
  66879.4577     0.10853E+03 
  66911.7198     0.11072E+03 
  66943.9820     0.11294E+03 
  66976.2442     0.11519E+03 
  67008.5063     0.11748E+03 
  67040.7685     0.11980E+03 
  67073.0306     0.12216E+03 
  67105.2928     0.12456E+03 
  67137.5550     0.12699E+03 
  67169.8171     0.12946E+03 
  67202.0793     0.13197E+03 
  67234.3414     0.13451E+03 
  67266.6036     0.13709E+03 
  67298.8658     0.13971E+03 
  67331.1279     0.14238E+03 
  67363.3901     0.14508E+03 
  67395.6522     0.14782E+03 
  67427.9144     0.15060E+03 
  67460.1766     0.15342E+03 
  67492.4387     0.15628E+03 
  67524.7009     0.15918E+03 
  67556.9630     0.16213E+03 
  67589.2252     0.16512E+03 
  67621.4874     0.16815E+03 
  67653.7495     0.17122E+03 
  67686.0117     0.17434E+03 
  67718.2738     0.17751E+03 
  67750.5360     0.18071E+03 
  67782.7982     0.18397E+03 
  67815.0603     0.18726E+03 
  67847.3225     0.19061E+03 
  67879.5846     0.19400E+03 
  67911.8468     0.19743E+03 
  67944.1090     0.20092E+03 
  67976.3711     0.20445E+03 
  68008.6333     0.20803E+03 
  68040.8954     0.21166E+03 
  68073.1576     0.21534E+03 
  68105.4198     0.21907E+03 
  68137.6819     0.22284E+03 
  68169.9441     0.22667E+03 
  68202.2062     0.23055E+03 
  68234.4684     0.23448E+03 
  68266.7306     0.23846E+03 
  68298.9927     0.24250E+03 
  68331.2549     0.24658E+03 
  68363.5170     0.25072E+03 
  68395.7792     0.25492E+03 
  68428.0414     0.25917E+03 
  68460.3035     0.26347E+03 
  68492.5657     0.26783E+03 
  68524.8278     0.27224E+03 
  68557.0900     0.27671E+03 
  68589.3522     0.28123E+03 
  68621.6143     0.28581E+03 
  68653.8765     0.29045E+03 
  68686.1386     0.29515E+03 
  68718.4008     0.29990E+03 
  68750.6630     0.30472E+03 
  68782.9251     0.30959E+03 
  68815.1873     0.31452E+03 
  68847.4494     0.31951E+03 
  68879.7116     0.32457E+03 
  68911.9738     0.32968E+03 
  68944.2359     0.33485E+03 
  68976.4981     0.34009E+03 
  69008.7602     0.34539E+03 
  69041.0224     0.35075E+03 
  69073.2846     0.35617E+03 
  69105.5467     0.36166E+03 
  69137.8089     0.36721E+03 
  69170.0710     0.37283E+03 
  69202.3332     0.37851E+03 
  69234.5954     0.38426E+03 
  69266.8575     0.39007E+03 
  69299.1197     0.39595E+03 
  69331.3818     0.40189E+03 
  69363.6440     0.40791E+03 
  69395.9062     0.41399E+03 
  69428.1683     0.42013E+03 
  69460.4305     0.42635E+03 
  69492.6926     0.43263E+03 
  69524.9548     0.43899E+03 
  69557.2170     0.44541E+03 
  69589.4791     0.45190E+03 
  69621.7413     0.45847E+03 
  69654.0034     0.46510E+03 
  69686.2656     0.47181E+03 
  69718.5278     0.47858E+03 
  69750.7899     0.48543E+03 
  69783.0521     0.49235E+03 
  69815.3142     0.49935E+03 
  69847.5764     0.50641E+03 
  69879.8386     0.51356E+03 
  69912.1007     0.52077E+03 
  69944.3629     0.52806E+03 
  69976.6250     0.53542E+03 
  70008.8872     0.54286E+03 
  70041.1494     0.55038E+03 
  70073.4115     0.55797E+03 
  70105.6737     0.56563E+03 
  70137.9358     0.57337E+03 
  70170.1980     0.58119E+03 
  70202.4602     0.58909E+03 
  70234.7223     0.59706E+03 
  70266.9845     0.60512E+03 
  70299.2466     0.61325E+03 
  70331.5088     0.62146E+03 
  70363.7710     0.62974E+03 
  70396.0331     0.63811E+03 
  70428.2953     0.64656E+03 
  70460.5574     0.65508E+03 
  70492.8196     0.66369E+03 
  70525.0818     0.67237E+03 
  70557.3439     0.68114E+03 
  70589.6061     0.68999E+03 
  70621.8682     0.69892E+03 
  70654.1304     0.70793E+03 
  70686.3926     0.71702E+03 
  70718.6547     0.72619E+03 
  70750.9169     0.73545E+03 
  70783.1790     0.74479E+03 
  70815.4412     0.75421E+03 
  70847.7034     0.76372E+03 
  70879.9655     0.77330E+03 
  70912.2277     0.78297E+03 
  70944.4898     0.79273E+03 
  70976.7520     0.80257E+03 
  71009.0142     0.81249E+03 
  71041.2763     0.82250E+03 
  71073.5385     0.83259E+03 
  71105.8006     0.84277E+03 
  71138.0628     0.85303E+03 
  71170.3250     0.86337E+03 
  71202.5871     0.87380E+03 
  71234.8493     0.88432E+03 
  71267.1114     0.89492E+03 
  71299.3736     0.90561E+03 
  71331.6358     0.91638E+03 
  71363.8979     0.92724E+03 
  71396.1601     0.93818E+03 
  71428.4222     0.94922E+03 
  71460.6844     0.96033E+03 
  71492.9466     0.97154E+03 
  71525.2087     0.98283E+03 
  71557.4709     0.99420E+03 
  71589.7330     0.10057E+04 
  71621.9952     0.10172E+04 
  71654.2574     0.10288E+04 
  71686.5195     0.10406E+04 
  71718.7817     0.10524E+04 
  71751.0438     0.10643E+04 
  71783.3060     0.10763E+04 
  71815.5682     0.10883E+04 
  71847.8303     0.11005E+04 
  71880.0925     0.11127E+04 
  71912.3546     0.11251E+04 
  71944.6168     0.11375E+04 
  71976.8790     0.11500E+04 
  72009.1411     0.11626E+04 
  72041.4033     0.11752E+04 
  72073.6654     0.11880E+04 
  72105.9276     0.12008E+04 
  72138.1898     0.12138E+04 
  72170.4519     0.12268E+04 
  72202.7141     0.12399E+04 
  72234.9762     0.12531E+04 
  72267.2384     0.12664E+04 
  72299.5006     0.12797E+04 
  72331.7627     0.12932E+04 
  72364.0249     0.13067E+04 
  72396.2870     0.13203E+04 
  72428.5492     0.13341E+04 
  72460.8114     0.13478E+04 
  72493.0735     0.13617E+04 
  72525.3357     0.13757E+04 
  72557.5978     0.13897E+04 
  72589.8600     0.14039E+04 
