  32262.1600     0.13847E+03 
  32294.4222     0.14020E+03 
  32326.6843     0.14193E+03 
  32358.9465     0.14369E+03 
  32391.2086     0.14545E+03 
  32423.4708     0.14724E+03 
  32455.7330     0.14903E+03 
  32487.9951     0.15085E+03 
  32520.2573     0.15267E+03 
  32552.5194     0.15451E+03 
  32584.7816     0.15637E+03 
  32617.0438     0.15824E+03 
  32649.3059     0.16013E+03 
  32681.5681     0.16203E+03 
  32713.8302     0.16394E+03 
  32746.0924     0.16587E+03 
  32778.3546     0.16782E+03 
  32810.6167     0.16978E+03 
  32842.8789     0.17175E+03 
  32875.1410     0.17374E+03 
  32907.4032     0.17575E+03 
  32939.6654     0.17777E+03 
  32971.9275     0.17980E+03 
  33004.1897     0.18185E+03 
  33036.4518     0.18392E+03 
  33068.7140     0.18600E+03 
  33100.9762     0.18809E+03 
  33133.2383     0.19020E+03 
  33165.5005     0.19232E+03 
  33197.7626     0.19446E+03 
  33230.0248     0.19661E+03 
  33262.2870     0.19878E+03 
  33294.5491     0.20096E+03 
  33326.8113     0.20316E+03 
  33359.0734     0.20537E+03 
  33391.3356     0.20760E+03 
  33423.5978     0.20984E+03 
  33455.8599     0.21209E+03 
  33488.1221     0.21436E+03 
  33520.3842     0.21665E+03 
  33552.6464     0.21894E+03 
  33584.9086     0.22126E+03 
  33617.1707     0.22358E+03 
  33649.4329     0.22592E+03 
  33681.6950     0.22828E+03 
  33713.9572     0.23065E+03 
  33746.2194     0.23303E+03 
  33778.4815     0.23543E+03 
  33810.7437     0.23784E+03 
  33843.0058     0.24026E+03 
  33875.2680     0.24270E+03 
  33907.5302     0.24515E+03 
  33939.7923     0.24762E+03 
  33972.0545     0.25010E+03 
  34004.3166     0.25259E+03 
  34036.5788     0.25509E+03 
  34068.8410     0.25761E+03 
  34101.1031     0.26015E+03 
  34133.3653     0.26269E+03 
  34165.6274     0.26525E+03 
  34197.8896     0.26782E+03 
  34230.1518     0.27041E+03 
  34262.4139     0.27300E+03 
  34294.6761     0.27561E+03 
  34326.9382     0.27824E+03 
  34359.2004     0.28087E+03 
  34391.4626     0.28352E+03 
  34423.7247     0.28618E+03 
  34455.9869     0.28885E+03 
  34488.2490     0.29153E+03 
  34520.5112     0.29423E+03 
  34552.7734     0.29694E+03 
  34585.0355     0.29966E+03 
  34617.2977     0.30239E+03 
  34649.5598     0.30513E+03 
  34681.8220     0.30788E+03 
  34714.0842     0.31065E+03 
  34746.3463     0.31343E+03 
  34778.6085     0.31621E+03 
  34810.8706     0.31901E+03 
  34843.1328     0.32182E+03 
  34875.3950     0.32464E+03 
  34907.6571     0.32747E+03 
  34939.9193     0.33031E+03 
  34972.1814     0.33316E+03 
  35004.4436     0.33602E+03 
  35036.7058     0.33890E+03 
  35068.9679     0.34178E+03 
  35101.2301     0.34467E+03 
  35133.4922     0.34757E+03 
  35165.7544     0.35048E+03 
  35198.0166     0.35339E+03 
  35230.2787     0.35632E+03 
  35262.5409     0.35926E+03 
  35294.8030     0.36220E+03 
  35327.0652     0.36516E+03 
  35359.3274     0.36812E+03 
  35391.5895     0.37109E+03 
  35423.8517     0.37407E+03 
  35456.1138     0.37705E+03 
  35488.3760     0.38005E+03 
  35520.6382     0.38305E+03 
  35552.9003     0.38606E+03 
  35585.1625     0.38907E+03 
  35617.4246     0.39210E+03 
  35649.6868     0.39513E+03 
  35681.9490     0.39816E+03 
  35714.2111     0.40121E+03 
  35746.4733     0.40426E+03 
  35778.7354     0.40731E+03 
  35810.9976     0.41037E+03 
  35843.2598     0.41344E+03 
  35875.5219     0.41651E+03 
  35907.7841     0.41959E+03 
  35940.0462     0.42268E+03 
  35972.3084     0.42577E+03 
  36004.5706     0.42886E+03 
  36036.8327     0.43196E+03 
  36069.0949     0.43506E+03 
  36101.3570     0.43817E+03 
  36133.6192     0.44128E+03 
  36165.8814     0.44439E+03 
  36198.1435     0.44751E+03 
  36230.4057     0.45063E+03 
  36262.6678     0.45376E+03 
  36294.9300     0.45688E+03 
  36327.1922     0.46002E+03 
  36359.4543     0.46315E+03 
  36391.7165     0.46628E+03 
  36423.9786     0.46942E+03 
  36456.2408     0.47256E+03 
  36488.5030     0.47570E+03 
  36520.7651     0.47885E+03 
  36553.0273     0.48199E+03 
  36585.2894     0.48514E+03 
  36617.5516     0.48828E+03 
  36649.8138     0.49143E+03 
  36682.0759     0.49458E+03 
  36714.3381     0.49772E+03 
  36746.6002     0.50087E+03 
  36778.8624     0.50402E+03 
  36811.1246     0.50717E+03 
  36843.3867     0.51031E+03 
  36875.6489     0.51346E+03 
  36907.9110     0.51660E+03 
  36940.1732     0.51974E+03 
  36972.4354     0.52289E+03 
  37004.6975     0.52602E+03 
  37036.9597     0.52916E+03 
  37069.2218     0.53230E+03 
  37101.4840     0.53543E+03 
  37133.7462     0.53856E+03 
  37166.0083     0.54169E+03 
  37198.2705     0.54481E+03 
  37230.5326     0.54793E+03 
  37262.7948     0.55105E+03 
  37295.0570     0.55416E+03 
  37327.3191     0.55727E+03 
  37359.5813     0.56037E+03 
  37391.8434     0.56347E+03 
  37424.1056     0.56657E+03 
  37456.3678     0.56966E+03 
  37488.6299     0.57274E+03 
  37520.8921     0.57582E+03 
  37553.1542     0.57890E+03 
  37585.4164     0.58197E+03 
  37617.6786     0.58503E+03 
  37649.9407     0.58808E+03 
  37682.2029     0.59113E+03 
  37714.4650     0.59417E+03 
  37746.7272     0.59721E+03 
  37778.9894     0.60023E+03 
  37811.2515     0.60325E+03 
  37843.5137     0.60627E+03 
  37875.7758     0.60927E+03 
  37908.0380     0.61227E+03 
  37940.3002     0.61525E+03 
  37972.5623     0.61823E+03 
  38004.8245     0.62120E+03 
  38037.0866     0.62416E+03 
  38069.3488     0.62711E+03 
  38101.6110     0.63005E+03 
  38133.8731     0.63298E+03 
  38166.1353     0.63591E+03 
  38198.3974     0.63882E+03 
  38230.6596     0.64172E+03 
  38262.9218     0.64461E+03 
  38295.1839     0.64748E+03 
  38327.4461     0.65035E+03 
  38359.7082     0.65321E+03 
  38391.9704     0.65605E+03 
  38424.2326     0.65888E+03 
  38456.4947     0.66171E+03 
  38488.7569     0.66451E+03 
  38521.0190     0.66731E+03 
  38553.2812     0.67009E+03 
  38585.5434     0.67286E+03 
  38617.8055     0.67562E+03 
  38650.0677     0.67836E+03 
  38682.3298     0.68109E+03 
  38714.5920     0.68381E+03 
  38746.8542     0.68651E+03 
  38779.1163     0.68920E+03 
  38811.3785     0.69187E+03 
  38843.6406     0.69453E+03 
  38875.9028     0.69717E+03 
  38908.1650     0.69980E+03 
  38940.4271     0.70241E+03 
  38972.6893     0.70501E+03 
  39004.9514     0.70759E+03 
  39037.2136     0.71016E+03 
  39069.4758     0.71271E+03 
  39101.7379     0.71524E+03 
  39134.0001     0.71776E+03 
  39166.2622     0.72026E+03 
  39198.5244     0.72274E+03 
  39230.7866     0.72521E+03 
  39263.0487     0.72766E+03 
  39295.3109     0.73009E+03 
  39327.5730     0.73250E+03 
  39359.8352     0.73490E+03 
  39392.0974     0.73728E+03 
  39424.3595     0.73964E+03 
  39456.6217     0.74198E+03 
  39488.8838     0.74430E+03 
  39521.1460     0.74661E+03 
  39553.4082     0.74889E+03 
  39585.6703     0.75116E+03 
  39617.9325     0.75341E+03 
  39650.1946     0.75564E+03 
  39682.4568     0.75785E+03 
  39714.7190     0.76003E+03 
  39746.9811     0.76220E+03 
  39779.2433     0.76435E+03 
  39811.5054     0.76648E+03 
  39843.7676     0.76859E+03 
  39876.0298     0.77068E+03 
  39908.2919     0.77274E+03 
  39940.5541     0.77479E+03 
  39972.8162     0.77682E+03 
  40005.0784     0.77882E+03 
  40037.3406     0.78080E+03 
  40069.6027     0.78276E+03 
  40101.8649     0.78470E+03 
  40134.1270     0.78662E+03 
  40166.3892     0.78852E+03 
  40198.6514     0.79039E+03 
  40230.9135     0.79225E+03 
  40263.1757     0.79408E+03 
  40295.4378     0.79588E+03 
  40327.7000     0.79767E+03 
  40359.9622     0.79943E+03 
  40392.2243     0.80117E+03 
  40424.4865     0.80289E+03 
  40456.7486     0.80458E+03 
  40489.0108     0.80625E+03 
  40521.2730     0.80790E+03 
  40553.5351     0.80953E+03 
  40585.7973     0.81113E+03 
  40618.0594     0.81270E+03 
  40650.3216     0.81426E+03 
  40682.5838     0.81579E+03 
  40714.8459     0.81729E+03 
  40747.1081     0.81878E+03 
  40779.3702     0.82024E+03 
  40811.6324     0.82167E+03 
  40843.8946     0.82308E+03 
  40876.1567     0.82447E+03 
  40908.4189     0.82583E+03 
  40940.6810     0.82716E+03 
  40972.9432     0.82848E+03 
  41005.2054     0.82976E+03 
  41037.4675     0.83103E+03 
  41069.7297     0.83227E+03 
  41101.9918     0.83348E+03 
  41134.2540     0.83467E+03 
  41166.5162     0.83583E+03 
  41198.7783     0.83697E+03 
  41231.0405     0.83808E+03 
  41263.3026     0.83917E+03 
  41295.5648     0.84024E+03 
  41327.8270     0.84127E+03 
  41360.0891     0.84229E+03 
  41392.3513     0.84327E+03 
  41424.6134     0.84424E+03 
  41456.8756     0.84517E+03 
  41489.1378     0.84608E+03 
  41521.3999     0.84697E+03 
  41553.6621     0.84783E+03 
  41585.9242     0.84866E+03 
  41618.1864     0.84947E+03 
  41650.4486     0.85025E+03 
  41682.7107     0.85101E+03 
  41714.9729     0.85174E+03 
  41747.2350     0.85245E+03 
  41779.4972     0.85313E+03 
  41811.7594     0.85378E+03 
  41844.0215     0.85441E+03 
  41876.2837     0.85501E+03 
  41908.5458     0.85559E+03 
  41940.8080     0.85614E+03 
  41973.0702     0.85667E+03 
  42005.3323     0.85717E+03 
  42037.5945     0.85764E+03 
  42069.8566     0.85809E+03 
  42102.1188     0.85851E+03 
  42134.3810     0.85890E+03 
  42166.6431     0.85928E+03 
  42198.9053     0.85962E+03 
  42231.1674     0.85994E+03 
  42263.4296     0.86023E+03 
  42295.6918     0.86050E+03 
  42327.9539     0.86074E+03 
  42360.2161     0.86096E+03 
  42392.4782     0.86115E+03 
  42424.7404     0.86131E+03 
  42457.0026     0.86145E+03 
  42489.2647     0.86156E+03 
  42521.5269     0.86165E+03 
  42553.7890     0.86171E+03 
  42586.0512     0.86175E+03 
  42618.3134     0.86176E+03 
  42650.5755     0.86174E+03 
  42682.8377     0.86171E+03 
  42715.0998     0.86164E+03 
  42747.3620     0.86155E+03 
  42779.6242     0.86143E+03 
  42811.8863     0.86129E+03 
  42844.1485     0.86113E+03 
  42876.4106     0.86094E+03 
  42908.6728     0.86072E+03 
  42940.9350     0.86048E+03 
  42973.1971     0.86022E+03 
  43005.4593     0.85993E+03 
  43037.7214     0.85961E+03 
  43069.9836     0.85927E+03 
  43102.2458     0.85891E+03 
  43134.5079     0.85852E+03 
  43166.7701     0.85810E+03 
  43199.0322     0.85767E+03 
  43231.2944     0.85720E+03 
  43263.5566     0.85672E+03 
  43295.8187     0.85621E+03 
  43328.0809     0.85567E+03 
  43360.3430     0.85512E+03 
  43392.6052     0.85453E+03 
  43424.8674     0.85393E+03 
  43457.1295     0.85330E+03 
  43489.3917     0.85264E+03 
  43521.6538     0.85197E+03 
  43553.9160     0.85127E+03 
  43586.1782     0.85054E+03 
  43618.4403     0.84980E+03 
  43650.7025     0.84903E+03 
  43682.9646     0.84824E+03 
  43715.2268     0.84742E+03 
  43747.4890     0.84658E+03 
  43779.7511     0.84572E+03 
  43812.0133     0.84484E+03 
  43844.2754     0.84393E+03 
  43876.5376     0.84300E+03 
  43908.7998     0.84205E+03 
  43941.0619     0.84108E+03 
  43973.3241     0.84008E+03 
  44005.5862     0.83907E+03 
  44037.8484     0.83803E+03 
  44070.1106     0.83697E+03 
  44102.3727     0.83589E+03 
  44134.6349     0.83478E+03 
  44166.8970     0.83366E+03 
  44199.1592     0.83252E+03 
  44231.4214     0.83135E+03 
  44263.6835     0.83016E+03 
  44295.9457     0.82895E+03 
  44328.2078     0.82773E+03 
  44360.4700     0.82648E+03 
  44392.7322     0.82521E+03 
  44424.9943     0.82392E+03 
  44457.2565     0.82261E+03 
  44489.5186     0.82128E+03 
  44521.7808     0.81993E+03 
  44554.0430     0.81856E+03 
  44586.3051     0.81717E+03 
  44618.5673     0.81576E+03 
  44650.8294     0.81434E+03 
  44683.0916     0.81289E+03 
  44715.3538     0.81143E+03 
  44747.6159     0.80994E+03 
  44779.8781     0.80844E+03 
  44812.1402     0.80692E+03 
  44844.4024     0.80538E+03 
  44876.6646     0.80382E+03 
  44908.9267     0.80225E+03 
  44941.1889     0.80065E+03 
  44973.4510     0.79904E+03 
  45005.7132     0.79741E+03 
  45037.9754     0.79577E+03 
  45070.2375     0.79410E+03 
  45102.4997     0.79242E+03 
  45134.7618     0.79073E+03 
  45167.0240     0.78901E+03 
  45199.2862     0.78728E+03 
  45231.5483     0.78553E+03 
  45263.8105     0.78377E+03 
  45296.0726     0.78199E+03 
  45328.3348     0.78019E+03 
  45360.5970     0.77838E+03 
  45392.8591     0.77656E+03 
  45425.1213     0.77471E+03 
  45457.3834     0.77285E+03 
  45489.6456     0.77098E+03 
  45521.9078     0.76909E+03 
  45554.1699     0.76719E+03 
  45586.4321     0.76527E+03 
  45618.6942     0.76334E+03 
  45650.9564     0.76139E+03 
  45683.2186     0.75943E+03 
  45715.4807     0.75745E+03 
  45747.7429     0.75546E+03 
  45780.0050     0.75346E+03 
  45812.2672     0.75144E+03 
  45844.5294     0.74941E+03 
  45876.7915     0.74737E+03 
  45909.0537     0.74531E+03 
  45941.3158     0.74325E+03 
  45973.5780     0.74116E+03 
  46005.8402     0.73907E+03 
  46038.1023     0.73696E+03 
  46070.3645     0.73484E+03 
  46102.6266     0.73271E+03 
  46134.8888     0.73057E+03 
  46167.1510     0.72841E+03 
  46199.4131     0.72625E+03 
  46231.6753     0.72407E+03 
  46263.9374     0.72188E+03 
  46296.1996     0.71968E+03 
  46328.4618     0.71747E+03 
  46360.7239     0.71525E+03 
  46392.9861     0.71302E+03 
  46425.2482     0.71077E+03 
  46457.5104     0.70852E+03 
  46489.7726     0.70626E+03 
  46522.0347     0.70399E+03 
  46554.2969     0.70170E+03 
  46586.5590     0.69941E+03 
  46618.8212     0.69711E+03 
  46651.0834     0.69480E+03 
  46683.3455     0.69248E+03 
  46715.6077     0.69015E+03 
  46747.8698     0.68781E+03 
  46780.1320     0.68547E+03 
  46812.3942     0.68312E+03 
  46844.6563     0.68075E+03 
  46876.9185     0.67838E+03 
  46909.1806     0.67600E+03 
  46941.4428     0.67362E+03 
  46973.7050     0.67122E+03 
  47005.9671     0.66882E+03 
  47038.2293     0.66641E+03 
  47070.4914     0.66400E+03 
  47102.7536     0.66158E+03 
  47135.0158     0.65915E+03 
  47167.2779     0.65671E+03 
  47199.5401     0.65427E+03 
  47231.8022     0.65182E+03 
  47264.0644     0.64937E+03 
  47296.3266     0.64691E+03 
  47328.5887     0.64444E+03 
  47360.8509     0.64197E+03 
  47393.1130     0.63949E+03 
  47425.3752     0.63701E+03 
  47457.6374     0.63452E+03 
  47489.8995     0.63203E+03 
  47522.1617     0.62953E+03 
  47554.4238     0.62703E+03 
  47586.6860     0.62452E+03 
  47618.9482     0.62201E+03 
  47651.2103     0.61949E+03 
  47683.4725     0.61697E+03 
  47715.7346     0.61445E+03 
  47747.9968     0.61192E+03 
  47780.2590     0.60939E+03 
  47812.5211     0.60685E+03 
  47844.7833     0.60432E+03 
  47877.0454     0.60177E+03 
  47909.3076     0.59923E+03 
  47941.5698     0.59668E+03 
  47973.8319     0.59413E+03 
  48006.0941     0.59158E+03 
  48038.3562     0.58902E+03 
  48070.6184     0.58647E+03 
  48102.8806     0.58391E+03 
  48135.1427     0.58134E+03 
  48167.4049     0.57878E+03 
  48199.6670     0.57621E+03 
  48231.9292     0.57365E+03 
  48264.1914     0.57108E+03 
  48296.4535     0.56851E+03 
  48328.7157     0.56594E+03 
  48360.9778     0.56336E+03 
  48393.2400     0.56079E+03 
  48425.5022     0.55822E+03 
  48457.7643     0.55564E+03 
  48490.0265     0.55307E+03 
  48522.2886     0.55049E+03 
  48554.5508     0.54791E+03 
  48586.8130     0.54534E+03 
  48619.0751     0.54276E+03 
  48651.3373     0.54018E+03 
  48683.5994     0.53761E+03 
  48715.8616     0.53503E+03 
  48748.1238     0.53245E+03 
  48780.3859     0.52988E+03 
  48812.6481     0.52731E+03 
  48844.9102     0.52473E+03 
  48877.1724     0.52216E+03 
  48909.4346     0.51959E+03 
  48941.6967     0.51702E+03 
  48973.9589     0.51445E+03 
  49006.2210     0.51188E+03 
  49038.4832     0.50931E+03 
  49070.7454     0.50675E+03 
  49103.0075     0.50419E+03 
  49135.2697     0.50163E+03 
  49167.5318     0.49907E+03 
  49199.7940     0.49651E+03 
  49232.0562     0.49396E+03 
  49264.3183     0.49140E+03 
  49296.5805     0.48885E+03 
  49328.8426     0.48631E+03 
  49361.1048     0.48376E+03 
  49393.3670     0.48122E+03 
  49425.6291     0.47868E+03 
  49457.8913     0.47615E+03 
  49490.1534     0.47361E+03 
  49522.4156     0.47108E+03 
  49554.6778     0.46856E+03 
  49586.9399     0.46603E+03 
  49619.2021     0.46351E+03 
  49651.4642     0.46100E+03 
  49683.7264     0.45848E+03 
  49715.9886     0.45597E+03 
  49748.2507     0.45347E+03 
  49780.5129     0.45097E+03 
  49812.7750     0.44847E+03 
  49845.0372     0.44598E+03 
  49877.2994     0.44349E+03 
  49909.5615     0.44101E+03 
  49941.8237     0.43852E+03 
  49974.0858     0.43605E+03 
  50006.3480     0.43358E+03 
  50038.6102     0.43111E+03 
  50070.8723     0.42865E+03 
  50103.1345     0.42619E+03 
  50135.3966     0.42374E+03 
  50167.6588     0.42129E+03 
  50199.9210     0.41885E+03 
  50232.1831     0.41641E+03 
  50264.4453     0.41398E+03 
  50296.7074     0.41156E+03 
  50328.9696     0.40913E+03 
  50361.2318     0.40672E+03 
  50393.4939     0.40431E+03 
  50425.7561     0.40190E+03 
  50458.0182     0.39950E+03 
  50490.2804     0.39711E+03 
  50522.5426     0.39472E+03 
  50554.8047     0.39234E+03 
  50587.0669     0.38997E+03 
  50619.3290     0.38760E+03 
  50651.5912     0.38523E+03 
  50683.8534     0.38287E+03 
  50716.1155     0.38052E+03 
  50748.3777     0.37818E+03 
  50780.6398     0.37584E+03 
  50812.9020     0.37351E+03 
  50845.1642     0.37118E+03 
  50877.4263     0.36886E+03 
  50909.6885     0.36655E+03 
  50941.9506     0.36424E+03 
  50974.2128     0.36194E+03 
  51006.4750     0.35965E+03 
  51038.7371     0.35736E+03 
  51070.9993     0.35508E+03 
  51103.2614     0.35281E+03 
  51135.5236     0.35054E+03 
  51167.7858     0.34828E+03 
  51200.0479     0.34603E+03 
  51232.3101     0.34379E+03 
  51264.5722     0.34155E+03 
  51296.8344     0.33932E+03 
  51329.0966     0.33710E+03 
  51361.3587     0.33488E+03 
  51393.6209     0.33267E+03 
  51425.8830     0.33047E+03 
  51458.1452     0.32828E+03 
  51490.4074     0.32609E+03 
  51522.6695     0.32391E+03 
  51554.9317     0.32174E+03 
  51587.1938     0.31958E+03 
  51619.4560     0.31742E+03 
  51651.7182     0.31527E+03 
  51683.9803     0.31313E+03 
  51716.2425     0.31100E+03 
  51748.5046     0.30887E+03 
  51780.7668     0.30675E+03 
  51813.0290     0.30464E+03 
  51845.2911     0.30254E+03 
  51877.5533     0.30045E+03 
  51909.8154     0.29836E+03 
  51942.0776     0.29628E+03 
  51974.3398     0.29421E+03 
  52006.6019     0.29215E+03 
  52038.8641     0.29010E+03 
  52071.1262     0.28805E+03 
  52103.3884     0.28601E+03 
  52135.6506     0.28398E+03 
  52167.9127     0.28196E+03 
  52200.1749     0.27994E+03 
  52232.4370     0.27794E+03 
  52264.6992     0.27594E+03 
  52296.9614     0.27395E+03 
  52329.2235     0.27197E+03 
  52361.4857     0.26999E+03 
  52393.7478     0.26803E+03 
  52426.0100     0.26607E+03 
  52458.2722     0.26412E+03 
  52490.5343     0.26218E+03 
  52522.7965     0.26025E+03 
  52555.0586     0.25833E+03 
  52587.3208     0.25641E+03 
  52619.5830     0.25451E+03 
  52651.8451     0.25261E+03 
  52684.1073     0.25072E+03 
  52716.3694     0.24884E+03 
  52748.6316     0.24696E+03 
  52780.8938     0.24510E+03 
  52813.1559     0.24324E+03 
  52845.4181     0.24140E+03 
  52877.6802     0.23956E+03 
  52909.9424     0.23773E+03 
  52942.2046     0.23590E+03 
  52974.4667     0.23409E+03 
  53006.7289     0.23228E+03 
  53038.9910     0.23049E+03 
  53071.2532     0.22870E+03 
  53103.5154     0.22692E+03 
  53135.7775     0.22515E+03 
  53168.0397     0.22338E+03 
  53200.3018     0.22163E+03 
  53232.5640     0.21988E+03 
  53264.8262     0.21815E+03 
  53297.0883     0.21642E+03 
  53329.3505     0.21470E+03 
  53361.6126     0.21298E+03 
  53393.8748     0.21128E+03 
  53426.1370     0.20959E+03 
  53458.3991     0.20790E+03 
  53490.6613     0.20622E+03 
  53522.9234     0.20455E+03 
  53555.1856     0.20289E+03 
  53587.4478     0.20124E+03 
  53619.7099     0.19959E+03 
  53651.9721     0.19796E+03 
  53684.2342     0.19633E+03 
  53716.4964     0.19471E+03 
  53748.7586     0.19310E+03 
  53781.0207     0.19150E+03 
  53813.2829     0.18991E+03 
  53845.5450     0.18832E+03 
  53877.8072     0.18675E+03 
  53910.0694     0.18518E+03 
  53942.3315     0.18362E+03 
  53974.5937     0.18207E+03 
  54006.8558     0.18052E+03 
  54039.1180     0.17899E+03 
  54071.3802     0.17746E+03 
  54103.6423     0.17595E+03 
  54135.9045     0.17444E+03 
  54168.1666     0.17293E+03 
  54200.4288     0.17144E+03 
  54232.6910     0.16996E+03 
  54264.9531     0.16848E+03 
  54297.2153     0.16701E+03 
  54329.4774     0.16555E+03 
  54361.7396     0.16410E+03 
  54394.0018     0.16266E+03 
  54426.2639     0.16122E+03 
  54458.5261     0.15980E+03 
  54490.7882     0.15838E+03 
  54523.0504     0.15697E+03 
  54555.3126     0.15557E+03 
  54587.5747     0.15417E+03 
  54619.8369     0.15279E+03 
  54652.0990     0.15141E+03 
  54684.3612     0.15004E+03 
  54716.6234     0.14868E+03 
  54748.8855     0.14732E+03 
  54781.1477     0.14598E+03 
  54813.4098     0.14464E+03 
  54845.6720     0.14331E+03 
  54877.9342     0.14199E+03 
  54910.1963     0.14067E+03 
  54942.4585     0.13937E+03 
  54974.7206     0.13807E+03 
  55006.9828     0.13678E+03 
  55039.2450     0.13550E+03 
  55071.5071     0.13422E+03 
  55103.7693     0.13296E+03 
  55136.0314     0.13170E+03 
  55168.2936     0.13045E+03 
  55200.5558     0.12920E+03 
  55232.8179     0.12797E+03 
  55265.0801     0.12674E+03 
  55297.3422     0.12552E+03 
  55329.6044     0.12431E+03 
  55361.8666     0.12310E+03 
  55394.1287     0.12191E+03 
  55426.3909     0.12072E+03 
  55458.6530     0.11954E+03 
  55490.9152     0.11836E+03 
  55523.1774     0.11719E+03 
  55555.4395     0.11603E+03 
  55587.7017     0.11488E+03 
  55619.9638     0.11374E+03 
  55652.2260     0.11260E+03 
  55684.4882     0.11147E+03 
  55716.7503     0.11035E+03 
  55749.0125     0.10923E+03 
  55781.2746     0.10813E+03 
  55813.5368     0.10703E+03 
  55845.7990     0.10593E+03 
  55878.0611     0.10485E+03 
  55910.3233     0.10377E+03 
  55942.5854     0.10270E+03 
  55974.8476     0.10163E+03 
  56007.1098     0.10058E+03 
  56039.3719     0.99526E+02 
  56071.6341     0.98483E+02 
  56103.8962     0.97447E+02 
  56136.1584     0.96418E+02 
  56168.4206     0.95396E+02 
  56200.6827     0.94382E+02 
  56232.9449     0.93374E+02 
  56265.2070     0.92373E+02 
  56297.4692     0.91379E+02 
  56329.7314     0.90392E+02 
  56361.9935     0.89411E+02 
  56394.2557     0.88438E+02 
  56426.5178     0.87471E+02 
  56458.7800     0.86511E+02 
  56491.0422     0.85558E+02 
  56523.3043     0.84611E+02 
  56555.5665     0.83672E+02 
  56587.8286     0.82739E+02 
  56620.0908     0.81812E+02 
  56652.3530     0.80892E+02 
  56684.6151     0.79979E+02 
  56716.8773     0.79072E+02 
  56749.1394     0.78172E+02 
  56781.4016     0.77278E+02 
  56813.6638     0.76391E+02 
  56845.9259     0.75510E+02 
  56878.1881     0.74635E+02 
  56910.4502     0.73767E+02 
  56942.7124     0.72906E+02 
  56974.9746     0.72050E+02 
  57007.2367     0.71201E+02 
  57039.4989     0.70358E+02 
  57071.7610     0.69522E+02 
  57104.0232     0.68691E+02 
  57136.2854     0.67867E+02 
  57168.5475     0.67049E+02 
  57200.8097     0.66237E+02 
  57233.0718     0.65432E+02 
  57265.3340     0.64632E+02 
  57297.5962     0.63838E+02 
  57329.8583     0.63051E+02 
  57362.1205     0.62269E+02 
  57394.3826     0.61494E+02 
  57426.6448     0.60724E+02 
  57458.9070     0.59960E+02 
  57491.1691     0.59203E+02 
  57523.4313     0.58451E+02 
  57555.6934     0.57705E+02 
  57587.9556     0.56964E+02 
  57620.2178     0.56230E+02 
  57652.4799     0.55501E+02 
  57684.7421     0.54778E+02 
  57717.0042     0.54061E+02 
  57749.2664     0.53350E+02 
  57781.5286     0.52644E+02 
  57813.7907     0.51944E+02 
  57846.0529     0.51249E+02 
  57878.3150     0.50560E+02 
  57910.5772     0.49877E+02 
  57942.8394     0.49199E+02 
  57975.1015     0.48526E+02 
  58007.3637     0.47859E+02 
  58039.6258     0.47198E+02 
  58071.8880     0.46542E+02 
  58104.1502     0.45891E+02 
  58136.4123     0.45246E+02 
  58168.6745     0.44606E+02 
  58200.9366     0.43972E+02 
  58233.1988     0.43343E+02 
  58265.4610     0.42719E+02 
  58297.7231     0.42100E+02 
  58329.9853     0.41487E+02 
  58362.2474     0.40879E+02 
  58394.5096     0.40276E+02 
  58426.7718     0.39679E+02 
  58459.0339     0.39086E+02 
  58491.2961     0.38499E+02 
  58523.5582     0.37916E+02 
  58555.8204     0.37339E+02 
  58588.0826     0.36767E+02 
  58620.3447     0.36200E+02 
  58652.6069     0.35638E+02 
  58684.8690     0.35081E+02 
  58717.1312     0.34529E+02 
  58749.3934     0.33982E+02 
  58781.6555     0.33440E+02 
  58813.9177     0.32903E+02 
  58846.1798     0.32371E+02 
  58878.4420     0.31844E+02 
  58910.7042     0.31321E+02 
  58942.9663     0.30804E+02 
  58975.2285     0.30291E+02 
  59007.4906     0.29783E+02 
  59039.7528     0.29280E+02 
  59072.0150     0.28781E+02 
  59104.2771     0.28288E+02 
  59136.5393     0.27799E+02 
  59168.8014     0.27315E+02 
  59201.0636     0.26835E+02 
  59233.3258     0.26361E+02 
  59265.5879     0.25891E+02 
  59297.8501     0.25425E+02 
  59330.1122     0.24964E+02 
  59362.3744     0.24508E+02 
  59394.6366     0.24057E+02 
  59426.8987     0.23610E+02 
  59459.1609     0.23168E+02 
  59491.4230     0.22730E+02 
  59523.6852     0.22297E+02 
  59555.9474     0.21868E+02 
  59588.2095     0.21444E+02 
  59620.4717     0.21024E+02 
  59652.7338     0.20609E+02 
  59684.9960     0.20199E+02 
  59717.2582     0.19793E+02 
  59749.5203     0.19391E+02 
  59781.7825     0.18994E+02 
  59814.0446     0.18601E+02 
  59846.3068     0.18213E+02 
  59878.5690     0.17829E+02 
  59910.8311     0.17449E+02 
  59943.0933     0.17074E+02 
  59975.3554     0.16703E+02 
  60007.6176     0.16337E+02 
  60039.8798     0.15975E+02 
  60072.1419     0.15618E+02 
  60104.4041     0.15265E+02 
  60136.6662     0.14916E+02 
  60168.9284     0.14571E+02 
  60201.1906     0.14231E+02 
  60233.4527     0.13895E+02 
  60265.7149     0.13564E+02 
  60297.9770     0.13237E+02 
  60330.2392     0.12914E+02 
  60362.5014     0.12596E+02 
  60394.7635     0.12281E+02 
  60427.0257     0.11972E+02 
  60459.2878     0.11666E+02 
  60491.5500     0.11365E+02 
  60523.8122     0.11068E+02 
  60556.0743     0.10775E+02 
  60588.3365     0.10487E+02 
  60620.5986     0.10203E+02 
  60652.8608     0.99234E+01 
  60685.1230     0.96481E+01 
  60717.3851     0.93770E+01 
  60749.6473     0.91103E+01 
  60781.9094     0.88479E+01 
  60814.1716     0.85898E+01 
  60846.4338     0.83360E+01 
  60878.6959     0.80866E+01 
  60910.9581     0.78415E+01 
  60943.2202     0.76007E+01 
  60975.4824     0.73643E+01 
  61007.7446     0.71323E+01 
  61040.0067     0.69046E+01 
  61072.2689     0.66813E+01 
  61104.5310     0.64623E+01 
  61136.7932     0.62478E+01 
  61169.0554     0.60377E+01 
  61201.3175     0.58319E+01 
  61233.5797     0.56306E+01 
  61265.8418     0.54338E+01 
  61298.1040     0.52414E+01 
  61330.3662     0.50534E+01 
  61362.6283     0.48700E+01 
  61394.8905     0.46910E+01 
  61427.1526     0.45166E+01 
  61459.4148     0.43466E+01 
  61491.6770     0.41813E+01 
  61523.9391     0.40205E+01 
  61556.2013     0.38643E+01 
  61588.4634     0.37127E+01 
  61620.7256     0.35657E+01 
  61652.9878     0.34234E+01 
  61685.2499     0.32858E+01 
  61717.5121     0.31528E+01 
  61749.7742     0.30246E+01 
  61782.0364     0.29012E+01 
  61814.2986     0.27825E+01 
  61846.5607     0.26687E+01 
  61878.8229     0.25597E+01 
  61911.0850     0.24555E+01 
  61943.3472     0.23563E+01 
  61975.6094     0.22620E+01 
  62007.8715     0.21726E+01 
  62040.1337     0.20883E+01 
  62072.3958     0.20090E+01 
  62104.6580     0.19348E+01 
  62136.9202     0.18657E+01 
  62169.1823     0.18017E+01 
  62201.4445     0.17429E+01 
  62233.7066     0.16894E+01 
  62265.9688     0.16412E+01 
  62298.2310     0.15982E+01 
  62330.4931     0.15606E+01 
  62362.7553     0.15285E+01 
  62395.0174     0.15018E+01 
  62427.2796     0.14806E+01 
  62459.5418     0.14650E+01 
  62491.8039     0.14550E+01 
  62524.0661     0.14506E+01 
  62556.3282     0.14520E+01 
  62588.5904     0.14591E+01 
  62620.8526     0.14721E+01 
  62653.1147     0.14910E+01 
  62685.3769     0.15159E+01 
  62717.6390     0.15467E+01 
  62749.9012     0.15837E+01 
  62782.1634     0.16268E+01 
  62814.4255     0.16761E+01 
  62846.6877     0.17316E+01 
  62878.9498     0.17936E+01 
  62911.2120     0.18620E+01 
  62943.4742     0.19368E+01 
  62975.7363     0.20183E+01 
  63007.9985     0.21064E+01 
  63040.2606     0.22013E+01 
  63072.5228     0.23029E+01 
  63104.7850     0.24115E+01 
  63137.0471     0.25270E+01 
  63169.3093     0.26497E+01 
  63201.5714     0.27794E+01 
  63233.8336     0.29165E+01 
  63266.0958     0.30609E+01 
  63298.3579     0.32127E+01 
  63330.6201     0.33721E+01 
  63362.8822     0.35391E+01 
  63395.1444     0.37138E+01 
  63427.4066     0.38965E+01 
  63459.6687     0.40870E+01 
  63491.9309     0.42856E+01 
  63524.1930     0.44924E+01 
  63556.4552     0.47075E+01 
  63588.7174     0.49310E+01 
  63620.9795     0.51630E+01 
  63653.2417     0.54037E+01 
  63685.5038     0.56531E+01 
  63717.7660     0.59115E+01 
  63750.0282     0.61788E+01 
  63782.2903     0.64553E+01 
  63814.5525     0.67411E+01 
  63846.8146     0.70364E+01 
  63879.0768     0.73412E+01 
  63911.3390     0.76557E+01 
  63943.6011     0.79801E+01 
  63975.8633     0.83144E+01 
  64008.1254     0.86590E+01 
  64040.3876     0.90138E+01 
  64072.6498     0.93791E+01 
  64104.9119     0.97551E+01 
  64137.1741     0.10142E+02 
  64169.4362     0.10540E+02 
  64201.6984     0.10948E+02 
  64233.9606     0.11369E+02 
  64266.2227     0.11800E+02 
  64298.4849     0.12244E+02 
  64330.7470     0.12699E+02 
  64363.0092     0.13166E+02 
  64395.2714     0.13645E+02 
  64427.5335     0.14137E+02 
  64459.7957     0.14642E+02 
  64492.0578     0.15159E+02 
  64524.3200     0.15689E+02 
  64556.5822     0.16233E+02 
  64588.8443     0.16790E+02 
  64621.1065     0.17361E+02 
  64653.3686     0.17945E+02 
  64685.6308     0.18544E+02 
  64717.8930     0.19157E+02 
  64750.1551     0.19785E+02 
  64782.4173     0.20428E+02 
  64814.6794     0.21085E+02 
  64846.9416     0.21758E+02 
  64879.2038     0.22447E+02 
  64911.4659     0.23151E+02 
  64943.7281     0.23871E+02 
  64975.9902     0.24608E+02 
  65008.2524     0.25362E+02 
  65040.5146     0.26132E+02 
  65072.7767     0.26919E+02 
  65105.0389     0.27724E+02 
  65137.3010     0.28547E+02 
  65169.5632     0.29388E+02 
  65201.8254     0.30247E+02 
  65234.0875     0.31125E+02 
  65266.3497     0.32021E+02 
  65298.6118     0.32937E+02 
  65330.8740     0.33873E+02 
  65363.1362     0.34828E+02 
  65395.3983     0.35804E+02 
  65427.6605     0.36801E+02 
  65459.9226     0.37818E+02 
  65492.1848     0.38856E+02 
  65524.4470     0.39917E+02 
  65556.7091     0.40999E+02 
  65588.9713     0.42103E+02 
  65621.2334     0.43230E+02 
  65653.4956     0.44381E+02 
  65685.7578     0.45555E+02 
  65718.0199     0.46752E+02 
  65750.2821     0.47974E+02 
  65782.5442     0.49221E+02 
  65814.8064     0.50493E+02 
  65847.0686     0.51790E+02 
  65879.3307     0.53113E+02 
  65911.5929     0.54462E+02 
  65943.8550     0.55838E+02 
  65976.1172     0.57242E+02 
  66008.3794     0.58673E+02 
  66040.6415     0.60132E+02 
  66072.9037     0.61619E+02 
  66105.1658     0.63136E+02 
  66137.4280     0.64682E+02 
  66169.6902     0.66258E+02 
  66201.9523     0.67865E+02 
  66234.2145     0.69503E+02 
  66266.4766     0.71172E+02 
  66298.7388     0.72873E+02 
  66331.0010     0.74606E+02 
  66363.2631     0.76372E+02 
  66395.5253     0.78172E+02 
  66427.7874     0.80006E+02 
  66460.0496     0.81875E+02 
  66492.3118     0.83779E+02 
  66524.5739     0.85718E+02 
  66556.8361     0.87694E+02 
  66589.0982     0.89707E+02 
  66621.3604     0.91757E+02 
  66653.6226     0.93845E+02 
  66685.8847     0.95972E+02 
  66718.1469     0.98138E+02 
  66750.4090     0.10034E+03 
  66782.6712     0.10259E+03 
  66814.9334     0.10488E+03 
  66847.1955     0.10721E+03 
  66879.4577     0.10958E+03 
  66911.7198     0.11199E+03 
  66943.9820     0.11445E+03 
  66976.2442     0.11695E+03 
  67008.5063     0.11950E+03 
  67040.7685     0.12209E+03 
  67073.0306     0.12473E+03 
  67105.2928     0.12742E+03 
  67137.5550     0.13016E+03 
  67169.8171     0.13294E+03 
  67202.0793     0.13577E+03 
  67234.3414     0.13866E+03 
  67266.6036     0.14159E+03 
  67298.8658     0.14457E+03 
  67331.1279     0.14761E+03 
  67363.3901     0.15070E+03 
  67395.6522     0.15385E+03 
  67427.9144     0.15705E+03 
  67460.1766     0.16030E+03 
  67492.4387     0.16361E+03 
  67524.7009     0.16698E+03 
  67556.9630     0.17041E+03 
  67589.2252     0.17389E+03 
  67621.4874     0.17744E+03 
  67653.7495     0.18104E+03 
  67686.0117     0.18471E+03 
  67718.2738     0.18843E+03 
  67750.5360     0.19223E+03 
  67782.7982     0.19608E+03 
  67815.0603     0.20000E+03 
  67847.3225     0.20399E+03 
  67879.5846     0.20804E+03 
  67911.8468     0.21216E+03 
  67944.1090     0.21635E+03 
  67976.3711     0.22061E+03 
  68008.6333     0.22494E+03 
  68040.8954     0.22934E+03 
  68073.1576     0.23381E+03 
  68105.4198     0.23836E+03 
  68137.6819     0.24298E+03 
  68169.9441     0.24767E+03 
  68202.2062     0.25244E+03 
  68234.4684     0.25729E+03 
  68266.7306     0.26222E+03 
  68298.9927     0.26723E+03 
  68331.2549     0.27231E+03 
  68363.5170     0.27748E+03 
  68395.7792     0.28274E+03 
  68428.0414     0.28807E+03 
  68460.3035     0.29349E+03 
  68492.5657     0.29900E+03 
  68524.8278     0.30459E+03 
  68557.0900     0.31027E+03 
  68589.3522     0.31604E+03 
  68621.6143     0.32190E+03 
  68653.8765     0.32785E+03 
  68686.1386     0.33390E+03 
  68718.4008     0.34003E+03 
  68750.6630     0.34627E+03 
  68782.9251     0.35259E+03 
  68815.1873     0.35902E+03 
  68847.4494     0.36554E+03 
  68879.7116     0.37217E+03 
  68911.9738     0.37889E+03 
  68944.2359     0.38571E+03 
  68976.4981     0.39264E+03 
  69008.7602     0.39968E+03 
  69041.0224     0.40681E+03 
  69073.2846     0.41406E+03 
  69105.5467     0.42141E+03 
  69137.8089     0.42887E+03 
  69170.0710     0.43645E+03 
  69202.3332     0.44413E+03 
  69234.5954     0.45193E+03 
  69266.8575     0.45984E+03 
  69299.1197     0.46787E+03 
  69331.3818     0.47601E+03 
  69363.6440     0.48427E+03 
  69395.9062     0.49265E+03 
  69428.1683     0.50115E+03 
  69460.4305     0.50978E+03 
  69492.6926     0.51852E+03 
  69524.9548     0.52740E+03 
  69557.2170     0.53639E+03 
  69589.4791     0.54552E+03 
  69621.7413     0.55477E+03 
  69654.0034     0.56415E+03 
  69686.2656     0.57367E+03 
  69718.5278     0.58331E+03 
  69750.7899     0.59309E+03 
  69783.0521     0.60301E+03 
  69815.3142     0.61306E+03 
  69847.5764     0.62325E+03 
  69879.8386     0.63358E+03 
  69912.1007     0.64405E+03 
  69944.3629     0.65466E+03 
  69976.6250     0.66542E+03 
  70008.8872     0.67632E+03 
  70041.1494     0.68737E+03 
  70073.4115     0.69856E+03 
  70105.6737     0.70990E+03 
  70137.9358     0.72140E+03 
  70170.1980     0.73304E+03 
  70202.4602     0.74484E+03 
  70234.7223     0.75679E+03 
  70266.9845     0.76890E+03 
  70299.2466     0.78116E+03 
  70331.5088     0.79359E+03 
  70363.7710     0.80617E+03 
  70396.0331     0.81892E+03 
  70428.2953     0.83182E+03 
  70460.5574     0.84490E+03 
  70492.8196     0.85813E+03 
  70525.0818     0.87154E+03 
  70557.3439     0.88511E+03 
  70589.6061     0.89885E+03 
  70621.8682     0.91276E+03 
  70654.1304     0.92685E+03 
  70686.3926     0.94111E+03 
  70718.6547     0.95554E+03 
  70750.9169     0.97015E+03 
  70783.1790     0.98494E+03 
  70815.4412     0.99991E+03 
  70847.7034     0.10151E+04 
  70879.9655     0.10304E+04 
  70912.2277     0.10459E+04 
  70944.4898     0.10616E+04 
  70976.7520     0.10775E+04 
  71009.0142     0.10936E+04 
  71041.2763     0.11098E+04 
  71073.5385     0.11263E+04 
  71105.8006     0.11429E+04 
  71138.0628     0.11597E+04 
  71170.3250     0.11768E+04 
  71202.5871     0.11940E+04 
  71234.8493     0.12114E+04 
  71267.1114     0.12290E+04 
  71299.3736     0.12468E+04 
  71331.6358     0.12648E+04 
  71363.8979     0.12831E+04 
  71396.1601     0.13015E+04 
  71428.4222     0.13201E+04 
  71460.6844     0.13389E+04 
  71492.9466     0.13579E+04 
  71525.2087     0.13772E+04 
  71557.4709     0.13966E+04 
  71589.7330     0.14163E+04 
  71621.9952     0.14362E+04 
  71654.2574     0.14562E+04 
  71686.5195     0.14765E+04 
  71718.7817     0.14970E+04 
  71751.0438     0.15178E+04 
  71783.3060     0.15387E+04 
  71815.5682     0.15599E+04 
  71847.8303     0.15812E+04 
  71880.0925     0.16028E+04 
  71912.3546     0.16246E+04 
  71944.6168     0.16467E+04 
  71976.8790     0.16689E+04 
  72009.1411     0.16914E+04 
  72041.4033     0.17141E+04 
  72073.6654     0.17371E+04 
  72105.9276     0.17602E+04 
  72138.1898     0.17836E+04 
  72170.4519     0.18072E+04 
  72202.7141     0.18311E+04 
  72234.9762     0.18552E+04 
  72267.2384     0.18795E+04 
  72299.5006     0.19040E+04 
  72331.7627     0.19288E+04 
  72364.0249     0.19538E+04 
  72396.2870     0.19790E+04 
  72428.5492     0.20045E+04 
  72460.8114     0.20302E+04 
  72493.0735     0.20561E+04 
  72525.3357     0.20823E+04 
  72557.5978     0.21087E+04 
  72589.8600     0.21354E+04 
