  32262.1600     0.97173E-01 
  32294.4222     0.98541E-01 
  32326.6843     0.99923E-01 
  32358.9465     0.10132E+00 
  32391.2086     0.10273E+00 
  32423.4708     0.10415E+00 
  32455.7330     0.10559E+00 
  32487.9951     0.10704E+00 
  32520.2573     0.10851E+00 
  32552.5194     0.10999E+00 
  32584.7816     0.11148E+00 
  32617.0438     0.11299E+00 
  32649.3059     0.11452E+00 
  32681.5681     0.11605E+00 
  32713.8302     0.11760E+00 
  32746.0924     0.11917E+00 
  32778.3546     0.12075E+00 
  32810.6167     0.12234E+00 
  32842.8789     0.12395E+00 
  32875.1410     0.12557E+00 
  32907.4032     0.12721E+00 
  32939.6654     0.12886E+00 
  32971.9275     0.13053E+00 
  33004.1897     0.13221E+00 
  33036.4518     0.13390E+00 
  33068.7140     0.13561E+00 
  33100.9762     0.13733E+00 
  33133.2383     0.13907E+00 
  33165.5005     0.14082E+00 
  33197.7626     0.14259E+00 
  33230.0248     0.14437E+00 
  33262.2870     0.14616E+00 
  33294.5491     0.14797E+00 
  33326.8113     0.14980E+00 
  33359.0734     0.15163E+00 
  33391.3356     0.15349E+00 
  33423.5978     0.15535E+00 
  33455.8599     0.15723E+00 
  33488.1221     0.15913E+00 
  33520.3842     0.16103E+00 
  33552.6464     0.16296E+00 
  33584.9086     0.16489E+00 
  33617.1707     0.16685E+00 
  33649.4329     0.16881E+00 
  33681.6950     0.17079E+00 
  33713.9572     0.17278E+00 
  33746.2194     0.17479E+00 
  33778.4815     0.17681E+00 
  33810.7437     0.17884E+00 
  33843.0058     0.18089E+00 
  33875.2680     0.18295E+00 
  33907.5302     0.18503E+00 
  33939.7923     0.18712E+00 
  33972.0545     0.18922E+00 
  34004.3166     0.19134E+00 
  34036.5788     0.19347E+00 
  34068.8410     0.19561E+00 
  34101.1031     0.19776E+00 
  34133.3653     0.19993E+00 
  34165.6274     0.20212E+00 
  34197.8896     0.20431E+00 
  34230.1518     0.20652E+00 
  34262.4139     0.20874E+00 
  34294.6761     0.21097E+00 
  34326.9382     0.21322E+00 
  34359.2004     0.21548E+00 
  34391.4626     0.21775E+00 
  34423.7247     0.22003E+00 
  34455.9869     0.22233E+00 
  34488.2490     0.22464E+00 
  34520.5112     0.22696E+00 
  34552.7734     0.22929E+00 
  34585.0355     0.23163E+00 
  34617.2977     0.23399E+00 
  34649.5598     0.23635E+00 
  34681.8220     0.23873E+00 
  34714.0842     0.24112E+00 
  34746.3463     0.24352E+00 
  34778.6085     0.24593E+00 
  34810.8706     0.24836E+00 
  34843.1328     0.25079E+00 
  34875.3950     0.25323E+00 
  34907.6571     0.25569E+00 
  34939.9193     0.25816E+00 
  34972.1814     0.26063E+00 
  35004.4436     0.26312E+00 
  35036.7058     0.26561E+00 
  35068.9679     0.26812E+00 
  35101.2301     0.27063E+00 
  35133.4922     0.27316E+00 
  35165.7544     0.27569E+00 
  35198.0166     0.27824E+00 
  35230.2787     0.28079E+00 
  35262.5409     0.28335E+00 
  35294.8030     0.28592E+00 
  35327.0652     0.28850E+00 
  35359.3274     0.29109E+00 
  35391.5895     0.29369E+00 
  35423.8517     0.29629E+00 
  35456.1138     0.29890E+00 
  35488.3760     0.30152E+00 
  35520.6382     0.30415E+00 
  35552.9003     0.30678E+00 
  35585.1625     0.30942E+00 
  35617.4246     0.31207E+00 
  35649.6868     0.31473E+00 
  35681.9490     0.31739E+00 
  35714.2111     0.32006E+00 
  35746.4733     0.32273E+00 
  35778.7354     0.32541E+00 
  35810.9976     0.32810E+00 
  35843.2598     0.33079E+00 
  35875.5219     0.33349E+00 
  35907.7841     0.33619E+00 
  35940.0462     0.33890E+00 
  35972.3084     0.34162E+00 
  36004.5706     0.34433E+00 
  36036.8327     0.34705E+00 
  36069.0949     0.34978E+00 
  36101.3570     0.35251E+00 
  36133.6192     0.35525E+00 
  36165.8814     0.35798E+00 
  36198.1435     0.36072E+00 
  36230.4057     0.36347E+00 
  36262.6678     0.36622E+00 
  36294.9300     0.36897E+00 
  36327.1922     0.37172E+00 
  36359.4543     0.37447E+00 
  36391.7165     0.37723E+00 
  36423.9786     0.37999E+00 
  36456.2408     0.38275E+00 
  36488.5030     0.38551E+00 
  36520.7651     0.38827E+00 
  36553.0273     0.39104E+00 
  36585.2894     0.39380E+00 
  36617.5516     0.39656E+00 
  36649.8138     0.39933E+00 
  36682.0759     0.40209E+00 
  36714.3381     0.40486E+00 
  36746.6002     0.40762E+00 
  36778.8624     0.41039E+00 
  36811.1246     0.41315E+00 
  36843.3867     0.41591E+00 
  36875.6489     0.41867E+00 
  36907.9110     0.42143E+00 
  36940.1732     0.42418E+00 
  36972.4354     0.42694E+00 
  37004.6975     0.42969E+00 
  37036.9597     0.43244E+00 
  37069.2218     0.43518E+00 
  37101.4840     0.43792E+00 
  37133.7462     0.44066E+00 
  37166.0083     0.44340E+00 
  37198.2705     0.44613E+00 
  37230.5326     0.44886E+00 
  37262.7948     0.45158E+00 
  37295.0570     0.45430E+00 
  37327.3191     0.45702E+00 
  37359.5813     0.45973E+00 
  37391.8434     0.46243E+00 
  37424.1056     0.46513E+00 
  37456.3678     0.46782E+00 
  37488.6299     0.47051E+00 
  37520.8921     0.47319E+00 
  37553.1542     0.47586E+00 
  37585.4164     0.47853E+00 
  37617.6786     0.48118E+00 
  37649.9407     0.48384E+00 
  37682.2029     0.48648E+00 
  37714.4650     0.48912E+00 
  37746.7272     0.49175E+00 
  37778.9894     0.49437E+00 
  37811.2515     0.49698E+00 
  37843.5137     0.49958E+00 
  37875.7758     0.50218E+00 
  37908.0380     0.50476E+00 
  37940.3002     0.50734E+00 
  37972.5623     0.50991E+00 
  38004.8245     0.51246E+00 
  38037.0866     0.51501E+00 
  38069.3488     0.51754E+00 
  38101.6110     0.52007E+00 
  38133.8731     0.52258E+00 
  38166.1353     0.52509E+00 
  38198.3974     0.52758E+00 
  38230.6596     0.53006E+00 
  38262.9218     0.53253E+00 
  38295.1839     0.53499E+00 
  38327.4461     0.53743E+00 
  38359.7082     0.53986E+00 
  38391.9704     0.54228E+00 
  38424.2326     0.54469E+00 
  38456.4947     0.54708E+00 
  38488.7569     0.54946E+00 
  38521.0190     0.55183E+00 
  38553.2812     0.55418E+00 
  38585.5434     0.55652E+00 
  38617.8055     0.55885E+00 
  38650.0677     0.56116E+00 
  38682.3298     0.56345E+00 
  38714.5920     0.56573E+00 
  38746.8542     0.56800E+00 
  38779.1163     0.57025E+00 
  38811.3785     0.57248E+00 
  38843.6406     0.57470E+00 
  38875.9028     0.57691E+00 
  38908.1650     0.57909E+00 
  38940.4271     0.58127E+00 
  38972.6893     0.58342E+00 
  39004.9514     0.58556E+00 
  39037.2136     0.58768E+00 
  39069.4758     0.58978E+00 
  39101.7379     0.59187E+00 
  39134.0001     0.59394E+00 
  39166.2622     0.59599E+00 
  39198.5244     0.59803E+00 
  39230.7866     0.60004E+00 
  39263.0487     0.60204E+00 
  39295.3109     0.60402E+00 
  39327.5730     0.60599E+00 
  39359.8352     0.60793E+00 
  39392.0974     0.60985E+00 
  39424.3595     0.61176E+00 
  39456.6217     0.61364E+00 
  39488.8838     0.61551E+00 
  39521.1460     0.61736E+00 
  39553.4082     0.61919E+00 
  39585.6703     0.62100E+00 
  39617.9325     0.62278E+00 
  39650.1946     0.62455E+00 
  39682.4568     0.62630E+00 
  39714.7190     0.62803E+00 
  39746.9811     0.62974E+00 
  39779.2433     0.63142E+00 
  39811.5054     0.63309E+00 
  39843.7676     0.63473E+00 
  39876.0298     0.63636E+00 
  39908.2919     0.63796E+00 
  39940.5541     0.63954E+00 
  39972.8162     0.64110E+00 
  40005.0784     0.64264E+00 
  40037.3406     0.64416E+00 
  40069.6027     0.64565E+00 
  40101.8649     0.64712E+00 
  40134.1270     0.64858E+00 
  40166.3892     0.65000E+00 
  40198.6514     0.65141E+00 
  40230.9135     0.65280E+00 
  40263.1757     0.65416E+00 
  40295.4378     0.65550E+00 
  40327.7000     0.65681E+00 
  40359.9622     0.65811E+00 
  40392.2243     0.65938E+00 
  40424.4865     0.66063E+00 
  40456.7486     0.66185E+00 
  40489.0108     0.66306E+00 
  40521.2730     0.66424E+00 
  40553.5351     0.66539E+00 
  40585.7973     0.66653E+00 
  40618.0594     0.66764E+00 
  40650.3216     0.66872E+00 
  40682.5838     0.66978E+00 
  40714.8459     0.67082E+00 
  40747.1081     0.67184E+00 
  40779.3702     0.67283E+00 
  40811.6324     0.67380E+00 
  40843.8946     0.67474E+00 
  40876.1567     0.67566E+00 
  40908.4189     0.67656E+00 
  40940.6810     0.67743E+00 
  40972.9432     0.67828E+00 
  41005.2054     0.67911E+00 
  41037.4675     0.67991E+00 
  41069.7297     0.68068E+00 
  41101.9918     0.68144E+00 
  41134.2540     0.68216E+00 
  41166.5162     0.68287E+00 
  41198.7783     0.68355E+00 
  41231.0405     0.68420E+00 
  41263.3026     0.68484E+00 
  41295.5648     0.68544E+00 
  41327.8270     0.68603E+00 
  41360.0891     0.68659E+00 
  41392.3513     0.68712E+00 
  41424.6134     0.68763E+00 
  41456.8756     0.68812E+00 
  41489.1378     0.68858E+00 
  41521.3999     0.68902E+00 
  41553.6621     0.68943E+00 
  41585.9242     0.68982E+00 
  41618.1864     0.69019E+00 
  41650.4486     0.69053E+00 
  41682.7107     0.69084E+00 
  41714.9729     0.69114E+00 
  41747.2350     0.69140E+00 
  41779.4972     0.69165E+00 
  41811.7594     0.69187E+00 
  41844.0215     0.69206E+00 
  41876.2837     0.69224E+00 
  41908.5458     0.69238E+00 
  41940.8080     0.69251E+00 
  41973.0702     0.69261E+00 
  42005.3323     0.69268E+00 
  42037.5945     0.69274E+00 
  42069.8566     0.69277E+00 
  42102.1188     0.69277E+00 
  42134.3810     0.69275E+00 
  42166.6431     0.69271E+00 
  42198.9053     0.69264E+00 
  42231.1674     0.69255E+00 
  42263.4296     0.69244E+00 
  42295.6918     0.69230E+00 
  42327.9539     0.69215E+00 
  42360.2161     0.69196E+00 
  42392.4782     0.69176E+00 
  42424.7404     0.69153E+00 
  42457.0026     0.69127E+00 
  42489.2647     0.69100E+00 
  42521.5269     0.69070E+00 
  42553.7890     0.69038E+00 
  42586.0512     0.69004E+00 
  42618.3134     0.68967E+00 
  42650.5755     0.68928E+00 
  42682.8377     0.68887E+00 
  42715.0998     0.68844E+00 
  42747.3620     0.68798E+00 
  42779.6242     0.68750E+00 
  42811.8863     0.68700E+00 
  42844.1485     0.68648E+00 
  42876.4106     0.68593E+00 
  42908.6728     0.68537E+00 
  42940.9350     0.68478E+00 
  42973.1971     0.68417E+00 
  43005.4593     0.68354E+00 
  43037.7214     0.68289E+00 
  43069.9836     0.68222E+00 
  43102.2458     0.68152E+00 
  43134.5079     0.68080E+00 
  43166.7701     0.68007E+00 
  43199.0322     0.67931E+00 
  43231.2944     0.67853E+00 
  43263.5566     0.67773E+00 
  43295.8187     0.67691E+00 
  43328.0809     0.67608E+00 
  43360.3430     0.67522E+00 
  43392.6052     0.67434E+00 
  43424.8674     0.67344E+00 
  43457.1295     0.67252E+00 
  43489.3917     0.67158E+00 
  43521.6538     0.67062E+00 
  43553.9160     0.66964E+00 
  43586.1782     0.66864E+00 
  43618.4403     0.66763E+00 
  43650.7025     0.66659E+00 
  43682.9646     0.66554E+00 
  43715.2268     0.66446E+00 
  43747.4890     0.66337E+00 
  43779.7511     0.66226E+00 
  43812.0133     0.66113E+00 
  43844.2754     0.65999E+00 
  43876.5376     0.65882E+00 
  43908.7998     0.65764E+00 
  43941.0619     0.65644E+00 
  43973.3241     0.65522E+00 
  44005.5862     0.65398E+00 
  44037.8484     0.65273E+00 
  44070.1106     0.65146E+00 
  44102.3727     0.65018E+00 
  44134.6349     0.64887E+00 
  44166.8970     0.64755E+00 
  44199.1592     0.64621E+00 
  44231.4214     0.64486E+00 
  44263.6835     0.64349E+00 
  44295.9457     0.64211E+00 
  44328.2078     0.64070E+00 
  44360.4700     0.63929E+00 
  44392.7322     0.63785E+00 
  44424.9943     0.63641E+00 
  44457.2565     0.63494E+00 
  44489.5186     0.63346E+00 
  44521.7808     0.63197E+00 
  44554.0430     0.63046E+00 
  44586.3051     0.62894E+00 
  44618.5673     0.62740E+00 
  44650.8294     0.62585E+00 
  44683.0916     0.62428E+00 
  44715.3538     0.62270E+00 
  44747.6159     0.62111E+00 
  44779.8781     0.61950E+00 
  44812.1402     0.61788E+00 
  44844.4024     0.61625E+00 
  44876.6646     0.61460E+00 
  44908.9267     0.61294E+00 
  44941.1889     0.61127E+00 
  44973.4510     0.60958E+00 
  45005.7132     0.60788E+00 
  45037.9754     0.60617E+00 
  45070.2375     0.60445E+00 
  45102.4997     0.60272E+00 
  45134.7618     0.60097E+00 
  45167.0240     0.59921E+00 
  45199.2862     0.59744E+00 
  45231.5483     0.59566E+00 
  45263.8105     0.59387E+00 
  45296.0726     0.59207E+00 
  45328.3348     0.59025E+00 
  45360.5970     0.58843E+00 
  45392.8591     0.58659E+00 
  45425.1213     0.58475E+00 
  45457.3834     0.58289E+00 
  45489.6456     0.58103E+00 
  45521.9078     0.57915E+00 
  45554.1699     0.57727E+00 
  45586.4321     0.57537E+00 
  45618.6942     0.57347E+00 
  45650.9564     0.57155E+00 
  45683.2186     0.56963E+00 
  45715.4807     0.56770E+00 
  45747.7429     0.56576E+00 
  45780.0050     0.56382E+00 
  45812.2672     0.56186E+00 
  45844.5294     0.55989E+00 
  45876.7915     0.55792E+00 
  45909.0537     0.55594E+00 
  45941.3158     0.55395E+00 
  45973.5780     0.55196E+00 
  46005.8402     0.54996E+00 
  46038.1023     0.54795E+00 
  46070.3645     0.54593E+00 
  46102.6266     0.54391E+00 
  46134.8888     0.54187E+00 
  46167.1510     0.53984E+00 
  46199.4131     0.53779E+00 
  46231.6753     0.53574E+00 
  46263.9374     0.53369E+00 
  46296.1996     0.53163E+00 
  46328.4618     0.52956E+00 
  46360.7239     0.52749E+00 
  46392.9861     0.52541E+00 
  46425.2482     0.52332E+00 
  46457.5104     0.52124E+00 
  46489.7726     0.51914E+00 
  46522.0347     0.51704E+00 
  46554.2969     0.51494E+00 
  46586.5590     0.51283E+00 
  46618.8212     0.51072E+00 
  46651.0834     0.50860E+00 
  46683.3455     0.50648E+00 
  46715.6077     0.50436E+00 
  46747.8698     0.50223E+00 
  46780.1320     0.50010E+00 
  46812.3942     0.49796E+00 
  46844.6563     0.49582E+00 
  46876.9185     0.49368E+00 
  46909.1806     0.49154E+00 
  46941.4428     0.48939E+00 
  46973.7050     0.48724E+00 
  47005.9671     0.48509E+00 
  47038.2293     0.48293E+00 
  47070.4914     0.48077E+00 
  47102.7536     0.47861E+00 
  47135.0158     0.47645E+00 
  47167.2779     0.47429E+00 
  47199.5401     0.47212E+00 
  47231.8022     0.46995E+00 
  47264.0644     0.46778E+00 
  47296.3266     0.46561E+00 
  47328.5887     0.46344E+00 
  47360.8509     0.46127E+00 
  47393.1130     0.45909E+00 
  47425.3752     0.45692E+00 
  47457.6374     0.45474E+00 
  47489.8995     0.45257E+00 
  47522.1617     0.45039E+00 
  47554.4238     0.44822E+00 
  47586.6860     0.44604E+00 
  47618.9482     0.44386E+00 
  47651.2103     0.44168E+00 
  47683.4725     0.43951E+00 
  47715.7346     0.43733E+00 
  47747.9968     0.43516E+00 
  47780.2590     0.43298E+00 
  47812.5211     0.43080E+00 
  47844.7833     0.42863E+00 
  47877.0454     0.42646E+00 
  47909.3076     0.42428E+00 
  47941.5698     0.42211E+00 
  47973.8319     0.41994E+00 
  48006.0941     0.41777E+00 
  48038.3562     0.41561E+00 
  48070.6184     0.41344E+00 
  48102.8806     0.41128E+00 
  48135.1427     0.40912E+00 
  48167.4049     0.40696E+00 
  48199.6670     0.40480E+00 
  48231.9292     0.40264E+00 
  48264.1914     0.40049E+00 
  48296.4535     0.39833E+00 
  48328.7157     0.39619E+00 
  48360.9778     0.39404E+00 
  48393.2400     0.39189E+00 
  48425.5022     0.38975E+00 
  48457.7643     0.38761E+00 
  48490.0265     0.38548E+00 
  48522.2886     0.38334E+00 
  48554.5508     0.38121E+00 
  48586.8130     0.37909E+00 
  48619.0751     0.37696E+00 
  48651.3373     0.37484E+00 
  48683.5994     0.37273E+00 
  48715.8616     0.37062E+00 
  48748.1238     0.36851E+00 
  48780.3859     0.36640E+00 
  48812.6481     0.36430E+00 
  48844.9102     0.36220E+00 
  48877.1724     0.36011E+00 
  48909.4346     0.35802E+00 
  48941.6967     0.35593E+00 
  48973.9589     0.35385E+00 
  49006.2210     0.35177E+00 
  49038.4832     0.34970E+00 
  49070.7454     0.34763E+00 
  49103.0075     0.34557E+00 
  49135.2697     0.34351E+00 
  49167.5318     0.34145E+00 
  49199.7940     0.33940E+00 
  49232.0562     0.33736E+00 
  49264.3183     0.33532E+00 
  49296.5805     0.33328E+00 
  49328.8426     0.33125E+00 
  49361.1048     0.32922E+00 
  49393.3670     0.32720E+00 
  49425.6291     0.32519E+00 
  49457.8913     0.32318E+00 
  49490.1534     0.32118E+00 
  49522.4156     0.31918E+00 
  49554.6778     0.31718E+00 
  49586.9399     0.31520E+00 
  49619.2021     0.31321E+00 
  49651.4642     0.31124E+00 
  49683.7264     0.30927E+00 
  49715.9886     0.30730E+00 
  49748.2507     0.30534E+00 
  49780.5129     0.30339E+00 
  49812.7750     0.30144E+00 
  49845.0372     0.29950E+00 
  49877.2994     0.29757E+00 
  49909.5615     0.29564E+00 
  49941.8237     0.29371E+00 
  49974.0858     0.29180E+00 
  50006.3480     0.28989E+00 
  50038.6102     0.28798E+00 
  50070.8723     0.28608E+00 
  50103.1345     0.28419E+00 
  50135.3966     0.28231E+00 
  50167.6588     0.28043E+00 
  50199.9210     0.27856E+00 
  50232.1831     0.27669E+00 
  50264.4453     0.27483E+00 
  50296.7074     0.27298E+00 
  50328.9696     0.27113E+00 
  50361.2318     0.26929E+00 
  50393.4939     0.26746E+00 
  50425.7561     0.26564E+00 
  50458.0182     0.26382E+00 
  50490.2804     0.26201E+00 
  50522.5426     0.26020E+00 
  50554.8047     0.25840E+00 
  50587.0669     0.25661E+00 
  50619.3290     0.25483E+00 
  50651.5912     0.25305E+00 
  50683.8534     0.25128E+00 
  50716.1155     0.24952E+00 
  50748.3777     0.24776E+00 
  50780.6398     0.24601E+00 
  50812.9020     0.24427E+00 
  50845.1642     0.24254E+00 
  50877.4263     0.24081E+00 
  50909.6885     0.23909E+00 
  50941.9506     0.23738E+00 
  50974.2128     0.23567E+00 
  51006.4750     0.23397E+00 
  51038.7371     0.23228E+00 
  51070.9993     0.23060E+00 
  51103.2614     0.22892E+00 
  51135.5236     0.22726E+00 
  51167.7858     0.22559E+00 
  51200.0479     0.22394E+00 
  51232.3101     0.22229E+00 
  51264.5722     0.22065E+00 
  51296.8344     0.21902E+00 
  51329.0966     0.21740E+00 
  51361.3587     0.21578E+00 
  51393.6209     0.21417E+00 
  51425.8830     0.21257E+00 
  51458.1452     0.21097E+00 
  51490.4074     0.20939E+00 
  51522.6695     0.20781E+00 
  51554.9317     0.20624E+00 
  51587.1938     0.20467E+00 
  51619.4560     0.20312E+00 
  51651.7182     0.20157E+00 
  51683.9803     0.20002E+00 
  51716.2425     0.19849E+00 
  51748.5046     0.19696E+00 
  51780.7668     0.19545E+00 
  51813.0290     0.19393E+00 
  51845.2911     0.19243E+00 
  51877.5533     0.19093E+00 
  51909.8154     0.18945E+00 
  51942.0776     0.18796E+00 
  51974.3398     0.18649E+00 
  52006.6019     0.18503E+00 
  52038.8641     0.18357E+00 
  52071.1262     0.18212E+00 
  52103.3884     0.18067E+00 
  52135.6506     0.17924E+00 
  52167.9127     0.17781E+00 
  52200.1749     0.17639E+00 
  52232.4370     0.17498E+00 
  52264.6992     0.17357E+00 
  52296.9614     0.17217E+00 
  52329.2235     0.17078E+00 
  52361.4857     0.16940E+00 
  52393.7478     0.16803E+00 
  52426.0100     0.16666E+00 
  52458.2722     0.16530E+00 
  52490.5343     0.16395E+00 
  52522.7965     0.16260E+00 
  52555.0586     0.16126E+00 
  52587.3208     0.15993E+00 
  52619.5830     0.15861E+00 
  52651.8451     0.15730E+00 
  52684.1073     0.15599E+00 
  52716.3694     0.15469E+00 
  52748.6316     0.15340E+00 
  52780.8938     0.15211E+00 
  52813.1559     0.15083E+00 
  52845.4181     0.14956E+00 
  52877.6802     0.14830E+00 
  52909.9424     0.14704E+00 
  52942.2046     0.14580E+00 
  52974.4667     0.14455E+00 
  53006.7289     0.14332E+00 
  53038.9910     0.14209E+00 
  53071.2532     0.14088E+00 
  53103.5154     0.13966E+00 
  53135.7775     0.13846E+00 
  53168.0397     0.13726E+00 
  53200.3018     0.13607E+00 
  53232.5640     0.13489E+00 
  53264.8262     0.13371E+00 
  53297.0883     0.13255E+00 
  53329.3505     0.13139E+00 
  53361.6126     0.13023E+00 
  53393.8748     0.12908E+00 
  53426.1370     0.12794E+00 
  53458.3991     0.12681E+00 
  53490.6613     0.12569E+00 
  53522.9234     0.12457E+00 
  53555.1856     0.12346E+00 
  53587.4478     0.12235E+00 
  53619.7099     0.12125E+00 
  53651.9721     0.12016E+00 
  53684.2342     0.11908E+00 
  53716.4964     0.11800E+00 
  53748.7586     0.11693E+00 
  53781.0207     0.11587E+00 
  53813.2829     0.11482E+00 
  53845.5450     0.11377E+00 
  53877.8072     0.11273E+00 
  53910.0694     0.11169E+00 
  53942.3315     0.11066E+00 
  53974.5937     0.10964E+00 
  54006.8558     0.10862E+00 
  54039.1180     0.10762E+00 
  54071.3802     0.10661E+00 
  54103.6423     0.10562E+00 
  54135.9045     0.10463E+00 
  54168.1666     0.10365E+00 
  54200.4288     0.10267E+00 
  54232.6910     0.10170E+00 
  54264.9531     0.10074E+00 
  54297.2153     0.99787E-01 
  54329.4774     0.98838E-01 
  54361.7396     0.97895E-01 
  54394.0018     0.96959E-01 
  54426.2639     0.96029E-01 
  54458.5261     0.95106E-01 
  54490.7882     0.94189E-01 
  54523.0504     0.93278E-01 
  54555.3126     0.92374E-01 
  54587.5747     0.91476E-01 
  54619.8369     0.90584E-01 
  54652.0990     0.89698E-01 
  54684.3612     0.88818E-01 
  54716.6234     0.87945E-01 
  54748.8855     0.87078E-01 
  54781.1477     0.86217E-01 
  54813.4098     0.85362E-01 
  54845.6720     0.84513E-01 
  54877.9342     0.83671E-01 
  54910.1963     0.82834E-01 
  54942.4585     0.82003E-01 
  54974.7206     0.81178E-01 
  55006.9828     0.80359E-01 
  55039.2450     0.79546E-01 
  55071.5071     0.78739E-01 
  55103.7693     0.77938E-01 
  55136.0314     0.77142E-01 
  55168.2936     0.76353E-01 
  55200.5558     0.75569E-01 
  55232.8179     0.74791E-01 
  55265.0801     0.74018E-01 
  55297.3422     0.73252E-01 
  55329.6044     0.72491E-01 
  55361.8666     0.71735E-01 
  55394.1287     0.70985E-01 
  55426.3909     0.70241E-01 
  55458.6530     0.69502E-01 
  55490.9152     0.68769E-01 
  55523.1774     0.68041E-01 
  55555.4395     0.67319E-01 
  55587.7017     0.66602E-01 
  55619.9638     0.65891E-01 
  55652.2260     0.65185E-01 
  55684.4882     0.64484E-01 
  55716.7503     0.63789E-01 
  55749.0125     0.63099E-01 
  55781.2746     0.62414E-01 
  55813.5368     0.61735E-01 
  55845.7990     0.61060E-01 
  55878.0611     0.60391E-01 
  55910.3233     0.59727E-01 
  55942.5854     0.59068E-01 
  55974.8476     0.58414E-01 
  56007.1098     0.57766E-01 
  56039.3719     0.57122E-01 
  56071.6341     0.56483E-01 
  56103.8962     0.55850E-01 
  56136.1584     0.55221E-01 
  56168.4206     0.54597E-01 
  56200.6827     0.53979E-01 
  56232.9449     0.53365E-01 
  56265.2070     0.52756E-01 
  56297.4692     0.52151E-01 
  56329.7314     0.51552E-01 
  56361.9935     0.50957E-01 
  56394.2557     0.50367E-01 
  56426.5178     0.49782E-01 
  56458.7800     0.49202E-01 
  56491.0422     0.48626E-01 
  56523.3043     0.48055E-01 
  56555.5665     0.47488E-01 
  56587.8286     0.46926E-01 
  56620.0908     0.46368E-01 
  56652.3530     0.45816E-01 
  56684.6151     0.45267E-01 
  56716.8773     0.44723E-01 
  56749.1394     0.44184E-01 
  56781.4016     0.43649E-01 
  56813.6638     0.43118E-01 
  56845.9259     0.42592E-01 
  56878.1881     0.42070E-01 
  56910.4502     0.41552E-01 
  56942.7124     0.41039E-01 
  56974.9746     0.40530E-01 
  57007.2367     0.40025E-01 
  57039.4989     0.39524E-01 
  57071.7610     0.39028E-01 
  57104.0232     0.38536E-01 
  57136.2854     0.38048E-01 
  57168.5475     0.37564E-01 
  57200.8097     0.37084E-01 
  57233.0718     0.36608E-01 
  57265.3340     0.36137E-01 
  57297.5962     0.35669E-01 
  57329.8583     0.35205E-01 
  57362.1205     0.34746E-01 
  57394.3826     0.34290E-01 
  57426.6448     0.33838E-01 
  57458.9070     0.33390E-01 
  57491.1691     0.32946E-01 
  57523.4313     0.32506E-01 
  57555.6934     0.32070E-01 
  57587.9556     0.31637E-01 
  57620.2178     0.31208E-01 
  57652.4799     0.30783E-01 
  57684.7421     0.30362E-01 
  57717.0042     0.29945E-01 
  57749.2664     0.29531E-01 
  57781.5286     0.29121E-01 
  57813.7907     0.28714E-01 
  57846.0529     0.28311E-01 
  57878.3150     0.27912E-01 
  57910.5772     0.27517E-01 
  57942.8394     0.27124E-01 
  57975.1015     0.26736E-01 
  58007.3637     0.26351E-01 
  58039.6258     0.25969E-01 
  58071.8880     0.25591E-01 
  58104.1502     0.25217E-01 
  58136.4123     0.24846E-01 
  58168.6745     0.24478E-01 
  58200.9366     0.24114E-01 
  58233.1988     0.23753E-01 
  58265.4610     0.23395E-01 
  58297.7231     0.23041E-01 
  58329.9853     0.22690E-01 
  58362.2474     0.22342E-01 
  58394.5096     0.21998E-01 
  58426.7718     0.21657E-01 
  58459.0339     0.21319E-01 
  58491.2961     0.20984E-01 
  58523.5582     0.20653E-01 
  58555.8204     0.20325E-01 
  58588.0826     0.20000E-01 
  58620.3447     0.19678E-01 
  58652.6069     0.19359E-01 
  58684.8690     0.19043E-01 
  58717.1312     0.18731E-01 
  58749.3934     0.18421E-01 
  58781.6555     0.18115E-01 
  58813.9177     0.17811E-01 
  58846.1798     0.17511E-01 
  58878.4420     0.17213E-01 
  58910.7042     0.16919E-01 
  58942.9663     0.16628E-01 
  58975.2285     0.16339E-01 
  59007.4906     0.16054E-01 
  59039.7528     0.15771E-01 
  59072.0150     0.15491E-01 
  59104.2771     0.15215E-01 
  59136.5393     0.14941E-01 
  59168.8014     0.14670E-01 
  59201.0636     0.14402E-01 
  59233.3258     0.14136E-01 
  59265.5879     0.13874E-01 
  59297.8501     0.13614E-01 
  59330.1122     0.13357E-01 
  59362.3744     0.13103E-01 
  59394.6366     0.12852E-01 
  59426.8987     0.12603E-01 
  59459.1609     0.12357E-01 
  59491.4230     0.12114E-01 
  59523.6852     0.11874E-01 
  59555.9474     0.11636E-01 
  59588.2095     0.11401E-01 
  59620.4717     0.11169E-01 
  59652.7338     0.10939E-01 
  59684.9960     0.10712E-01 
  59717.2582     0.10488E-01 
  59749.5203     0.10266E-01 
  59781.7825     0.10047E-01 
  59814.0446     0.98307E-02 
  59846.3068     0.96168E-02 
  59878.5690     0.94055E-02 
  59910.8311     0.91968E-02 
  59943.0933     0.89907E-02 
  59975.3554     0.87871E-02 
  60007.6176     0.85861E-02 
  60039.8798     0.83876E-02 
  60072.1419     0.81917E-02 
  60104.4041     0.79983E-02 
  60136.6662     0.78074E-02 
  60168.9284     0.76190E-02 
  60201.1906     0.74332E-02 
  60233.4527     0.72498E-02 
  60265.7149     0.70689E-02 
  60297.9770     0.68905E-02 
  60330.2392     0.67146E-02 
  60362.5014     0.65411E-02 
  60394.7635     0.63701E-02 
  60427.0257     0.62016E-02 
  60459.2878     0.60355E-02 
  60491.5500     0.58718E-02 
  60523.8122     0.57106E-02 
  60556.0743     0.55518E-02 
  60588.3365     0.53955E-02 
  60620.5986     0.52416E-02 
  60652.8608     0.50901E-02 
  60685.1230     0.49410E-02 
  60717.3851     0.47944E-02 
  60749.6473     0.46501E-02 
  60781.9094     0.45083E-02 
  60814.1716     0.43689E-02 
  60846.4338     0.42318E-02 
  60878.6959     0.40972E-02 
  60910.9581     0.39650E-02 
  60943.2202     0.38352E-02 
  60975.4824     0.37078E-02 
  61007.7446     0.35828E-02 
  61040.0067     0.34602E-02 
  61072.2689     0.33400E-02 
  61104.5310     0.32222E-02 
  61136.7932     0.31068E-02 
  61169.0554     0.29938E-02 
  61201.3175     0.28832E-02 
  61233.5797     0.27750E-02 
  61265.8418     0.26692E-02 
  61298.1040     0.25658E-02 
  61330.3662     0.24649E-02 
  61362.6283     0.23664E-02 
  61394.8905     0.22702E-02 
  61427.1526     0.21766E-02 
  61459.4148     0.20853E-02 
  61491.6770     0.19965E-02 
  61523.9391     0.19101E-02 
  61556.2013     0.18262E-02 
  61588.4634     0.17447E-02 
  61620.7256     0.16657E-02 
  61652.9878     0.15892E-02 
  61685.2499     0.15151E-02 
  61717.5121     0.14435E-02 
  61749.7742     0.13744E-02 
  61782.0364     0.13078E-02 
  61814.2986     0.12438E-02 
  61846.5607     0.11822E-02 
  61878.8229     0.11232E-02 
  61911.0850     0.10667E-02 
  61943.3472     0.10128E-02 
  61975.6094     0.96139E-03 
  62007.8715     0.91260E-03 
  62040.1337     0.86640E-03 
  62072.3958     0.82281E-03 
  62104.6580     0.78183E-03 
  62136.9202     0.74348E-03 
  62169.1823     0.70778E-03 
  62201.4445     0.67474E-03 
  62233.7066     0.64438E-03 
  62265.9688     0.61672E-03 
  62298.2310     0.59177E-03 
  62330.4931     0.56955E-03 
  62362.7553     0.55008E-03 
  62395.0174     0.53338E-03 
  62427.2796     0.51947E-03 
  62459.5418     0.50837E-03 
  62491.8039     0.50010E-03 
  62524.0661     0.49468E-03 
  62556.3282     0.49213E-03 
  62588.5904     0.49248E-03 
  62620.8526     0.49576E-03 
  62653.1147     0.50198E-03 
  62685.3769     0.51117E-03 
  62717.6390     0.52336E-03 
  62749.9012     0.53857E-03 
  62782.1634     0.55683E-03 
  62814.4255     0.57818E-03 
  62846.6877     0.60263E-03 
  62878.9498     0.63023E-03 
  62911.2120     0.66099E-03 
  62943.4742     0.69496E-03 
  62975.7363     0.73216E-03 
  63007.9985     0.77262E-03 
  63040.2606     0.81639E-03 
  63072.5228     0.86350E-03 
  63104.7850     0.91398E-03 
  63137.0471     0.96787E-03 
  63169.3093     0.10252E-02 
  63201.5714     0.10860E-02 
  63233.8336     0.11504E-02 
  63266.0958     0.12183E-02 
  63298.3579     0.12898E-02 
  63330.6201     0.13650E-02 
  63362.8822     0.14439E-02 
  63395.1444     0.15265E-02 
  63427.4066     0.16129E-02 
  63459.6687     0.17032E-02 
  63491.9309     0.17973E-02 
  63524.1930     0.18954E-02 
  63556.4552     0.19974E-02 
  63588.7174     0.21035E-02 
  63620.9795     0.22137E-02 
  63653.2417     0.23280E-02 
  63685.5038     0.24465E-02 
  63717.7660     0.25693E-02 
  63750.0282     0.26964E-02 
  63782.2903     0.28279E-02 
  63814.5525     0.29638E-02 
  63846.8146     0.31042E-02 
  63879.0768     0.32492E-02 
  63911.3390     0.33988E-02 
  63943.6011     0.35531E-02 
  63975.8633     0.37122E-02 
  64008.1254     0.38761E-02 
  64040.3876     0.40449E-02 
  64072.6498     0.42187E-02 
  64104.9119     0.43976E-02 
  64137.1741     0.45816E-02 
  64169.4362     0.47708E-02 
  64201.6984     0.49653E-02 
  64233.9606     0.51652E-02 
  64266.2227     0.53705E-02 
  64298.4849     0.55814E-02 
  64330.7470     0.57979E-02 
  64363.0092     0.60201E-02 
  64395.2714     0.62482E-02 
  64427.5335     0.64821E-02 
  64459.7957     0.67221E-02 
  64492.0578     0.69682E-02 
  64524.3200     0.72204E-02 
  64556.5822     0.74790E-02 
  64588.8443     0.77440E-02 
  64621.1065     0.80154E-02 
  64653.3686     0.82935E-02 
  64685.6308     0.85784E-02 
  64717.8930     0.88700E-02 
  64750.1551     0.91687E-02 
  64782.4173     0.94744E-02 
  64814.6794     0.97873E-02 
  64846.9416     0.10108E-01 
  64879.2038     0.10435E-01 
  64911.4659     0.10770E-01 
  64943.7281     0.11113E-01 
  64975.9902     0.11464E-01 
  65008.2524     0.11823E-01 
  65040.5146     0.12190E-01 
  65072.7767     0.12565E-01 
  65105.0389     0.12948E-01 
  65137.3010     0.13341E-01 
  65169.5632     0.13741E-01 
  65201.8254     0.14151E-01 
  65234.0875     0.14570E-01 
  65266.3497     0.14997E-01 
  65298.6118     0.15434E-01 
  65330.8740     0.15881E-01 
  65363.1362     0.16337E-01 
  65395.3983     0.16804E-01 
  65427.6605     0.17280E-01 
  65459.9226     0.17766E-01 
  65492.1848     0.18263E-01 
  65524.4470     0.18770E-01 
  65556.7091     0.19288E-01 
  65588.9713     0.19817E-01 
  65621.2334     0.20357E-01 
  65653.4956     0.20909E-01 
  65685.7578     0.21472E-01 
  65718.0199     0.22047E-01 
  65750.2821     0.22634E-01 
  65782.5442     0.23233E-01 
  65814.8064     0.23844E-01 
  65847.0686     0.24468E-01 
  65879.3307     0.25105E-01 
  65911.5929     0.25756E-01 
  65943.8550     0.26419E-01 
  65976.1172     0.27096E-01 
  66008.3794     0.27787E-01 
  66040.6415     0.28492E-01 
  66072.9037     0.29212E-01 
  66105.1658     0.29946E-01 
  66137.4280     0.30695E-01 
  66169.6902     0.31459E-01 
  66201.9523     0.32239E-01 
  66234.2145     0.33034E-01 
  66266.4766     0.33846E-01 
  66298.7388     0.34673E-01 
  66331.0010     0.35518E-01 
  66363.2631     0.36379E-01 
  66395.5253     0.37257E-01 
  66427.7874     0.38153E-01 
  66460.0496     0.39067E-01 
  66492.3118     0.39999E-01 
  66524.5739     0.40950E-01 
  66556.8361     0.41920E-01 
  66589.0982     0.42908E-01 
  66621.3604     0.43917E-01 
  66653.6226     0.44945E-01 
  66685.8847     0.45993E-01 
  66718.1469     0.47063E-01 
  66750.4090     0.48153E-01 
  66782.6712     0.49265E-01 
  66814.9334     0.50398E-01 
  66847.1955     0.51554E-01 
  66879.4577     0.52732E-01 
  66911.7198     0.53933E-01 
  66943.9820     0.55158E-01 
  66976.2442     0.56406E-01 
  67008.5063     0.57679E-01 
  67040.7685     0.58977E-01 
  67073.0306     0.60299E-01 
  67105.2928     0.61648E-01 
  67137.5550     0.63022E-01 
  67169.8171     0.64423E-01 
  67202.0793     0.65851E-01 
  67234.3414     0.67306E-01 
  67266.6036     0.68790E-01 
  67298.8658     0.70302E-01 
  67331.1279     0.71843E-01 
  67363.3901     0.73413E-01 
  67395.6522     0.75013E-01 
  67427.9144     0.76644E-01 
  67460.1766     0.78306E-01 
  67492.4387     0.80000E-01 
  67524.7009     0.81726E-01 
  67556.9630     0.83484E-01 
  67589.2252     0.85276E-01 
  67621.4874     0.87102E-01 
  67653.7495     0.88962E-01 
  67686.0117     0.90858E-01 
  67718.2738     0.92789E-01 
  67750.5360     0.94756E-01 
  67782.7982     0.96760E-01 
  67815.0603     0.98802E-01 
  67847.3225     0.10088E+00 
  67879.5846     0.10300E+00 
  67911.8468     0.10516E+00 
  67944.1090     0.10736E+00 
  67976.3711     0.10960E+00 
  68008.6333     0.11188E+00 
  68040.8954     0.11420E+00 
  68073.1576     0.11657E+00 
  68105.4198     0.11898E+00 
  68137.6819     0.12143E+00 
  68169.9441     0.12393E+00 
  68202.2062     0.12647E+00 
  68234.4684     0.12907E+00 
  68266.7306     0.13171E+00 
  68298.9927     0.13439E+00 
  68331.2549     0.13713E+00 
  68363.5170     0.13991E+00 
  68395.7792     0.14275E+00 
  68428.0414     0.14564E+00 
  68460.3035     0.14858E+00 
  68492.5657     0.15157E+00 
  68524.8278     0.15462E+00 
  68557.0900     0.15772E+00 
  68589.3522     0.16088E+00 
  68621.6143     0.16409E+00 
  68653.8765     0.16736E+00 
  68686.1386     0.17069E+00 
  68718.4008     0.17408E+00 
  68750.6630     0.17753E+00 
  68782.9251     0.18104E+00 
  68815.1873     0.18461E+00 
  68847.4494     0.18824E+00 
  68879.7116     0.19194E+00 
  68911.9738     0.19570E+00 
  68944.2359     0.19953E+00 
  68976.4981     0.20343E+00 
  69008.7602     0.20739E+00 
  69041.0224     0.21143E+00 
  69073.2846     0.21553E+00 
  69105.5467     0.21970E+00 
  69137.8089     0.22395E+00 
  69170.0710     0.22826E+00 
  69202.3332     0.23266E+00 
  69234.5954     0.23712E+00 
  69266.8575     0.24167E+00 
  69299.1197     0.24629E+00 
  69331.3818     0.25099E+00 
  69363.6440     0.25577E+00 
  69395.9062     0.26063E+00 
  69428.1683     0.26557E+00 
  69460.4305     0.27059E+00 
  69492.6926     0.27570E+00 
  69524.9548     0.28090E+00 
  69557.2170     0.28618E+00 
  69589.4791     0.29154E+00 
  69621.7413     0.29700E+00 
  69654.0034     0.30255E+00 
  69686.2656     0.30819E+00 
  69718.5278     0.31392E+00 
  69750.7899     0.31974E+00 
  69783.0521     0.32566E+00 
  69815.3142     0.33168E+00 
  69847.5764     0.33779E+00 
  69879.8386     0.34401E+00 
  69912.1007     0.35032E+00 
  69944.3629     0.35673E+00 
  69976.6250     0.36325E+00 
  70008.8872     0.36987E+00 
  70041.1494     0.37660E+00 
  70073.4115     0.38343E+00 
  70105.6737     0.39037E+00 
  70137.9358     0.39742E+00 
  70170.1980     0.40459E+00 
  70202.4602     0.41186E+00 
  70234.7223     0.41925E+00 
  70266.9845     0.42675E+00 
  70299.2466     0.43437E+00 
  70331.5088     0.44210E+00 
  70363.7710     0.44996E+00 
  70396.0331     0.45793E+00 
  70428.2953     0.46603E+00 
  70460.5574     0.47425E+00 
  70492.8196     0.48260E+00 
  70525.0818     0.49107E+00 
  70557.3439     0.49967E+00 
  70589.6061     0.50840E+00 
  70621.8682     0.51726E+00 
  70654.1304     0.52625E+00 
  70686.3926     0.53537E+00 
  70718.6547     0.54463E+00 
  70750.9169     0.55403E+00 
  70783.1790     0.56356E+00 
  70815.4412     0.57323E+00 
  70847.7034     0.58305E+00 
  70879.9655     0.59300E+00 
  70912.2277     0.60310E+00 
  70944.4898     0.61335E+00 
  70976.7520     0.62374E+00 
  71009.0142     0.63428E+00 
  71041.2763     0.64497E+00 
  71073.5385     0.65581E+00 
  71105.8006     0.66680E+00 
  71138.0628     0.67795E+00 
  71170.3250     0.68925E+00 
  71202.5871     0.70071E+00 
  71234.8493     0.71233E+00 
  71267.1114     0.72411E+00 
  71299.3736     0.73605E+00 
  71331.6358     0.74816E+00 
  71363.8979     0.76043E+00 
  71396.1601     0.77286E+00 
  71428.4222     0.78546E+00 
  71460.6844     0.79824E+00 
  71492.9466     0.81118E+00 
  71525.2087     0.82429E+00 
  71557.4709     0.83758E+00 
  71589.7330     0.85105E+00 
  71621.9952     0.86469E+00 
  71654.2574     0.87851E+00 
  71686.5195     0.89251E+00 
  71718.7817     0.90669E+00 
  71751.0438     0.92105E+00 
  71783.3060     0.93559E+00 
  71815.5682     0.95033E+00 
  71847.8303     0.96524E+00 
  71880.0925     0.98035E+00 
  71912.3546     0.99565E+00 
  71944.6168     0.10111E+01 
  71976.8790     0.10268E+01 
  72009.1411     0.10427E+01 
  72041.4033     0.10588E+01 
  72073.6654     0.10750E+01 
  72105.9276     0.10915E+01 
  72138.1898     0.11081E+01 
  72170.4519     0.11250E+01 
  72202.7141     0.11421E+01 
  72234.9762     0.11593E+01 
  72267.2384     0.11768E+01 
  72299.5006     0.11945E+01 
  72331.7627     0.12124E+01 
  72364.0249     0.12305E+01 
  72396.2870     0.12488E+01 
  72428.5492     0.12673E+01 
  72460.8114     0.12860E+01 
  72493.0735     0.13050E+01 
  72525.3357     0.13241E+01 
  72557.5978     0.13435E+01 
  72589.8600     0.13631E+01 
