  32262.1600     0.30993E+02 
  32294.4222     0.31376E+02 
  32326.6843     0.31763E+02 
  32358.9465     0.32152E+02 
  32391.2086     0.32545E+02 
  32423.4708     0.32942E+02 
  32455.7330     0.33341E+02 
  32487.9951     0.33744E+02 
  32520.2573     0.34151E+02 
  32552.5194     0.34561E+02 
  32584.7816     0.34974E+02 
  32617.0438     0.35390E+02 
  32649.3059     0.35810E+02 
  32681.5681     0.36233E+02 
  32713.8302     0.36659E+02 
  32746.0924     0.37089E+02 
  32778.3546     0.37522E+02 
  32810.6167     0.37958E+02 
  32842.8789     0.38398E+02 
  32875.1410     0.38841E+02 
  32907.4032     0.39288E+02 
  32939.6654     0.39738E+02 
  32971.9275     0.40191E+02 
  33004.1897     0.40648E+02 
  33036.4518     0.41108E+02 
  33068.7140     0.41571E+02 
  33100.9762     0.42038E+02 
  33133.2383     0.42508E+02 
  33165.5005     0.42981E+02 
  33197.7626     0.43458E+02 
  33230.0248     0.43938E+02 
  33262.2870     0.44421E+02 
  33294.5491     0.44908E+02 
  33326.8113     0.45398E+02 
  33359.0734     0.45891E+02 
  33391.3356     0.46388E+02 
  33423.5978     0.46888E+02 
  33455.8599     0.47391E+02 
  33488.1221     0.47898E+02 
  33520.3842     0.48408E+02 
  33552.6464     0.48921E+02 
  33584.9086     0.49437E+02 
  33617.1707     0.49957E+02 
  33649.4329     0.50480E+02 
  33681.6950     0.51006E+02 
  33713.9572     0.51535E+02 
  33746.2194     0.52068E+02 
  33778.4815     0.52603E+02 
  33810.7437     0.53142E+02 
  33843.0058     0.53684E+02 
  33875.2680     0.54230E+02 
  33907.5302     0.54778E+02 
  33939.7923     0.55330E+02 
  33972.0545     0.55885E+02 
  34004.3166     0.56442E+02 
  34036.5788     0.57003E+02 
  34068.8410     0.57567E+02 
  34101.1031     0.58134E+02 
  34133.3653     0.58705E+02 
  34165.6274     0.59278E+02 
  34197.8896     0.59854E+02 
  34230.1518     0.60433E+02 
  34262.4139     0.61015E+02 
  34294.6761     0.61600E+02 
  34326.9382     0.62188E+02 
  34359.2004     0.62779E+02 
  34391.4626     0.63373E+02 
  34423.7247     0.63970E+02 
  34455.9869     0.64569E+02 
  34488.2490     0.65172E+02 
  34520.5112     0.65777E+02 
  34552.7734     0.66385E+02 
  34585.0355     0.66996E+02 
  34617.2977     0.67609E+02 
  34649.5598     0.68226E+02 
  34681.8220     0.68844E+02 
  34714.0842     0.69466E+02 
  34746.3463     0.70090E+02 
  34778.6085     0.70717E+02 
  34810.8706     0.71347E+02 
  34843.1328     0.71978E+02 
  34875.3950     0.72613E+02 
  34907.6571     0.73250E+02 
  34939.9193     0.73890E+02 
  34972.1814     0.74531E+02 
  35004.4436     0.75176E+02 
  35036.7058     0.75823E+02 
  35068.9679     0.76472E+02 
  35101.2301     0.77123E+02 
  35133.4922     0.77777E+02 
  35165.7544     0.78433E+02 
  35198.0166     0.79091E+02 
  35230.2787     0.79752E+02 
  35262.5409     0.80414E+02 
  35294.8030     0.81079E+02 
  35327.0652     0.81746E+02 
  35359.3274     0.82415E+02 
  35391.5895     0.83085E+02 
  35423.8517     0.83758E+02 
  35456.1138     0.84433E+02 
  35488.3760     0.85110E+02 
  35520.6382     0.85789E+02 
  35552.9003     0.86469E+02 
  35585.1625     0.87152E+02 
  35617.4246     0.87836E+02 
  35649.6868     0.88521E+02 
  35681.9490     0.89209E+02 
  35714.2111     0.89898E+02 
  35746.4733     0.90589E+02 
  35778.7354     0.91281E+02 
  35810.9976     0.91975E+02 
  35843.2598     0.92671E+02 
  35875.5219     0.93368E+02 
  35907.7841     0.94066E+02 
  35940.0462     0.94766E+02 
  35972.3084     0.95467E+02 
  36004.5706     0.96169E+02 
  36036.8327     0.96872E+02 
  36069.0949     0.97577E+02 
  36101.3570     0.98283E+02 
  36133.6192     0.98990E+02 
  36165.8814     0.99698E+02 
  36198.1435     0.10041E+03 
  36230.4057     0.10112E+03 
  36262.6678     0.10183E+03 
  36294.9300     0.10254E+03 
  36327.1922     0.10325E+03 
  36359.4543     0.10397E+03 
  36391.7165     0.10468E+03 
  36423.9786     0.10540E+03 
  36456.2408     0.10611E+03 
  36488.5030     0.10683E+03 
  36520.7651     0.10754E+03 
  36553.0273     0.10826E+03 
  36585.2894     0.10898E+03 
  36617.5516     0.10970E+03 
  36649.8138     0.11042E+03 
  36682.0759     0.11114E+03 
  36714.3381     0.11186E+03 
  36746.6002     0.11257E+03 
  36778.8624     0.11329E+03 
  36811.1246     0.11401E+03 
  36843.3867     0.11473E+03 
  36875.6489     0.11545E+03 
  36907.9110     0.11617E+03 
  36940.1732     0.11689E+03 
  36972.4354     0.11761E+03 
  37004.6975     0.11833E+03 
  37036.9597     0.11905E+03 
  37069.2218     0.11977E+03 
  37101.4840     0.12049E+03 
  37133.7462     0.12121E+03 
  37166.0083     0.12193E+03 
  37198.2705     0.12264E+03 
  37230.5326     0.12336E+03 
  37262.7948     0.12408E+03 
  37295.0570     0.12479E+03 
  37327.3191     0.12551E+03 
  37359.5813     0.12622E+03 
  37391.8434     0.12693E+03 
  37424.1056     0.12765E+03 
  37456.3678     0.12836E+03 
  37488.6299     0.12907E+03 
  37520.8921     0.12978E+03 
  37553.1542     0.13049E+03 
  37585.4164     0.13119E+03 
  37617.6786     0.13190E+03 
  37649.9407     0.13261E+03 
  37682.2029     0.13331E+03 
  37714.4650     0.13401E+03 
  37746.7272     0.13471E+03 
  37778.9894     0.13541E+03 
  37811.2515     0.13611E+03 
  37843.5137     0.13681E+03 
  37875.7758     0.13750E+03 
  37908.0380     0.13820E+03 
  37940.3002     0.13889E+03 
  37972.5623     0.13958E+03 
  38004.8245     0.14027E+03 
  38037.0866     0.14095E+03 
  38069.3488     0.14164E+03 
  38101.6110     0.14232E+03 
  38133.8731     0.14300E+03 
  38166.1353     0.14368E+03 
  38198.3974     0.14436E+03 
  38230.6596     0.14503E+03 
  38262.9218     0.14570E+03 
  38295.1839     0.14637E+03 
  38327.4461     0.14704E+03 
  38359.7082     0.14770E+03 
  38391.9704     0.14837E+03 
  38424.2326     0.14903E+03 
  38456.4947     0.14968E+03 
  38488.7569     0.15034E+03 
  38521.0190     0.15099E+03 
  38553.2812     0.15164E+03 
  38585.5434     0.15229E+03 
  38617.8055     0.15293E+03 
  38650.0677     0.15357E+03 
  38682.3298     0.15421E+03 
  38714.5920     0.15485E+03 
  38746.8542     0.15548E+03 
  38779.1163     0.15611E+03 
  38811.3785     0.15674E+03 
  38843.6406     0.15736E+03 
  38875.9028     0.15798E+03 
  38908.1650     0.15860E+03 
  38940.4271     0.15921E+03 
  38972.6893     0.15982E+03 
  39004.9514     0.16043E+03 
  39037.2136     0.16103E+03 
  39069.4758     0.16163E+03 
  39101.7379     0.16223E+03 
  39134.0001     0.16282E+03 
  39166.2622     0.16341E+03 
  39198.5244     0.16400E+03 
  39230.7866     0.16458E+03 
  39263.0487     0.16516E+03 
  39295.3109     0.16573E+03 
  39327.5730     0.16630E+03 
  39359.8352     0.16687E+03 
  39392.0974     0.16743E+03 
  39424.3595     0.16799E+03 
  39456.6217     0.16855E+03 
  39488.8838     0.16910E+03 
  39521.1460     0.16964E+03 
  39553.4082     0.17019E+03 
  39585.6703     0.17072E+03 
  39617.9325     0.17126E+03 
  39650.1946     0.17179E+03 
  39682.4568     0.17231E+03 
  39714.7190     0.17284E+03 
  39746.9811     0.17335E+03 
  39779.2433     0.17387E+03 
  39811.5054     0.17437E+03 
  39843.7676     0.17488E+03 
  39876.0298     0.17538E+03 
  39908.2919     0.17587E+03 
  39940.5541     0.17636E+03 
  39972.8162     0.17685E+03 
  40005.0784     0.17733E+03 
  40037.3406     0.17780E+03 
  40069.6027     0.17827E+03 
  40101.8649     0.17874E+03 
  40134.1270     0.17920E+03 
  40166.3892     0.17966E+03 
  40198.6514     0.18011E+03 
  40230.9135     0.18056E+03 
  40263.1757     0.18100E+03 
  40295.4378     0.18144E+03 
  40327.7000     0.18187E+03 
  40359.9622     0.18230E+03 
  40392.2243     0.18272E+03 
  40424.4865     0.18313E+03 
  40456.7486     0.18355E+03 
  40489.0108     0.18395E+03 
  40521.2730     0.18435E+03 
  40553.5351     0.18475E+03 
  40585.7973     0.18514E+03 
  40618.0594     0.18552E+03 
  40650.3216     0.18590E+03 
  40682.5838     0.18628E+03 
  40714.8459     0.18665E+03 
  40747.1081     0.18701E+03 
  40779.3702     0.18737E+03 
  40811.6324     0.18772E+03 
  40843.8946     0.18807E+03 
  40876.1567     0.18841E+03 
  40908.4189     0.18875E+03 
  40940.6810     0.18908E+03 
  40972.9432     0.18941E+03 
  41005.2054     0.18973E+03 
  41037.4675     0.19004E+03 
  41069.7297     0.19035E+03 
  41101.9918     0.19066E+03 
  41134.2540     0.19095E+03 
  41166.5162     0.19125E+03 
  41198.7783     0.19153E+03 
  41231.0405     0.19181E+03 
  41263.3026     0.19209E+03 
  41295.5648     0.19236E+03 
  41327.8270     0.19262E+03 
  41360.0891     0.19288E+03 
  41392.3513     0.19313E+03 
  41424.6134     0.19338E+03 
  41456.8756     0.19362E+03 
  41489.1378     0.19385E+03 
  41521.3999     0.19408E+03 
  41553.6621     0.19430E+03 
  41585.9242     0.19452E+03 
  41618.1864     0.19473E+03 
  41650.4486     0.19494E+03 
  41682.7107     0.19513E+03 
  41714.9729     0.19533E+03 
  41747.2350     0.19552E+03 
  41779.4972     0.19570E+03 
  41811.7594     0.19587E+03 
  41844.0215     0.19604E+03 
  41876.2837     0.19621E+03 
  41908.5458     0.19637E+03 
  41940.8080     0.19652E+03 
  41973.0702     0.19666E+03 
  42005.3323     0.19680E+03 
  42037.5945     0.19694E+03 
  42069.8566     0.19707E+03 
  42102.1188     0.19719E+03 
  42134.3810     0.19731E+03 
  42166.6431     0.19742E+03 
  42198.9053     0.19752E+03 
  42231.1674     0.19762E+03 
  42263.4296     0.19771E+03 
  42295.6918     0.19780E+03 
  42327.9539     0.19788E+03 
  42360.2161     0.19796E+03 
  42392.4782     0.19803E+03 
  42424.7404     0.19809E+03 
  42457.0026     0.19815E+03 
  42489.2647     0.19820E+03 
  42521.5269     0.19824E+03 
  42553.7890     0.19828E+03 
  42586.0512     0.19832E+03 
  42618.3134     0.19834E+03 
  42650.5755     0.19836E+03 
  42682.8377     0.19838E+03 
  42715.0998     0.19839E+03 
  42747.3620     0.19839E+03 
  42779.6242     0.19839E+03 
  42811.8863     0.19839E+03 
  42844.1485     0.19837E+03 
  42876.4106     0.19835E+03 
  42908.6728     0.19833E+03 
  42940.9350     0.19830E+03 
  42973.1971     0.19826E+03 
  43005.4593     0.19822E+03 
  43037.7214     0.19817E+03 
  43069.9836     0.19812E+03 
  43102.2458     0.19806E+03 
  43134.5079     0.19799E+03 
  43166.7701     0.19792E+03 
  43199.0322     0.19784E+03 
  43231.2944     0.19776E+03 
  43263.5566     0.19767E+03 
  43295.8187     0.19758E+03 
  43328.0809     0.19748E+03 
  43360.3430     0.19737E+03 
  43392.6052     0.19726E+03 
  43424.8674     0.19715E+03 
  43457.1295     0.19703E+03 
  43489.3917     0.19690E+03 
  43521.6538     0.19677E+03 
  43553.9160     0.19663E+03 
  43586.1782     0.19648E+03 
  43618.4403     0.19633E+03 
  43650.7025     0.19618E+03 
  43682.9646     0.19602E+03 
  43715.2268     0.19585E+03 
  43747.4890     0.19568E+03 
  43779.7511     0.19551E+03 
  43812.0133     0.19533E+03 
  43844.2754     0.19514E+03 
  43876.5376     0.19495E+03 
  43908.7998     0.19475E+03 
  43941.0619     0.19455E+03 
  43973.3241     0.19434E+03 
  44005.5862     0.19413E+03 
  44037.8484     0.19391E+03 
  44070.1106     0.19369E+03 
  44102.3727     0.19346E+03 
  44134.6349     0.19322E+03 
  44166.8970     0.19299E+03 
  44199.1592     0.19274E+03 
  44231.4214     0.19249E+03 
  44263.6835     0.19224E+03 
  44295.9457     0.19198E+03 
  44328.2078     0.19172E+03 
  44360.4700     0.19145E+03 
  44392.7322     0.19118E+03 
  44424.9943     0.19090E+03 
  44457.2565     0.19062E+03 
  44489.5186     0.19033E+03 
  44521.7808     0.19004E+03 
  44554.0430     0.18975E+03 
  44586.3051     0.18944E+03 
  44618.5673     0.18914E+03 
  44650.8294     0.18883E+03 
  44683.0916     0.18851E+03 
  44715.3538     0.18820E+03 
  44747.6159     0.18787E+03 
  44779.8781     0.18754E+03 
  44812.1402     0.18721E+03 
  44844.4024     0.18687E+03 
  44876.6646     0.18653E+03 
  44908.9267     0.18619E+03 
  44941.1889     0.18584E+03 
  44973.4510     0.18548E+03 
  45005.7132     0.18512E+03 
  45037.9754     0.18476E+03 
  45070.2375     0.18439E+03 
  45102.4997     0.18402E+03 
  45134.7618     0.18365E+03 
  45167.0240     0.18327E+03 
  45199.2862     0.18289E+03 
  45231.5483     0.18250E+03 
  45263.8105     0.18211E+03 
  45296.0726     0.18171E+03 
  45328.3348     0.18132E+03 
  45360.5970     0.18091E+03 
  45392.8591     0.18051E+03 
  45425.1213     0.18010E+03 
  45457.3834     0.17968E+03 
  45489.6456     0.17927E+03 
  45521.9078     0.17885E+03 
  45554.1699     0.17842E+03 
  45586.4321     0.17799E+03 
  45618.6942     0.17756E+03 
  45650.9564     0.17713E+03 
  45683.2186     0.17669E+03 
  45715.4807     0.17625E+03 
  45747.7429     0.17580E+03 
  45780.0050     0.17535E+03 
  45812.2672     0.17490E+03 
  45844.5294     0.17444E+03 
  45876.7915     0.17399E+03 
  45909.0537     0.17352E+03 
  45941.3158     0.17306E+03 
  45973.5780     0.17259E+03 
  46005.8402     0.17212E+03 
  46038.1023     0.17165E+03 
  46070.3645     0.17117E+03 
  46102.6266     0.17069E+03 
  46134.8888     0.17021E+03 
  46167.1510     0.16972E+03 
  46199.4131     0.16923E+03 
  46231.6753     0.16874E+03 
  46263.9374     0.16825E+03 
  46296.1996     0.16775E+03 
  46328.4618     0.16725E+03 
  46360.7239     0.16675E+03 
  46392.9861     0.16624E+03 
  46425.2482     0.16574E+03 
  46457.5104     0.16523E+03 
  46489.7726     0.16471E+03 
  46522.0347     0.16420E+03 
  46554.2969     0.16368E+03 
  46586.5590     0.16316E+03 
  46618.8212     0.16264E+03 
  46651.0834     0.16212E+03 
  46683.3455     0.16159E+03 
  46715.6077     0.16106E+03 
  46747.8698     0.16053E+03 
  46780.1320     0.16000E+03 
  46812.3942     0.15946E+03 
  46844.6563     0.15892E+03 
  46876.9185     0.15838E+03 
  46909.1806     0.15784E+03 
  46941.4428     0.15730E+03 
  46973.7050     0.15676E+03 
  47005.9671     0.15621E+03 
  47038.2293     0.15566E+03 
  47070.4914     0.15511E+03 
  47102.7536     0.15456E+03 
  47135.0158     0.15400E+03 
  47167.2779     0.15345E+03 
  47199.5401     0.15289E+03 
  47231.8022     0.15233E+03 
  47264.0644     0.15177E+03 
  47296.3266     0.15121E+03 
  47328.5887     0.15064E+03 
  47360.8509     0.15008E+03 
  47393.1130     0.14951E+03 
  47425.3752     0.14894E+03 
  47457.6374     0.14838E+03 
  47489.8995     0.14780E+03 
  47522.1617     0.14723E+03 
  47554.4238     0.14666E+03 
  47586.6860     0.14609E+03 
  47618.9482     0.14551E+03 
  47651.2103     0.14493E+03 
  47683.4725     0.14436E+03 
  47715.7346     0.14378E+03 
  47747.9968     0.14320E+03 
  47780.2590     0.14262E+03 
  47812.5211     0.14203E+03 
  47844.7833     0.14145E+03 
  47877.0454     0.14087E+03 
  47909.3076     0.14028E+03 
  47941.5698     0.13970E+03 
  47973.8319     0.13911E+03 
  48006.0941     0.13853E+03 
  48038.3562     0.13794E+03 
  48070.6184     0.13735E+03 
  48102.8806     0.13676E+03 
  48135.1427     0.13617E+03 
  48167.4049     0.13558E+03 
  48199.6670     0.13499E+03 
  48231.9292     0.13440E+03 
  48264.1914     0.13381E+03 
  48296.4535     0.13322E+03 
  48328.7157     0.13262E+03 
  48360.9778     0.13203E+03 
  48393.2400     0.13144E+03 
  48425.5022     0.13085E+03 
  48457.7643     0.13025E+03 
  48490.0265     0.12966E+03 
  48522.2886     0.12906E+03 
  48554.5508     0.12847E+03 
  48586.8130     0.12787E+03 
  48619.0751     0.12728E+03 
  48651.3373     0.12668E+03 
  48683.5994     0.12609E+03 
  48715.8616     0.12549E+03 
  48748.1238     0.12490E+03 
  48780.3859     0.12431E+03 
  48812.6481     0.12371E+03 
  48844.9102     0.12312E+03 
  48877.1724     0.12252E+03 
  48909.4346     0.12193E+03 
  48941.6967     0.12133E+03 
  48973.9589     0.12074E+03 
  49006.2210     0.12014E+03 
  49038.4832     0.11955E+03 
  49070.7454     0.11896E+03 
  49103.0075     0.11836E+03 
  49135.2697     0.11777E+03 
  49167.5318     0.11718E+03 
  49199.7940     0.11658E+03 
  49232.0562     0.11599E+03 
  49264.3183     0.11540E+03 
  49296.5805     0.11481E+03 
  49328.8426     0.11422E+03 
  49361.1048     0.11363E+03 
  49393.3670     0.11304E+03 
  49425.6291     0.11245E+03 
  49457.8913     0.11186E+03 
  49490.1534     0.11128E+03 
  49522.4156     0.11069E+03 
  49554.6778     0.11010E+03 
  49586.9399     0.10952E+03 
  49619.2021     0.10893E+03 
  49651.4642     0.10835E+03 
  49683.7264     0.10777E+03 
  49715.9886     0.10718E+03 
  49748.2507     0.10660E+03 
  49780.5129     0.10602E+03 
  49812.7750     0.10544E+03 
  49845.0372     0.10486E+03 
  49877.2994     0.10428E+03 
  49909.5615     0.10370E+03 
  49941.8237     0.10313E+03 
  49974.0858     0.10255E+03 
  50006.3480     0.10198E+03 
  50038.6102     0.10140E+03 
  50070.8723     0.10083E+03 
  50103.1345     0.10026E+03 
  50135.3966     0.99688E+02 
  50167.6588     0.99119E+02 
  50199.9210     0.98550E+02 
  50232.1831     0.97983E+02 
  50264.4453     0.97417E+02 
  50296.7074     0.96852E+02 
  50328.9696     0.96288E+02 
  50361.2318     0.95725E+02 
  50393.4939     0.95164E+02 
  50425.7561     0.94603E+02 
  50458.0182     0.94044E+02 
  50490.2804     0.93486E+02 
  50522.5426     0.92930E+02 
  50554.8047     0.92375E+02 
  50587.0669     0.91821E+02 
  50619.3290     0.91268E+02 
  50651.5912     0.90717E+02 
  50683.8534     0.90167E+02 
  50716.1155     0.89618E+02 
  50748.3777     0.89071E+02 
  50780.6398     0.88526E+02 
  50812.9020     0.87981E+02 
  50845.1642     0.87438E+02 
  50877.4263     0.86897E+02 
  50909.6885     0.86357E+02 
  50941.9506     0.85818E+02 
  50974.2128     0.85281E+02 
  51006.4750     0.84746E+02 
  51038.7371     0.84212E+02 
  51070.9993     0.83679E+02 
  51103.2614     0.83148E+02 
  51135.5236     0.82619E+02 
  51167.7858     0.82091E+02 
  51200.0479     0.81565E+02 
  51232.3101     0.81040E+02 
  51264.5722     0.80517E+02 
  51296.8344     0.79996E+02 
  51329.0966     0.79476E+02 
  51361.3587     0.78958E+02 
  51393.6209     0.78441E+02 
  51425.8830     0.77926E+02 
  51458.1452     0.77413E+02 
  51490.4074     0.76902E+02 
  51522.6695     0.76392E+02 
  51554.9317     0.75884E+02 
  51587.1938     0.75377E+02 
  51619.4560     0.74873E+02 
  51651.7182     0.74370E+02 
  51683.9803     0.73869E+02 
  51716.2425     0.73369E+02 
  51748.5046     0.72871E+02 
  51780.7668     0.72376E+02 
  51813.0290     0.71881E+02 
  51845.2911     0.71389E+02 
  51877.5533     0.70898E+02 
  51909.8154     0.70410E+02 
  51942.0776     0.69923E+02 
  51974.3398     0.69437E+02 
  52006.6019     0.68954E+02 
  52038.8641     0.68473E+02 
  52071.1262     0.67993E+02 
  52103.3884     0.67515E+02 
  52135.6506     0.67039E+02 
  52167.9127     0.66565E+02 
  52200.1749     0.66093E+02 
  52232.4370     0.65622E+02 
  52264.6992     0.65154E+02 
  52296.9614     0.64687E+02 
  52329.2235     0.64222E+02 
  52361.4857     0.63759E+02 
  52393.7478     0.63298E+02 
  52426.0100     0.62839E+02 
  52458.2722     0.62382E+02 
  52490.5343     0.61927E+02 
  52522.7965     0.61473E+02 
  52555.0586     0.61022E+02 
  52587.3208     0.60572E+02 
  52619.5830     0.60125E+02 
  52651.8451     0.59679E+02 
  52684.1073     0.59235E+02 
  52716.3694     0.58793E+02 
  52748.6316     0.58353E+02 
  52780.8938     0.57915E+02 
  52813.1559     0.57479E+02 
  52845.4181     0.57045E+02 
  52877.6802     0.56613E+02 
  52909.9424     0.56183E+02 
  52942.2046     0.55755E+02 
  52974.4667     0.55328E+02 
  53006.7289     0.54904E+02 
  53038.9910     0.54482E+02 
  53071.2532     0.54061E+02 
  53103.5154     0.53643E+02 
  53135.7775     0.53226E+02 
  53168.0397     0.52812E+02 
  53200.3018     0.52399E+02 
  53232.5640     0.51989E+02 
  53264.8262     0.51580E+02 
  53297.0883     0.51173E+02 
  53329.3505     0.50769E+02 
  53361.6126     0.50366E+02 
  53393.8748     0.49965E+02 
  53426.1370     0.49566E+02 
  53458.3991     0.49170E+02 
  53490.6613     0.48775E+02 
  53522.9234     0.48382E+02 
  53555.1856     0.47991E+02 
  53587.4478     0.47602E+02 
  53619.7099     0.47215E+02 
  53651.9721     0.46830E+02 
  53684.2342     0.46447E+02 
  53716.4964     0.46066E+02 
  53748.7586     0.45687E+02 
  53781.0207     0.45310E+02 
  53813.2829     0.44934E+02 
  53845.5450     0.44561E+02 
  53877.8072     0.44190E+02 
  53910.0694     0.43820E+02 
  53942.3315     0.43453E+02 
  53974.5937     0.43088E+02 
  54006.8558     0.42724E+02 
  54039.1180     0.42363E+02 
  54071.3802     0.42003E+02 
  54103.6423     0.41645E+02 
  54135.9045     0.41290E+02 
  54168.1666     0.40936E+02 
  54200.4288     0.40584E+02 
  54232.6910     0.40234E+02 
  54264.9531     0.39886E+02 
  54297.2153     0.39540E+02 
  54329.4774     0.39196E+02 
  54361.7396     0.38854E+02 
  54394.0018     0.38513E+02 
  54426.2639     0.38175E+02 
  54458.5261     0.37839E+02 
  54490.7882     0.37504E+02 
  54523.0504     0.37171E+02 
  54555.3126     0.36841E+02 
  54587.5747     0.36512E+02 
  54619.8369     0.36185E+02 
  54652.0990     0.35860E+02 
  54684.3612     0.35537E+02 
  54716.6234     0.35215E+02 
  54748.8855     0.34896E+02 
  54781.1477     0.34578E+02 
  54813.4098     0.34263E+02 
  54845.6720     0.33949E+02 
  54877.9342     0.33637E+02 
  54910.1963     0.33327E+02 
  54942.4585     0.33018E+02 
  54974.7206     0.32712E+02 
  55006.9828     0.32407E+02 
  55039.2450     0.32105E+02 
  55071.5071     0.31804E+02 
  55103.7693     0.31505E+02 
  55136.0314     0.31208E+02 
  55168.2936     0.30912E+02 
  55200.5558     0.30618E+02 
  55232.8179     0.30327E+02 
  55265.0801     0.30037E+02 
  55297.3422     0.29748E+02 
  55329.6044     0.29462E+02 
  55361.8666     0.29177E+02 
  55394.1287     0.28895E+02 
  55426.3909     0.28613E+02 
  55458.6530     0.28334E+02 
  55490.9152     0.28057E+02 
  55523.1774     0.27781E+02 
  55555.4395     0.27507E+02 
  55587.7017     0.27235E+02 
  55619.9638     0.26964E+02 
  55652.2260     0.26695E+02 
  55684.4882     0.26428E+02 
  55716.7503     0.26163E+02 
  55749.0125     0.25899E+02 
  55781.2746     0.25637E+02 
  55813.5368     0.25377E+02 
  55845.7990     0.25119E+02 
  55878.0611     0.24862E+02 
  55910.3233     0.24607E+02 
  55942.5854     0.24354E+02 
  55974.8476     0.24102E+02 
  56007.1098     0.23852E+02 
  56039.3719     0.23604E+02 
  56071.6341     0.23357E+02 
  56103.8962     0.23112E+02 
  56136.1584     0.22868E+02 
  56168.4206     0.22627E+02 
  56200.6827     0.22387E+02 
  56232.9449     0.22148E+02 
  56265.2070     0.21911E+02 
  56297.4692     0.21676E+02 
  56329.7314     0.21442E+02 
  56361.9935     0.21210E+02 
  56394.2557     0.20980E+02 
  56426.5178     0.20751E+02 
  56458.7800     0.20524E+02 
  56491.0422     0.20298E+02 
  56523.3043     0.20074E+02 
  56555.5665     0.19852E+02 
  56587.8286     0.19631E+02 
  56620.0908     0.19411E+02 
  56652.3530     0.19194E+02 
  56684.6151     0.18977E+02 
  56716.8773     0.18763E+02 
  56749.1394     0.18549E+02 
  56781.4016     0.18338E+02 
  56813.6638     0.18128E+02 
  56845.9259     0.17919E+02 
  56878.1881     0.17712E+02 
  56910.4502     0.17506E+02 
  56942.7124     0.17302E+02 
  56974.9746     0.17100E+02 
  57007.2367     0.16898E+02 
  57039.4989     0.16699E+02 
  57071.7610     0.16500E+02 
  57104.0232     0.16304E+02 
  57136.2854     0.16108E+02 
  57168.5475     0.15915E+02 
  57200.8097     0.15722E+02 
  57233.0718     0.15531E+02 
  57265.3340     0.15342E+02 
  57297.5962     0.15154E+02 
  57329.8583     0.14967E+02 
  57362.1205     0.14782E+02 
  57394.3826     0.14598E+02 
  57426.6448     0.14415E+02 
  57458.9070     0.14234E+02 
  57491.1691     0.14055E+02 
  57523.4313     0.13877E+02 
  57555.6934     0.13700E+02 
  57587.9556     0.13524E+02 
  57620.2178     0.13350E+02 
  57652.4799     0.13177E+02 
  57684.7421     0.13006E+02 
  57717.0042     0.12836E+02 
  57749.2664     0.12667E+02 
  57781.5286     0.12499E+02 
  57813.7907     0.12333E+02 
  57846.0529     0.12169E+02 
  57878.3150     0.12005E+02 
  57910.5772     0.11843E+02 
  57942.8394     0.11682E+02 
  57975.1015     0.11523E+02 
  58007.3637     0.11365E+02 
  58039.6258     0.11208E+02 
  58071.8880     0.11052E+02 
  58104.1502     0.10898E+02 
  58136.4123     0.10745E+02 
  58168.6745     0.10593E+02 
  58200.9366     0.10442E+02 
  58233.1988     0.10293E+02 
  58265.4610     0.10145E+02 
  58297.7231     0.99980E+01 
  58329.9853     0.98524E+01 
  58362.2474     0.97081E+01 
  58394.5096     0.95650E+01 
  58426.7718     0.94231E+01 
  58459.0339     0.92824E+01 
  58491.2961     0.91430E+01 
  58523.5582     0.90048E+01 
  58555.8204     0.88678E+01 
  58588.0826     0.87319E+01 
  58620.3447     0.85973E+01 
  58652.6069     0.84639E+01 
  58684.8690     0.83316E+01 
  58717.1312     0.82006E+01 
  58749.3934     0.80707E+01 
  58781.6555     0.79419E+01 
  58813.9177     0.78144E+01 
  58846.1798     0.76880E+01 
  58878.4420     0.75628E+01 
  58910.7042     0.74387E+01 
  58942.9663     0.73157E+01 
  58975.2285     0.71940E+01 
  59007.4906     0.70733E+01 
  59039.7528     0.69538E+01 
  59072.0150     0.68354E+01 
  59104.2771     0.67182E+01 
  59136.5393     0.66020E+01 
  59168.8014     0.64870E+01 
  59201.0636     0.63731E+01 
  59233.3258     0.62604E+01 
  59265.5879     0.61487E+01 
  59297.8501     0.60381E+01 
  59330.1122     0.59287E+01 
  59362.3744     0.58203E+01 
  59394.6366     0.57130E+01 
  59426.8987     0.56069E+01 
  59459.1609     0.55018E+01 
  59491.4230     0.53978E+01 
  59523.6852     0.52948E+01 
  59555.9474     0.51930E+01 
  59588.2095     0.50922E+01 
  59620.4717     0.49925E+01 
  59652.7338     0.48939E+01 
  59684.9960     0.47963E+01 
  59717.2582     0.46998E+01 
  59749.5203     0.46044E+01 
  59781.7825     0.45100E+01 
  59814.0446     0.44167E+01 
  59846.3068     0.43244E+01 
  59878.5690     0.42332E+01 
  59910.8311     0.41430E+01 
  59943.0933     0.40539E+01 
  59975.3554     0.39658E+01 
  60007.6176     0.38788E+01 
  60039.8798     0.37928E+01 
  60072.1419     0.37079E+01 
  60104.4041     0.36240E+01 
  60136.6662     0.35411E+01 
  60168.9284     0.34593E+01 
  60201.1906     0.33785E+01 
  60233.4527     0.32987E+01 
  60265.7149     0.32200E+01 
  60297.9770     0.31423E+01 
  60330.2392     0.30656E+01 
  60362.5014     0.29900E+01 
  60394.7635     0.29154E+01 
  60427.0257     0.28418E+01 
  60459.2878     0.27692E+01 
  60491.5500     0.26977E+01 
  60523.8122     0.26272E+01 
  60556.0743     0.25578E+01 
  60588.3365     0.24894E+01 
  60620.5986     0.24220E+01 
  60652.8608     0.23556E+01 
  60685.1230     0.22902E+01 
  60717.3851     0.22259E+01 
  60749.6473     0.21627E+01 
  60781.9094     0.21004E+01 
  60814.1716     0.20392E+01 
  60846.4338     0.19791E+01 
  60878.6959     0.19199E+01 
  60910.9581     0.18618E+01 
  60943.2202     0.18048E+01 
  60975.4824     0.17488E+01 
  61007.7446     0.16938E+01 
  61040.0067     0.16399E+01 
  61072.2689     0.15870E+01 
  61104.5310     0.15352E+01 
  61136.7932     0.14844E+01 
  61169.0554     0.14347E+01 
  61201.3175     0.13861E+01 
  61233.5797     0.13385E+01 
  61265.8418     0.12920E+01 
  61298.1040     0.12466E+01 
  61330.3662     0.12022E+01 
  61362.6283     0.11589E+01 
  61394.8905     0.11167E+01 
  61427.1526     0.10756E+01 
  61459.4148     0.10355E+01 
  61491.6770     0.99660E+00 
  61523.9391     0.95877E+00 
  61556.2013     0.92204E+00 
  61588.4634     0.88643E+00 
  61620.7256     0.85193E+00 
  61652.9878     0.81855E+00 
  61685.2499     0.78631E+00 
  61717.5121     0.75520E+00 
  61749.7742     0.72523E+00 
  61782.0364     0.69640E+00 
  61814.2986     0.66874E+00 
  61846.5607     0.64223E+00 
  61878.8229     0.61689E+00 
  61911.0850     0.59274E+00 
  61943.3472     0.56976E+00 
  61975.6094     0.54798E+00 
  62007.8715     0.52740E+00 
  62040.1337     0.50804E+00 
  62072.3958     0.48989E+00 
  62104.6580     0.47297E+00 
  62136.9202     0.45728E+00 
  62169.1823     0.44285E+00 
  62201.4445     0.42967E+00 
  62233.7066     0.41776E+00 
  62265.9688     0.40713E+00 
  62298.2310     0.39779E+00 
  62330.4931     0.38975E+00 
  62362.7553     0.38302E+00 
  62395.0174     0.37762E+00 
  62427.2796     0.37355E+00 
  62459.5418     0.37083E+00 
  62491.8039     0.36948E+00 
  62524.0661     0.36949E+00 
  62556.3282     0.37090E+00 
  62588.5904     0.37371E+00 
  62620.8526     0.37793E+00 
  62653.1147     0.38359E+00 
  62685.3769     0.39069E+00 
  62717.6390     0.39925E+00 
  62749.9012     0.40929E+00 
  62782.1634     0.42082E+00 
  62814.4255     0.43386E+00 
  62846.6877     0.44842E+00 
  62878.9498     0.46453E+00 
  62911.2120     0.48220E+00 
  62943.4742     0.50145E+00 
  62975.7363     0.52229E+00 
  63007.9985     0.54475E+00 
  63040.2606     0.56885E+00 
  63072.5228     0.59460E+00 
  63104.7850     0.62203E+00 
  63137.0471     0.65115E+00 
  63169.3093     0.68199E+00 
  63201.5714     0.71456E+00 
  63233.8336     0.74890E+00 
  63266.0958     0.78502E+00 
  63298.3579     0.82295E+00 
  63330.6201     0.86270E+00 
  63362.8822     0.90431E+00 
  63395.1444     0.94780E+00 
  63427.4066     0.99319E+00 
  63459.6687     0.10405E+01 
  63491.9309     0.10898E+01 
  63524.1930     0.11410E+01 
  63556.4552     0.11943E+01 
  63588.7174     0.12496E+01 
  63620.9795     0.13070E+01 
  63653.2417     0.13664E+01 
  63685.5038     0.14280E+01 
  63717.7660     0.14917E+01 
  63750.0282     0.15576E+01 
  63782.2903     0.16258E+01 
  63814.5525     0.16961E+01 
  63846.8146     0.17688E+01 
  63879.0768     0.18438E+01 
  63911.3390     0.19211E+01 
  63943.6011     0.20008E+01 
  63975.8633     0.20829E+01 
  64008.1254     0.21674E+01 
  64040.3876     0.22545E+01 
  64072.6498     0.23441E+01 
  64104.9119     0.24362E+01 
  64137.1741     0.25309E+01 
  64169.4362     0.26283E+01 
  64201.6984     0.27284E+01 
  64233.9606     0.28312E+01 
  64266.2227     0.29367E+01 
  64298.4849     0.30451E+01 
  64330.7470     0.31563E+01 
  64363.0092     0.32704E+01 
  64395.2714     0.33874E+01 
  64427.5335     0.35074E+01 
  64459.7957     0.36305E+01 
  64492.0578     0.37566E+01 
  64524.3200     0.38858E+01 
  64556.5822     0.40183E+01 
  64588.8443     0.41539E+01 
  64621.1065     0.42928E+01 
  64653.3686     0.44351E+01 
  64685.6308     0.45807E+01 
  64717.8930     0.47297E+01 
  64750.1551     0.48823E+01 
  64782.4173     0.50383E+01 
  64814.6794     0.51980E+01 
  64846.9416     0.53613E+01 
  64879.2038     0.55284E+01 
  64911.4659     0.56992E+01 
  64943.7281     0.58738E+01 
  64975.9902     0.60524E+01 
  65008.2524     0.62349E+01 
  65040.5146     0.64214E+01 
  65072.7767     0.66120E+01 
  65105.0389     0.68067E+01 
  65137.3010     0.70056E+01 
  65169.5632     0.72089E+01 
  65201.8254     0.74164E+01 
  65234.0875     0.76284E+01 
  65266.3497     0.78449E+01 
  65298.6118     0.80660E+01 
  65330.8740     0.82916E+01 
  65363.1362     0.85220E+01 
  65395.3983     0.87572E+01 
  65427.6605     0.89972E+01 
  65459.9226     0.92422E+01 
  65492.1848     0.94921E+01 
  65524.4470     0.97472E+01 
  65556.7091     0.10007E+02 
  65588.9713     0.10273E+02 
  65621.2334     0.10544E+02 
  65653.4956     0.10820E+02 
  65685.7578     0.11102E+02 
  65718.0199     0.11389E+02 
  65750.2821     0.11682E+02 
  65782.5442     0.11981E+02 
  65814.8064     0.12286E+02 
  65847.0686     0.12597E+02 
  65879.3307     0.12913E+02 
  65911.5929     0.13236E+02 
  65943.8550     0.13566E+02 
  65976.1172     0.13901E+02 
  66008.3794     0.14243E+02 
  66040.6415     0.14592E+02 
  66072.9037     0.14947E+02 
  66105.1658     0.15309E+02 
  66137.4280     0.15678E+02 
  66169.6902     0.16053E+02 
  66201.9523     0.16436E+02 
  66234.2145     0.16826E+02 
  66266.4766     0.17224E+02 
  66298.7388     0.17628E+02 
  66331.0010     0.18041E+02 
  66363.2631     0.18461E+02 
  66395.5253     0.18888E+02 
  66427.7874     0.19324E+02 
  66460.0496     0.19768E+02 
  66492.3118     0.20219E+02 
  66524.5739     0.20679E+02 
  66556.8361     0.21148E+02 
  66589.0982     0.21625E+02 
  66621.3604     0.22110E+02 
  66653.6226     0.22604E+02 
  66685.8847     0.23108E+02 
  66718.1469     0.23620E+02 
  66750.4090     0.24141E+02 
  66782.6712     0.24672E+02 
  66814.9334     0.25212E+02 
  66847.1955     0.25762E+02 
  66879.4577     0.26321E+02 
  66911.7198     0.26890E+02 
  66943.9820     0.27470E+02 
  66976.2442     0.28059E+02 
  67008.5063     0.28659E+02 
  67040.7685     0.29269E+02 
  67073.0306     0.29890E+02 
  67105.2928     0.30522E+02 
  67137.5550     0.31164E+02 
  67169.8171     0.31818E+02 
  67202.0793     0.32483E+02 
  67234.3414     0.33159E+02 
  67266.6036     0.33847E+02 
  67298.8658     0.34546E+02 
  67331.1279     0.35258E+02 
  67363.3901     0.35982E+02 
  67395.6522     0.36717E+02 
  67427.9144     0.37466E+02 
  67460.1766     0.38227E+02 
  67492.4387     0.39000E+02 
  67524.7009     0.39787E+02 
  67556.9630     0.40586E+02 
  67589.2252     0.41399E+02 
  67621.4874     0.42226E+02 
  67653.7495     0.43066E+02 
  67686.0117     0.43920E+02 
  67718.2738     0.44788E+02 
  67750.5360     0.45671E+02 
  67782.7982     0.46568E+02 
  67815.0603     0.47479E+02 
  67847.3225     0.48405E+02 
  67879.5846     0.49347E+02 
  67911.8468     0.50303E+02 
  67944.1090     0.51275E+02 
  67976.3711     0.52263E+02 
  68008.6333     0.53266E+02 
  68040.8954     0.54286E+02 
  68073.1576     0.55322E+02 
  68105.4198     0.56374E+02 
  68137.6819     0.57443E+02 
  68169.9441     0.58529E+02 
  68202.2062     0.59632E+02 
  68234.4684     0.60752E+02 
  68266.7306     0.61890E+02 
  68298.9927     0.63046E+02 
  68331.2549     0.64220E+02 
  68363.5170     0.65412E+02 
  68395.7792     0.66622E+02 
  68428.0414     0.67851E+02 
  68460.3035     0.69099E+02 
  68492.5657     0.70367E+02 
  68524.8278     0.71653E+02 
  68557.0900     0.72960E+02 
  68589.3522     0.74286E+02 
  68621.6143     0.75632E+02 
  68653.8765     0.76999E+02 
  68686.1386     0.78386E+02 
  68718.4008     0.79795E+02 
  68750.6630     0.81224E+02 
  68782.9251     0.82674E+02 
  68815.1873     0.84147E+02 
  68847.4494     0.85641E+02 
  68879.7116     0.87157E+02 
  68911.9738     0.88696E+02 
  68944.2359     0.90257E+02 
  68976.4981     0.91841E+02 
  69008.7602     0.93448E+02 
  69041.0224     0.95079E+02 
  69073.2846     0.96733E+02 
  69105.5467     0.98411E+02 
  69137.8089     0.10011E+03 
  69170.0710     0.10184E+03 
  69202.3332     0.10359E+03 
  69234.5954     0.10537E+03 
  69266.8575     0.10717E+03 
  69299.1197     0.10900E+03 
  69331.3818     0.11085E+03 
  69363.6440     0.11273E+03 
  69395.9062     0.11464E+03 
  69428.1683     0.11657E+03 
  69460.4305     0.11853E+03 
  69492.6926     0.12052E+03 
  69524.9548     0.12253E+03 
  69557.2170     0.12457E+03 
  69589.4791     0.12664E+03 
  69621.7413     0.12874E+03 
  69654.0034     0.13087E+03 
  69686.2656     0.13302E+03 
  69718.5278     0.13521E+03 
  69750.7899     0.13742E+03 
  69783.0521     0.13967E+03 
  69815.3142     0.14194E+03 
  69847.5764     0.14425E+03 
  69879.8386     0.14658E+03 
  69912.1007     0.14895E+03 
  69944.3629     0.15135E+03 
  69976.6250     0.15378E+03 
  70008.8872     0.15624E+03 
  70041.1494     0.15873E+03 
  70073.4115     0.16126E+03 
  70105.6737     0.16382E+03 
  70137.9358     0.16641E+03 
  70170.1980     0.16903E+03 
  70202.4602     0.17169E+03 
  70234.7223     0.17439E+03 
  70266.9845     0.17711E+03 
  70299.2466     0.17987E+03 
  70331.5088     0.18267E+03 
  70363.7710     0.18550E+03 
  70396.0331     0.18837E+03 
  70428.2953     0.19127E+03 
  70460.5574     0.19421E+03 
  70492.8196     0.19718E+03 
  70525.0818     0.20020E+03 
  70557.3439     0.20324E+03 
  70589.6061     0.20633E+03 
  70621.8682     0.20945E+03 
  70654.1304     0.21261E+03 
  70686.3926     0.21581E+03 
  70718.6547     0.21905E+03 
  70750.9169     0.22233E+03 
  70783.1790     0.22564E+03 
  70815.4412     0.22900E+03 
  70847.7034     0.23239E+03 
  70879.9655     0.23582E+03 
  70912.2277     0.23930E+03 
  70944.4898     0.24281E+03 
  70976.7520     0.24637E+03 
  71009.0142     0.24996E+03 
  71041.2763     0.25360E+03 
  71073.5385     0.25728E+03 
  71105.8006     0.26100E+03 
  71138.0628     0.26476E+03 
  71170.3250     0.26857E+03 
  71202.5871     0.27242E+03 
  71234.8493     0.27631E+03 
  71267.1114     0.28024E+03 
  71299.3736     0.28422E+03 
  71331.6358     0.28824E+03 
  71363.8979     0.29231E+03 
  71396.1601     0.29642E+03 
  71428.4222     0.30058E+03 
  71460.6844     0.30478E+03 
  71492.9466     0.30902E+03 
  71525.2087     0.31331E+03 
  71557.4709     0.31765E+03 
  71589.7330     0.32203E+03 
  71621.9952     0.32646E+03 
  71654.2574     0.33093E+03 
  71686.5195     0.33546E+03 
  71718.7817     0.34003E+03 
  71751.0438     0.34464E+03 
  71783.3060     0.34930E+03 
  71815.5682     0.35402E+03 
  71847.8303     0.35877E+03 
  71880.0925     0.36358E+03 
  71912.3546     0.36844E+03 
  71944.6168     0.37334E+03 
  71976.8790     0.37829E+03 
  72009.1411     0.38330E+03 
  72041.4033     0.38835E+03 
  72073.6654     0.39345E+03 
  72105.9276     0.39860E+03 
  72138.1898     0.40380E+03 
  72170.4519     0.40905E+03 
  72202.7141     0.41435E+03 
  72234.9762     0.41970E+03 
  72267.2384     0.42511E+03 
  72299.5006     0.43056E+03 
  72331.7627     0.43606E+03 
  72364.0249     0.44162E+03 
  72396.2870     0.44723E+03 
  72428.5492     0.45289E+03 
  72460.8114     0.45860E+03 
  72493.0735     0.46436E+03 
  72525.3357     0.47017E+03 
  72557.5978     0.47604E+03 
  72589.8600     0.48196E+03 
