  32262.1600     0.50619E+02 
  32294.4222     0.51267E+02 
  32326.6843     0.51921E+02 
  32358.9465     0.52580E+02 
  32391.2086     0.53245E+02 
  32423.4708     0.53916E+02 
  32455.7330     0.54593E+02 
  32487.9951     0.55275E+02 
  32520.2573     0.55963E+02 
  32552.5194     0.56657E+02 
  32584.7816     0.57357E+02 
  32617.0438     0.58062E+02 
  32649.3059     0.58773E+02 
  32681.5681     0.59490E+02 
  32713.8302     0.60213E+02 
  32746.0924     0.60942E+02 
  32778.3546     0.61676E+02 
  32810.6167     0.62416E+02 
  32842.8789     0.63162E+02 
  32875.1410     0.63914E+02 
  32907.4032     0.64671E+02 
  32939.6654     0.65434E+02 
  32971.9275     0.66203E+02 
  33004.1897     0.66978E+02 
  33036.4518     0.67759E+02 
  33068.7140     0.68545E+02 
  33100.9762     0.69337E+02 
  33133.2383     0.70135E+02 
  33165.5005     0.70939E+02 
  33197.7626     0.71748E+02 
  33230.0248     0.72563E+02 
  33262.2870     0.73384E+02 
  33294.5491     0.74210E+02 
  33326.8113     0.75042E+02 
  33359.0734     0.75880E+02 
  33391.3356     0.76723E+02 
  33423.5978     0.77572E+02 
  33455.8599     0.78427E+02 
  33488.1221     0.79287E+02 
  33520.3842     0.80153E+02 
  33552.6464     0.81024E+02 
  33584.9086     0.81901E+02 
  33617.1707     0.82784E+02 
  33649.4329     0.83671E+02 
  33681.6950     0.84565E+02 
  33713.9572     0.85464E+02 
  33746.2194     0.86368E+02 
  33778.4815     0.87278E+02 
  33810.7437     0.88193E+02 
  33843.0058     0.89113E+02 
  33875.2680     0.90039E+02 
  33907.5302     0.90970E+02 
  33939.7923     0.91907E+02 
  33972.0545     0.92848E+02 
  34004.3166     0.93795E+02 
  34036.5788     0.94747E+02 
  34068.8410     0.95704E+02 
  34101.1031     0.96666E+02 
  34133.3653     0.97634E+02 
  34165.6274     0.98606E+02 
  34197.8896     0.99584E+02 
  34230.1518     0.10057E+03 
  34262.4139     0.10155E+03 
  34294.6761     0.10255E+03 
  34326.9382     0.10354E+03 
  34359.2004     0.10454E+03 
  34391.4626     0.10555E+03 
  34423.7247     0.10656E+03 
  34455.9869     0.10758E+03 
  34488.2490     0.10860E+03 
  34520.5112     0.10962E+03 
  34552.7734     0.11065E+03 
  34585.0355     0.11169E+03 
  34617.2977     0.11273E+03 
  34649.5598     0.11377E+03 
  34681.8220     0.11482E+03 
  34714.0842     0.11587E+03 
  34746.3463     0.11693E+03 
  34778.6085     0.11799E+03 
  34810.8706     0.11905E+03 
  34843.1328     0.12012E+03 
  34875.3950     0.12119E+03 
  34907.6571     0.12227E+03 
  34939.9193     0.12335E+03 
  34972.1814     0.12443E+03 
  35004.4436     0.12552E+03 
  35036.7058     0.12661E+03 
  35068.9679     0.12771E+03 
  35101.2301     0.12881E+03 
  35133.4922     0.12991E+03 
  35165.7544     0.13102E+03 
  35198.0166     0.13213E+03 
  35230.2787     0.13324E+03 
  35262.5409     0.13436E+03 
  35294.8030     0.13548E+03 
  35327.0652     0.13660E+03 
  35359.3274     0.13773E+03 
  35391.5895     0.13886E+03 
  35423.8517     0.13999E+03 
  35456.1138     0.14113E+03 
  35488.3760     0.14226E+03 
  35520.6382     0.14341E+03 
  35552.9003     0.14455E+03 
  35585.1625     0.14570E+03 
  35617.4246     0.14684E+03 
  35649.6868     0.14800E+03 
  35681.9490     0.14915E+03 
  35714.2111     0.15031E+03 
  35746.4733     0.15147E+03 
  35778.7354     0.15263E+03 
  35810.9976     0.15379E+03 
  35843.2598     0.15495E+03 
  35875.5219     0.15612E+03 
  35907.7841     0.15729E+03 
  35940.0462     0.15846E+03 
  35972.3084     0.15963E+03 
  36004.5706     0.16081E+03 
  36036.8327     0.16198E+03 
  36069.0949     0.16316E+03 
  36101.3570     0.16434E+03 
  36133.6192     0.16552E+03 
  36165.8814     0.16670E+03 
  36198.1435     0.16789E+03 
  36230.4057     0.16907E+03 
  36262.6678     0.17025E+03 
  36294.9300     0.17144E+03 
  36327.1922     0.17263E+03 
  36359.4543     0.17381E+03 
  36391.7165     0.17500E+03 
  36423.9786     0.17619E+03 
  36456.2408     0.17738E+03 
  36488.5030     0.17857E+03 
  36520.7651     0.17976E+03 
  36553.0273     0.18095E+03 
  36585.2894     0.18214E+03 
  36617.5516     0.18333E+03 
  36649.8138     0.18452E+03 
  36682.0759     0.18571E+03 
  36714.3381     0.18690E+03 
  36746.6002     0.18809E+03 
  36778.8624     0.18928E+03 
  36811.1246     0.19047E+03 
  36843.3867     0.19166E+03 
  36875.6489     0.19285E+03 
  36907.9110     0.19404E+03 
  36940.1732     0.19522E+03 
  36972.4354     0.19641E+03 
  37004.6975     0.19759E+03 
  37036.9597     0.19878E+03 
  37069.2218     0.19996E+03 
  37101.4840     0.20114E+03 
  37133.7462     0.20232E+03 
  37166.0083     0.20350E+03 
  37198.2705     0.20468E+03 
  37230.5326     0.20585E+03 
  37262.7948     0.20703E+03 
  37295.0570     0.20820E+03 
  37327.3191     0.20937E+03 
  37359.5813     0.21054E+03 
  37391.8434     0.21170E+03 
  37424.1056     0.21287E+03 
  37456.3678     0.21403E+03 
  37488.6299     0.21519E+03 
  37520.8921     0.21634E+03 
  37553.1542     0.21750E+03 
  37585.4164     0.21865E+03 
  37617.6786     0.21980E+03 
  37649.9407     0.22094E+03 
  37682.2029     0.22209E+03 
  37714.4650     0.22323E+03 
  37746.7272     0.22436E+03 
  37778.9894     0.22550E+03 
  37811.2515     0.22663E+03 
  37843.5137     0.22776E+03 
  37875.7758     0.22888E+03 
  37908.0380     0.23000E+03 
  37940.3002     0.23112E+03 
  37972.5623     0.23223E+03 
  38004.8245     0.23334E+03 
  38037.0866     0.23444E+03 
  38069.3488     0.23554E+03 
  38101.6110     0.23664E+03 
  38133.8731     0.23774E+03 
  38166.1353     0.23882E+03 
  38198.3974     0.23991E+03 
  38230.6596     0.24099E+03 
  38262.9218     0.24206E+03 
  38295.1839     0.24313E+03 
  38327.4461     0.24420E+03 
  38359.7082     0.24526E+03 
  38391.9704     0.24632E+03 
  38424.2326     0.24737E+03 
  38456.4947     0.24842E+03 
  38488.7569     0.24946E+03 
  38521.0190     0.25049E+03 
  38553.2812     0.25153E+03 
  38585.5434     0.25255E+03 
  38617.8055     0.25357E+03 
  38650.0677     0.25459E+03 
  38682.3298     0.25560E+03 
  38714.5920     0.25660E+03 
  38746.8542     0.25760E+03 
  38779.1163     0.25859E+03 
  38811.3785     0.25957E+03 
  38843.6406     0.26055E+03 
  38875.9028     0.26153E+03 
  38908.1650     0.26249E+03 
  38940.4271     0.26346E+03 
  38972.6893     0.26441E+03 
  39004.9514     0.26536E+03 
  39037.2136     0.26630E+03 
  39069.4758     0.26724E+03 
  39101.7379     0.26817E+03 
  39134.0001     0.26909E+03 
  39166.2622     0.27000E+03 
  39198.5244     0.27091E+03 
  39230.7866     0.27181E+03 
  39263.0487     0.27271E+03 
  39295.3109     0.27360E+03 
  39327.5730     0.27448E+03 
  39359.8352     0.27535E+03 
  39392.0974     0.27622E+03 
  39424.3595     0.27707E+03 
  39456.6217     0.27793E+03 
  39488.8838     0.27877E+03 
  39521.1460     0.27961E+03 
  39553.4082     0.28044E+03 
  39585.6703     0.28126E+03 
  39617.9325     0.28207E+03 
  39650.1946     0.28288E+03 
  39682.4568     0.28367E+03 
  39714.7190     0.28446E+03 
  39746.9811     0.28524E+03 
  39779.2433     0.28602E+03 
  39811.5054     0.28678E+03 
  39843.7676     0.28754E+03 
  39876.0298     0.28829E+03 
  39908.2919     0.28903E+03 
  39940.5541     0.28977E+03 
  39972.8162     0.29049E+03 
  40005.0784     0.29121E+03 
  40037.3406     0.29191E+03 
  40069.6027     0.29261E+03 
  40101.8649     0.29330E+03 
  40134.1270     0.29399E+03 
  40166.3892     0.29466E+03 
  40198.6514     0.29532E+03 
  40230.9135     0.29598E+03 
  40263.1757     0.29663E+03 
  40295.4378     0.29726E+03 
  40327.7000     0.29789E+03 
  40359.9622     0.29851E+03 
  40392.2243     0.29913E+03 
  40424.4865     0.29973E+03 
  40456.7486     0.30032E+03 
  40489.0108     0.30091E+03 
  40521.2730     0.30148E+03 
  40553.5351     0.30205E+03 
  40585.7973     0.30260E+03 
  40618.0594     0.30315E+03 
  40650.3216     0.30369E+03 
  40682.5838     0.30422E+03 
  40714.8459     0.30474E+03 
  40747.1081     0.30525E+03 
  40779.3702     0.30575E+03 
  40811.6324     0.30624E+03 
  40843.8946     0.30672E+03 
  40876.1567     0.30719E+03 
  40908.4189     0.30766E+03 
  40940.6810     0.30811E+03 
  40972.9432     0.30855E+03 
  41005.2054     0.30899E+03 
  41037.4675     0.30941E+03 
  41069.7297     0.30983E+03 
  41101.9918     0.31023E+03 
  41134.2540     0.31063E+03 
  41166.5162     0.31101E+03 
  41198.7783     0.31139E+03 
  41231.0405     0.31176E+03 
  41263.3026     0.31211E+03 
  41295.5648     0.31246E+03 
  41327.8270     0.31280E+03 
  41360.0891     0.31312E+03 
  41392.3513     0.31344E+03 
  41424.6134     0.31375E+03 
  41456.8756     0.31405E+03 
  41489.1378     0.31434E+03 
  41521.3999     0.31461E+03 
  41553.6621     0.31488E+03 
  41585.9242     0.31514E+03 
  41618.1864     0.31539E+03 
  41650.4486     0.31563E+03 
  41682.7107     0.31586E+03 
  41714.9729     0.31608E+03 
  41747.2350     0.31628E+03 
  41779.4972     0.31648E+03 
  41811.7594     0.31667E+03 
  41844.0215     0.31685E+03 
  41876.2837     0.31702E+03 
  41908.5458     0.31718E+03 
  41940.8080     0.31733E+03 
  41973.0702     0.31747E+03 
  42005.3323     0.31760E+03 
  42037.5945     0.31772E+03 
  42069.8566     0.31783E+03 
  42102.1188     0.31793E+03 
  42134.3810     0.31802E+03 
  42166.6431     0.31811E+03 
  42198.9053     0.31818E+03 
  42231.1674     0.31824E+03 
  42263.4296     0.31829E+03 
  42295.6918     0.31833E+03 
  42327.9539     0.31836E+03 
  42360.2161     0.31839E+03 
  42392.4782     0.31840E+03 
  42424.7404     0.31840E+03 
  42457.0026     0.31839E+03 
  42489.2647     0.31838E+03 
  42521.5269     0.31835E+03 
  42553.7890     0.31832E+03 
  42586.0512     0.31827E+03 
  42618.3134     0.31822E+03 
  42650.5755     0.31815E+03 
  42682.8377     0.31808E+03 
  42715.0998     0.31799E+03 
  42747.3620     0.31790E+03 
  42779.6242     0.31780E+03 
  42811.8863     0.31769E+03 
  42844.1485     0.31756E+03 
  42876.4106     0.31743E+03 
  42908.6728     0.31729E+03 
  42940.9350     0.31714E+03 
  42973.1971     0.31699E+03 
  43005.4593     0.31682E+03 
  43037.7214     0.31664E+03 
  43069.9836     0.31645E+03 
  43102.2458     0.31626E+03 
  43134.5079     0.31605E+03 
  43166.7701     0.31584E+03 
  43199.0322     0.31562E+03 
  43231.2944     0.31538E+03 
  43263.5566     0.31514E+03 
  43295.8187     0.31489E+03 
  43328.0809     0.31464E+03 
  43360.3430     0.31437E+03 
  43392.6052     0.31409E+03 
  43424.8674     0.31381E+03 
  43457.1295     0.31351E+03 
  43489.3917     0.31321E+03 
  43521.6538     0.31290E+03 
  43553.9160     0.31258E+03 
  43586.1782     0.31225E+03 
  43618.4403     0.31191E+03 
  43650.7025     0.31157E+03 
  43682.9646     0.31121E+03 
  43715.2268     0.31085E+03 
  43747.4890     0.31048E+03 
  43779.7511     0.31010E+03 
  43812.0133     0.30972E+03 
  43844.2754     0.30932E+03 
  43876.5376     0.30892E+03 
  43908.7998     0.30850E+03 
  43941.0619     0.30809E+03 
  43973.3241     0.30766E+03 
  44005.5862     0.30722E+03 
  44037.8484     0.30678E+03 
  44070.1106     0.30633E+03 
  44102.3727     0.30587E+03 
  44134.6349     0.30540E+03 
  44166.8970     0.30493E+03 
  44199.1592     0.30444E+03 
  44231.4214     0.30395E+03 
  44263.6835     0.30346E+03 
  44295.9457     0.30295E+03 
  44328.2078     0.30244E+03 
  44360.4700     0.30192E+03 
  44392.7322     0.30139E+03 
  44424.9943     0.30086E+03 
  44457.2565     0.30032E+03 
  44489.5186     0.29977E+03 
  44521.7808     0.29921E+03 
  44554.0430     0.29865E+03 
  44586.3051     0.29808E+03 
  44618.5673     0.29750E+03 
  44650.8294     0.29692E+03 
  44683.0916     0.29633E+03 
  44715.3538     0.29573E+03 
  44747.6159     0.29513E+03 
  44779.8781     0.29452E+03 
  44812.1402     0.29390E+03 
  44844.4024     0.29328E+03 
  44876.6646     0.29265E+03 
  44908.9267     0.29201E+03 
  44941.1889     0.29137E+03 
  44973.4510     0.29072E+03 
  45005.7132     0.29006E+03 
  45037.9754     0.28940E+03 
  45070.2375     0.28874E+03 
  45102.4997     0.28806E+03 
  45134.7618     0.28738E+03 
  45167.0240     0.28670E+03 
  45199.2862     0.28601E+03 
  45231.5483     0.28531E+03 
  45263.8105     0.28461E+03 
  45296.0726     0.28390E+03 
  45328.3348     0.28319E+03 
  45360.5970     0.28247E+03 
  45392.8591     0.28175E+03 
  45425.1213     0.28102E+03 
  45457.3834     0.28028E+03 
  45489.6456     0.27954E+03 
  45521.9078     0.27879E+03 
  45554.1699     0.27804E+03 
  45586.4321     0.27729E+03 
  45618.6942     0.27653E+03 
  45650.9564     0.27576E+03 
  45683.2186     0.27499E+03 
  45715.4807     0.27422E+03 
  45747.7429     0.27344E+03 
  45780.0050     0.27265E+03 
  45812.2672     0.27186E+03 
  45844.5294     0.27107E+03 
  45876.7915     0.27027E+03 
  45909.0537     0.26947E+03 
  45941.3158     0.26866E+03 
  45973.5780     0.26785E+03 
  46005.8402     0.26703E+03 
  46038.1023     0.26621E+03 
  46070.3645     0.26539E+03 
  46102.6266     0.26456E+03 
  46134.8888     0.26373E+03 
  46167.1510     0.26290E+03 
  46199.4131     0.26206E+03 
  46231.6753     0.26121E+03 
  46263.9374     0.26037E+03 
  46296.1996     0.25951E+03 
  46328.4618     0.25866E+03 
  46360.7239     0.25780E+03 
  46392.9861     0.25694E+03 
  46425.2482     0.25608E+03 
  46457.5104     0.25521E+03 
  46489.7726     0.25434E+03 
  46522.0347     0.25346E+03 
  46554.2969     0.25259E+03 
  46586.5590     0.25171E+03 
  46618.8212     0.25082E+03 
  46651.0834     0.24994E+03 
  46683.3455     0.24905E+03 
  46715.6077     0.24816E+03 
  46747.8698     0.24726E+03 
  46780.1320     0.24636E+03 
  46812.3942     0.24546E+03 
  46844.6563     0.24456E+03 
  46876.9185     0.24366E+03 
  46909.1806     0.24275E+03 
  46941.4428     0.24184E+03 
  46973.7050     0.24093E+03 
  47005.9671     0.24001E+03 
  47038.2293     0.23909E+03 
  47070.4914     0.23817E+03 
  47102.7536     0.23725E+03 
  47135.0158     0.23633E+03 
  47167.2779     0.23541E+03 
  47199.5401     0.23448E+03 
  47231.8022     0.23355E+03 
  47264.0644     0.23262E+03 
  47296.3266     0.23169E+03 
  47328.5887     0.23075E+03 
  47360.8509     0.22982E+03 
  47393.1130     0.22888E+03 
  47425.3752     0.22794E+03 
  47457.6374     0.22700E+03 
  47489.8995     0.22606E+03 
  47522.1617     0.22512E+03 
  47554.4238     0.22417E+03 
  47586.6860     0.22323E+03 
  47618.9482     0.22228E+03 
  47651.2103     0.22134E+03 
  47683.4725     0.22039E+03 
  47715.7346     0.21944E+03 
  47747.9968     0.21849E+03 
  47780.2590     0.21754E+03 
  47812.5211     0.21658E+03 
  47844.7833     0.21563E+03 
  47877.0454     0.21468E+03 
  47909.3076     0.21372E+03 
  47941.5698     0.21277E+03 
  47973.8319     0.21181E+03 
  48006.0941     0.21086E+03 
  48038.3562     0.20990E+03 
  48070.6184     0.20894E+03 
  48102.8806     0.20799E+03 
  48135.1427     0.20703E+03 
  48167.4049     0.20607E+03 
  48199.6670     0.20511E+03 
  48231.9292     0.20416E+03 
  48264.1914     0.20320E+03 
  48296.4535     0.20224E+03 
  48328.7157     0.20128E+03 
  48360.9778     0.20032E+03 
  48393.2400     0.19936E+03 
  48425.5022     0.19841E+03 
  48457.7643     0.19745E+03 
  48490.0265     0.19649E+03 
  48522.2886     0.19553E+03 
  48554.5508     0.19458E+03 
  48586.8130     0.19362E+03 
  48619.0751     0.19267E+03 
  48651.3373     0.19171E+03 
  48683.5994     0.19075E+03 
  48715.8616     0.18980E+03 
  48748.1238     0.18885E+03 
  48780.3859     0.18789E+03 
  48812.6481     0.18694E+03 
  48844.9102     0.18599E+03 
  48877.1724     0.18504E+03 
  48909.4346     0.18409E+03 
  48941.6967     0.18314E+03 
  48973.9589     0.18219E+03 
  49006.2210     0.18124E+03 
  49038.4832     0.18029E+03 
  49070.7454     0.17935E+03 
  49103.0075     0.17840E+03 
  49135.2697     0.17746E+03 
  49167.5318     0.17652E+03 
  49199.7940     0.17558E+03 
  49232.0562     0.17464E+03 
  49264.3183     0.17370E+03 
  49296.5805     0.17276E+03 
  49328.8426     0.17182E+03 
  49361.1048     0.17089E+03 
  49393.3670     0.16996E+03 
  49425.6291     0.16902E+03 
  49457.8913     0.16809E+03 
  49490.1534     0.16717E+03 
  49522.4156     0.16624E+03 
  49554.6778     0.16531E+03 
  49586.9399     0.16439E+03 
  49619.2021     0.16347E+03 
  49651.4642     0.16254E+03 
  49683.7264     0.16162E+03 
  49715.9886     0.16071E+03 
  49748.2507     0.15979E+03 
  49780.5129     0.15888E+03 
  49812.7750     0.15797E+03 
  49845.0372     0.15706E+03 
  49877.2994     0.15615E+03 
  49909.5615     0.15524E+03 
  49941.8237     0.15434E+03 
  49974.0858     0.15343E+03 
  50006.3480     0.15253E+03 
  50038.6102     0.15163E+03 
  50070.8723     0.15074E+03 
  50103.1345     0.14984E+03 
  50135.3966     0.14895E+03 
  50167.6588     0.14806E+03 
  50199.9210     0.14717E+03 
  50232.1831     0.14629E+03 
  50264.4453     0.14540E+03 
  50296.7074     0.14452E+03 
  50328.9696     0.14364E+03 
  50361.2318     0.14277E+03 
  50393.4939     0.14189E+03 
  50425.7561     0.14102E+03 
  50458.0182     0.14015E+03 
  50490.2804     0.13928E+03 
  50522.5426     0.13842E+03 
  50554.8047     0.13756E+03 
  50587.0669     0.13670E+03 
  50619.3290     0.13584E+03 
  50651.5912     0.13498E+03 
  50683.8534     0.13413E+03 
  50716.1155     0.13328E+03 
  50748.3777     0.13243E+03 
  50780.6398     0.13159E+03 
  50812.9020     0.13075E+03 
  50845.1642     0.12991E+03 
  50877.4263     0.12907E+03 
  50909.6885     0.12824E+03 
  50941.9506     0.12740E+03 
  50974.2128     0.12658E+03 
  51006.4750     0.12575E+03 
  51038.7371     0.12493E+03 
  51070.9993     0.12411E+03 
  51103.2614     0.12329E+03 
  51135.5236     0.12247E+03 
  51167.7858     0.12166E+03 
  51200.0479     0.12085E+03 
  51232.3101     0.12004E+03 
  51264.5722     0.11924E+03 
  51296.8344     0.11844E+03 
  51329.0966     0.11764E+03 
  51361.3587     0.11684E+03 
  51393.6209     0.11605E+03 
  51425.8830     0.11526E+03 
  51458.1452     0.11448E+03 
  51490.4074     0.11369E+03 
  51522.6695     0.11291E+03 
  51554.9317     0.11213E+03 
  51587.1938     0.11136E+03 
  51619.4560     0.11059E+03 
  51651.7182     0.10982E+03 
  51683.9803     0.10905E+03 
  51716.2425     0.10829E+03 
  51748.5046     0.10753E+03 
  51780.7668     0.10677E+03 
  51813.0290     0.10602E+03 
  51845.2911     0.10527E+03 
  51877.5533     0.10452E+03 
  51909.8154     0.10377E+03 
  51942.0776     0.10303E+03 
  51974.3398     0.10229E+03 
  52006.6019     0.10156E+03 
  52038.8641     0.10083E+03 
  52071.1262     0.10010E+03 
  52103.3884     0.99370E+02 
  52135.6506     0.98647E+02 
  52167.9127     0.97927E+02 
  52200.1749     0.97210E+02 
  52232.4370     0.96496E+02 
  52264.6992     0.95785E+02 
  52296.9614     0.95078E+02 
  52329.2235     0.94374E+02 
  52361.4857     0.93672E+02 
  52393.7478     0.92974E+02 
  52426.0100     0.92279E+02 
  52458.2722     0.91587E+02 
  52490.5343     0.90899E+02 
  52522.7965     0.90213E+02 
  52555.0586     0.89531E+02 
  52587.3208     0.88852E+02 
  52619.5830     0.88176E+02 
  52651.8451     0.87503E+02 
  52684.1073     0.86833E+02 
  52716.3694     0.86167E+02 
  52748.6316     0.85503E+02 
  52780.8938     0.84843E+02 
  52813.1559     0.84186E+02 
  52845.4181     0.83533E+02 
  52877.6802     0.82882E+02 
  52909.9424     0.82235E+02 
  52942.2046     0.81590E+02 
  52974.4667     0.80949E+02 
  53006.7289     0.80312E+02 
  53038.9910     0.79677E+02 
  53071.2532     0.79045E+02 
  53103.5154     0.78417E+02 
  53135.7775     0.77792E+02 
  53168.0397     0.77170E+02 
  53200.3018     0.76551E+02 
  53232.5640     0.75935E+02 
  53264.8262     0.75323E+02 
  53297.0883     0.74714E+02 
  53329.3505     0.74108E+02 
  53361.6126     0.73505E+02 
  53393.8748     0.72905E+02 
  53426.1370     0.72308E+02 
  53458.3991     0.71715E+02 
  53490.6613     0.71124E+02 
  53522.9234     0.70537E+02 
  53555.1856     0.69953E+02 
  53587.4478     0.69372E+02 
  53619.7099     0.68795E+02 
  53651.9721     0.68220E+02 
  53684.2342     0.67648E+02 
  53716.4964     0.67080E+02 
  53748.7586     0.66515E+02 
  53781.0207     0.65953E+02 
  53813.2829     0.65394E+02 
  53845.5450     0.64838E+02 
  53877.8072     0.64285E+02 
  53910.0694     0.63735E+02 
  53942.3315     0.63189E+02 
  53974.5937     0.62645E+02 
  54006.8558     0.62105E+02 
  54039.1180     0.61567E+02 
  54071.3802     0.61033E+02 
  54103.6423     0.60502E+02 
  54135.9045     0.59973E+02 
  54168.1666     0.59448E+02 
  54200.4288     0.58926E+02 
  54232.6910     0.58407E+02 
  54264.9531     0.57891E+02 
  54297.2153     0.57378E+02 
  54329.4774     0.56868E+02 
  54361.7396     0.56361E+02 
  54394.0018     0.55857E+02 
  54426.2639     0.55356E+02 
  54458.5261     0.54858E+02 
  54490.7882     0.54363E+02 
  54523.0504     0.53871E+02 
  54555.3126     0.53382E+02 
  54587.5747     0.52896E+02 
  54619.8369     0.52413E+02 
  54652.0990     0.51932E+02 
  54684.3612     0.51455E+02 
  54716.6234     0.50981E+02 
  54748.8855     0.50509E+02 
  54781.1477     0.50041E+02 
  54813.4098     0.49575E+02 
  54845.6720     0.49112E+02 
  54877.9342     0.48652E+02 
  54910.1963     0.48195E+02 
  54942.4585     0.47741E+02 
  54974.7206     0.47290E+02 
  55006.9828     0.46842E+02 
  55039.2450     0.46396E+02 
  55071.5071     0.45953E+02 
  55103.7693     0.45513E+02 
  55136.0314     0.45076E+02 
  55168.2936     0.44642E+02 
  55200.5558     0.44210E+02 
  55232.8179     0.43781E+02 
  55265.0801     0.43355E+02 
  55297.3422     0.42932E+02 
  55329.6044     0.42512E+02 
  55361.8666     0.42094E+02 
  55394.1287     0.41679E+02 
  55426.3909     0.41267E+02 
  55458.6530     0.40857E+02 
  55490.9152     0.40450E+02 
  55523.1774     0.40046E+02 
  55555.4395     0.39645E+02 
  55587.7017     0.39246E+02 
  55619.9638     0.38850E+02 
  55652.2260     0.38456E+02 
  55684.4882     0.38066E+02 
  55716.7503     0.37677E+02 
  55749.0125     0.37292E+02 
  55781.2746     0.36909E+02 
  55813.5368     0.36529E+02 
  55845.7990     0.36151E+02 
  55878.0611     0.35776E+02 
  55910.3233     0.35403E+02 
  55942.5854     0.35033E+02 
  55974.8476     0.34666E+02 
  56007.1098     0.34301E+02 
  56039.3719     0.33938E+02 
  56071.6341     0.33578E+02 
  56103.8962     0.33221E+02 
  56136.1584     0.32866E+02 
  56168.4206     0.32514E+02 
  56200.6827     0.32164E+02 
  56232.9449     0.31816E+02 
  56265.2070     0.31471E+02 
  56297.4692     0.31129E+02 
  56329.7314     0.30789E+02 
  56361.9935     0.30451E+02 
  56394.2557     0.30116E+02 
  56426.5178     0.29783E+02 
  56458.7800     0.29453E+02 
  56491.0422     0.29125E+02 
  56523.3043     0.28799E+02 
  56555.5665     0.28476E+02 
  56587.8286     0.28155E+02 
  56620.0908     0.27836E+02 
  56652.3530     0.27520E+02 
  56684.6151     0.27206E+02 
  56716.8773     0.26894E+02 
  56749.1394     0.26585E+02 
  56781.4016     0.26278E+02 
  56813.6638     0.25973E+02 
  56845.9259     0.25671E+02 
  56878.1881     0.25370E+02 
  56910.4502     0.25072E+02 
  56942.7124     0.24777E+02 
  56974.9746     0.24483E+02 
  57007.2367     0.24192E+02 
  57039.4989     0.23903E+02 
  57071.7610     0.23616E+02 
  57104.0232     0.23331E+02 
  57136.2854     0.23048E+02 
  57168.5475     0.22768E+02 
  57200.8097     0.22490E+02 
  57233.0718     0.22214E+02 
  57265.3340     0.21940E+02 
  57297.5962     0.21668E+02 
  57329.8583     0.21398E+02 
  57362.1205     0.21131E+02 
  57394.3826     0.20865E+02 
  57426.6448     0.20602E+02 
  57458.9070     0.20340E+02 
  57491.1691     0.20081E+02 
  57523.4313     0.19824E+02 
  57555.6934     0.19569E+02 
  57587.9556     0.19315E+02 
  57620.2178     0.19064E+02 
  57652.4799     0.18815E+02 
  57684.7421     0.18568E+02 
  57717.0042     0.18323E+02 
  57749.2664     0.18080E+02 
  57781.5286     0.17839E+02 
  57813.7907     0.17600E+02 
  57846.0529     0.17362E+02 
  57878.3150     0.17127E+02 
  57910.5772     0.16894E+02 
  57942.8394     0.16662E+02 
  57975.1015     0.16433E+02 
  58007.3637     0.16205E+02 
  58039.6258     0.15980E+02 
  58071.8880     0.15756E+02 
  58104.1502     0.15534E+02 
  58136.4123     0.15314E+02 
  58168.6745     0.15096E+02 
  58200.9366     0.14880E+02 
  58233.1988     0.14665E+02 
  58265.4610     0.14453E+02 
  58297.7231     0.14242E+02 
  58329.9853     0.14033E+02 
  58362.2474     0.13826E+02 
  58394.5096     0.13620E+02 
  58426.7718     0.13417E+02 
  58459.0339     0.13215E+02 
  58491.2961     0.13015E+02 
  58523.5582     0.12817E+02 
  58555.8204     0.12621E+02 
  58588.0826     0.12426E+02 
  58620.3447     0.12233E+02 
  58652.6069     0.12042E+02 
  58684.8690     0.11852E+02 
  58717.1312     0.11665E+02 
  58749.3934     0.11479E+02 
  58781.6555     0.11294E+02 
  58813.9177     0.11112E+02 
  58846.1798     0.10931E+02 
  58878.4420     0.10752E+02 
  58910.7042     0.10574E+02 
  58942.9663     0.10398E+02 
  58975.2285     0.10224E+02 
  59007.4906     0.10052E+02 
  59039.7528     0.98810E+01 
  59072.0150     0.97117E+01 
  59104.2771     0.95442E+01 
  59136.5393     0.93782E+01 
  59168.8014     0.92139E+01 
  59201.0636     0.90513E+01 
  59233.3258     0.88902E+01 
  59265.5879     0.87307E+01 
  59297.8501     0.85729E+01 
  59330.1122     0.84166E+01 
  59362.3744     0.82619E+01 
  59394.6366     0.81088E+01 
  59426.8987     0.79573E+01 
  59459.1609     0.78074E+01 
  59491.4230     0.76590E+01 
  59523.6852     0.75122E+01 
  59555.9474     0.73669E+01 
  59588.2095     0.72232E+01 
  59620.4717     0.70811E+01 
  59652.7338     0.69405E+01 
  59684.9960     0.68014E+01 
  59717.2582     0.66639E+01 
  59749.5203     0.65279E+01 
  59781.7825     0.63934E+01 
  59814.0446     0.62604E+01 
  59846.3068     0.61290E+01 
  59878.5690     0.59990E+01 
  59910.8311     0.58706E+01 
  59943.0933     0.57437E+01 
  59975.3554     0.56183E+01 
  60007.6176     0.54943E+01 
  60039.8798     0.53719E+01 
  60072.1419     0.52510E+01 
  60104.4041     0.51315E+01 
  60136.6662     0.50136E+01 
  60168.9284     0.48971E+01 
  60201.1906     0.47821E+01 
  60233.4527     0.46685E+01 
  60265.7149     0.45565E+01 
  60297.9770     0.44459E+01 
  60330.2392     0.43368E+01 
  60362.5014     0.42291E+01 
  60394.7635     0.41230E+01 
  60427.0257     0.40183E+01 
  60459.2878     0.39150E+01 
  60491.5500     0.38132E+01 
  60523.8122     0.37129E+01 
  60556.0743     0.36140E+01 
  60588.3365     0.35166E+01 
  60620.5986     0.34207E+01 
  60652.8608     0.33262E+01 
  60685.1230     0.32332E+01 
  60717.3851     0.31416E+01 
  60749.6473     0.30515E+01 
  60781.9094     0.29629E+01 
  60814.1716     0.28757E+01 
  60846.4338     0.27900E+01 
  60878.6959     0.27057E+01 
  60910.9581     0.26229E+01 
  60943.2202     0.25416E+01 
  60975.4824     0.24618E+01 
  61007.7446     0.23834E+01 
  61040.0067     0.23064E+01 
  61072.2689     0.22310E+01 
  61104.5310     0.21570E+01 
  61136.7932     0.20845E+01 
  61169.0554     0.20135E+01 
  61201.3175     0.19440E+01 
  61233.5797     0.18759E+01 
  61265.8418     0.18094E+01 
  61298.1040     0.17443E+01 
  61330.3662     0.16808E+01 
  61362.6283     0.16187E+01 
  61394.8905     0.15582E+01 
  61427.1526     0.14992E+01 
  61459.4148     0.14416E+01 
  61491.6770     0.13857E+01 
  61523.9391     0.13312E+01 
  61556.2013     0.12783E+01 
  61588.4634     0.12269E+01 
  61620.7256     0.11771E+01 
  61652.9878     0.11288E+01 
  61685.2499     0.10821E+01 
  61717.5121     0.10369E+01 
  61749.7742     0.99338E+00 
  61782.0364     0.95140E+00 
  61814.2986     0.91102E+00 
  61846.5607     0.87224E+00 
  61878.8229     0.83508E+00 
  61911.0850     0.79953E+00 
  61943.3472     0.76562E+00 
  61975.6094     0.73334E+00 
  62007.8715     0.70272E+00 
  62040.1337     0.67376E+00 
  62072.3958     0.64648E+00 
  62104.6580     0.62088E+00 
  62136.9202     0.59698E+00 
  62169.1823     0.57479E+00 
  62201.4445     0.55432E+00 
  62233.7066     0.53558E+00 
  62265.9688     0.51860E+00 
  62298.2310     0.50337E+00 
  62330.4931     0.48993E+00 
  62362.7553     0.47827E+00 
  62395.0174     0.46842E+00 
  62427.2796     0.46040E+00 
  62459.5418     0.45421E+00 
  62491.8039     0.44988E+00 
  62524.0661     0.44742E+00 
  62556.3282     0.44685E+00 
  62588.5904     0.44819E+00 
  62620.8526     0.45145E+00 
  62653.1147     0.45666E+00 
  62685.3769     0.46383E+00 
  62717.6390     0.47299E+00 
  62749.9012     0.48415E+00 
  62782.1634     0.49733E+00 
  62814.4255     0.51257E+00 
  62846.6877     0.52987E+00 
  62878.9498     0.54926E+00 
  62911.2120     0.57077E+00 
  62943.4742     0.59442E+00 
  62975.7363     0.62023E+00 
  63007.9985     0.64823E+00 
  63040.2606     0.67845E+00 
  63072.5228     0.71090E+00 
  63104.7850     0.74563E+00 
  63137.0471     0.78264E+00 
  63169.3093     0.82199E+00 
  63201.5714     0.86368E+00 
  63233.8336     0.90775E+00 
  63266.0958     0.95424E+00 
  63298.3579     0.10032E+01 
  63330.6201     0.10546E+01 
  63362.8822     0.11085E+01 
  63395.1444     0.11649E+01 
  63427.4066     0.12240E+01 
  63459.6687     0.12856E+01 
  63491.9309     0.13499E+01 
  63524.1930     0.14168E+01 
  63556.4552     0.14865E+01 
  63588.7174     0.15589E+01 
  63620.9795     0.16342E+01 
  63653.2417     0.17122E+01 
  63685.5038     0.17932E+01 
  63717.7660     0.18770E+01 
  63750.0282     0.19638E+01 
  63782.2903     0.20536E+01 
  63814.5525     0.21465E+01 
  63846.8146     0.22424E+01 
  63879.0768     0.23415E+01 
  63911.3390     0.24438E+01 
  63943.6011     0.25493E+01 
  63975.8633     0.26581E+01 
  64008.1254     0.27702E+01 
  64040.3876     0.28857E+01 
  64072.6498     0.30046E+01 
  64104.9119     0.31270E+01 
  64137.1741     0.32530E+01 
  64169.4362     0.33825E+01 
  64201.6984     0.35157E+01 
  64233.9606     0.36526E+01 
  64266.2227     0.37933E+01 
  64298.4849     0.39379E+01 
  64330.7470     0.40863E+01 
  64363.0092     0.42386E+01 
  64395.2714     0.43950E+01 
  64427.5335     0.45555E+01 
  64459.7957     0.47201E+01 
  64492.0578     0.48890E+01 
  64524.3200     0.50621E+01 
  64556.5822     0.52396E+01 
  64588.8443     0.54215E+01 
  64621.1065     0.56079E+01 
  64653.3686     0.57989E+01 
  64685.6308     0.59945E+01 
  64717.8930     0.61949E+01 
  64750.1551     0.64001E+01 
  64782.4173     0.66101E+01 
  64814.6794     0.68252E+01 
  64846.9416     0.70453E+01 
  64879.2038     0.72705E+01 
  64911.4659     0.75010E+01 
  64943.7281     0.77367E+01 
  64975.9902     0.79779E+01 
  65008.2524     0.82246E+01 
  65040.5146     0.84769E+01 
  65072.7767     0.87348E+01 
  65105.0389     0.89985E+01 
  65137.3010     0.92681E+01 
  65169.5632     0.95437E+01 
  65201.8254     0.98254E+01 
  65234.0875     0.10113E+02 
  65266.3497     0.10407E+02 
  65298.6118     0.10708E+02 
  65330.8740     0.11015E+02 
  65363.1362     0.11329E+02 
  65395.3983     0.11649E+02 
  65427.6605     0.11976E+02 
  65459.9226     0.12311E+02 
  65492.1848     0.12652E+02 
  65524.4470     0.13000E+02 
  65556.7091     0.13356E+02 
  65588.9713     0.13720E+02 
  65621.2334     0.14090E+02 
  65653.4956     0.14469E+02 
  65685.7578     0.14855E+02 
  65718.0199     0.15250E+02 
  65750.2821     0.15652E+02 
  65782.5442     0.16063E+02 
  65814.8064     0.16482E+02 
  65847.0686     0.16910E+02 
  65879.3307     0.17347E+02 
  65911.5929     0.17792E+02 
  65943.8550     0.18246E+02 
  65976.1172     0.18709E+02 
  66008.3794     0.19182E+02 
  66040.6415     0.19664E+02 
  66072.9037     0.20156E+02 
  66105.1658     0.20658E+02 
  66137.4280     0.21169E+02 
  66169.6902     0.21691E+02 
  66201.9523     0.22223E+02 
  66234.2145     0.22765E+02 
  66266.4766     0.23318E+02 
  66298.7388     0.23882E+02 
  66331.0010     0.24456E+02 
  66363.2631     0.25042E+02 
  66395.5253     0.25640E+02 
  66427.7874     0.26249E+02 
  66460.0496     0.26869E+02 
  66492.3118     0.27502E+02 
  66524.5739     0.28147E+02 
  66556.8361     0.28804E+02 
  66589.0982     0.29473E+02 
  66621.3604     0.30156E+02 
  66653.6226     0.30851E+02 
  66685.8847     0.31560E+02 
  66718.1469     0.32282E+02 
  66750.4090     0.33017E+02 
  66782.6712     0.33767E+02 
  66814.9334     0.34530E+02 
  66847.1955     0.35308E+02 
  66879.4577     0.36100E+02 
  66911.7198     0.36907E+02 
  66943.9820     0.37729E+02 
  66976.2442     0.38567E+02 
  67008.5063     0.39420E+02 
  67040.7685     0.40288E+02 
  67073.0306     0.41173E+02 
  67105.2928     0.42074E+02 
  67137.5550     0.42991E+02 
  67169.8171     0.43925E+02 
  67202.0793     0.44877E+02 
  67234.3414     0.45845E+02 
  67266.6036     0.46831E+02 
  67298.8658     0.47835E+02 
  67331.1279     0.48857E+02 
  67363.3901     0.49898E+02 
  67395.6522     0.50957E+02 
  67427.9144     0.52035E+02 
  67460.1766     0.53133E+02 
  67492.4387     0.54250E+02 
  67524.7009     0.55387E+02 
  67556.9630     0.56544E+02 
  67589.2252     0.57722E+02 
  67621.4874     0.58921E+02 
  67653.7495     0.60140E+02 
  67686.0117     0.61382E+02 
  67718.2738     0.62645E+02 
  67750.5360     0.63930E+02 
  67782.7982     0.65237E+02 
  67815.0603     0.66567E+02 
  67847.3225     0.67921E+02 
  67879.5846     0.69298E+02 
  67911.8468     0.70698E+02 
  67944.1090     0.72123E+02 
  67976.3711     0.73572E+02 
  68008.6333     0.75046E+02 
  68040.8954     0.76546E+02 
  68073.1576     0.78071E+02 
  68105.4198     0.79621E+02 
  68137.6819     0.81199E+02 
  68169.9441     0.82802E+02 
  68202.2062     0.84433E+02 
  68234.4684     0.86092E+02 
  68266.7306     0.87778E+02 
  68298.9927     0.89492E+02 
  68331.2549     0.91235E+02 
  68363.5170     0.93008E+02 
  68395.7792     0.94809E+02 
  68428.0414     0.96640E+02 
  68460.3035     0.98502E+02 
  68492.5657     0.10039E+03 
  68524.8278     0.10232E+03 
  68557.0900     0.10427E+03 
  68589.3522     0.10626E+03 
  68621.6143     0.10828E+03 
  68653.8765     0.11033E+03 
  68686.1386     0.11241E+03 
  68718.4008     0.11453E+03 
  68750.6630     0.11669E+03 
  68782.9251     0.11887E+03 
  68815.1873     0.12110E+03 
  68847.4494     0.12335E+03 
  68879.7116     0.12565E+03 
  68911.9738     0.12798E+03 
  68944.2359     0.13034E+03 
  68976.4981     0.13275E+03 
  69008.7602     0.13519E+03 
  69041.0224     0.13767E+03 
  69073.2846     0.14019E+03 
  69105.5467     0.14274E+03 
  69137.8089     0.14534E+03 
  69170.0710     0.14798E+03 
  69202.3332     0.15066E+03 
  69234.5954     0.15338E+03 
  69266.8575     0.15614E+03 
  69299.1197     0.15894E+03 
  69331.3818     0.16179E+03 
  69363.6440     0.16467E+03 
  69395.9062     0.16761E+03 
  69428.1683     0.17058E+03 
  69460.4305     0.17360E+03 
  69492.6926     0.17667E+03 
  69524.9548     0.17978E+03 
  69557.2170     0.18294E+03 
  69589.4791     0.18614E+03 
  69621.7413     0.18940E+03 
  69654.0034     0.19270E+03 
  69686.2656     0.19604E+03 
  69718.5278     0.19944E+03 
  69750.7899     0.20289E+03 
  69783.0521     0.20638E+03 
  69815.3142     0.20993E+03 
  69847.5764     0.21353E+03 
  69879.8386     0.21717E+03 
  69912.1007     0.22088E+03 
  69944.3629     0.22463E+03 
  69976.6250     0.22844E+03 
  70008.8872     0.23230E+03 
  70041.1494     0.23621E+03 
  70073.4115     0.24018E+03 
  70105.6737     0.24420E+03 
  70137.9358     0.24828E+03 
  70170.1980     0.25242E+03 
  70202.4602     0.25661E+03 
  70234.7223     0.26087E+03 
  70266.9845     0.26518E+03 
  70299.2466     0.26954E+03 
  70331.5088     0.27397E+03 
  70363.7710     0.27846E+03 
  70396.0331     0.28301E+03 
  70428.2953     0.28761E+03 
  70460.5574     0.29228E+03 
  70492.8196     0.29702E+03 
  70525.0818     0.30181E+03 
  70557.3439     0.30667E+03 
  70589.6061     0.31159E+03 
  70621.8682     0.31658E+03 
  70654.1304     0.32163E+03 
  70686.3926     0.32674E+03 
  70718.6547     0.33192E+03 
  70750.9169     0.33717E+03 
  70783.1790     0.34249E+03 
  70815.4412     0.34787E+03 
  70847.7034     0.35332E+03 
  70879.9655     0.35884E+03 
  70912.2277     0.36443E+03 
  70944.4898     0.37009E+03 
  70976.7520     0.37582E+03 
  71009.0142     0.38162E+03 
  71041.2763     0.38749E+03 
  71073.5385     0.39344E+03 
  71105.8006     0.39945E+03 
  71138.0628     0.40554E+03 
  71170.3250     0.41171E+03 
  71202.5871     0.41794E+03 
  71234.8493     0.42426E+03 
  71267.1114     0.43064E+03 
  71299.3736     0.43711E+03 
  71331.6358     0.44365E+03 
  71363.8979     0.45026E+03 
  71396.1601     0.45696E+03 
  71428.4222     0.46373E+03 
  71460.6844     0.47058E+03 
  71492.9466     0.47751E+03 
  71525.2087     0.48452E+03 
  71557.4709     0.49160E+03 
  71589.7330     0.49877E+03 
  71621.9952     0.50602E+03 
  71654.2574     0.51335E+03 
  71686.5195     0.52076E+03 
  71718.7817     0.52826E+03 
  71751.0438     0.53584E+03 
  71783.3060     0.54350E+03 
  71815.5682     0.55124E+03 
  71847.8303     0.55907E+03 
  71880.0925     0.56698E+03 
  71912.3546     0.57498E+03 
  71944.6168     0.58306E+03 
  71976.8790     0.59123E+03 
  72009.1411     0.59949E+03 
  72041.4033     0.60783E+03 
  72073.6654     0.61626E+03 
  72105.9276     0.62478E+03 
  72138.1898     0.63338E+03 
  72170.4519     0.64208E+03 
  72202.7141     0.65086E+03 
  72234.9762     0.65973E+03 
  72267.2384     0.66869E+03 
  72299.5006     0.67774E+03 
  72331.7627     0.68689E+03 
  72364.0249     0.69612E+03 
  72396.2870     0.70544E+03 
  72428.5492     0.71485E+03 
  72460.8114     0.72436E+03 
  72493.0735     0.73396E+03 
  72525.3357     0.74365E+03 
  72557.5978     0.75343E+03 
  72589.8600     0.76330E+03 
