  32262.1600     0.13150E+02 
  32294.4222     0.13326E+02 
  32326.6843     0.13505E+02 
  32358.9465     0.13685E+02 
  32391.2086     0.13867E+02 
  32423.4708     0.14050E+02 
  32455.7330     0.14235E+02 
  32487.9951     0.14422E+02 
  32520.2573     0.14611E+02 
  32552.5194     0.14801E+02 
  32584.7816     0.14993E+02 
  32617.0438     0.15187E+02 
  32649.3059     0.15382E+02 
  32681.5681     0.15579E+02 
  32713.8302     0.15778E+02 
  32746.0924     0.15979E+02 
  32778.3546     0.16181E+02 
  32810.6167     0.16385E+02 
  32842.8789     0.16591E+02 
  32875.1410     0.16798E+02 
  32907.4032     0.17007E+02 
  32939.6654     0.17218E+02 
  32971.9275     0.17431E+02 
  33004.1897     0.17645E+02 
  33036.4518     0.17861E+02 
  33068.7140     0.18079E+02 
  33100.9762     0.18299E+02 
  33133.2383     0.18520E+02 
  33165.5005     0.18743E+02 
  33197.7626     0.18968E+02 
  33230.0248     0.19194E+02 
  33262.2870     0.19422E+02 
  33294.5491     0.19652E+02 
  33326.8113     0.19884E+02 
  33359.0734     0.20117E+02 
  33391.3356     0.20352E+02 
  33423.5978     0.20588E+02 
  33455.8599     0.20827E+02 
  33488.1221     0.21067E+02 
  33520.3842     0.21309E+02 
  33552.6464     0.21552E+02 
  33584.9086     0.21797E+02 
  33617.1707     0.22044E+02 
  33649.4329     0.22292E+02 
  33681.6950     0.22543E+02 
  33713.9572     0.22794E+02 
  33746.2194     0.23048E+02 
  33778.4815     0.23303E+02 
  33810.7437     0.23560E+02 
  33843.0058     0.23818E+02 
  33875.2680     0.24078E+02 
  33907.5302     0.24339E+02 
  33939.7923     0.24603E+02 
  33972.0545     0.24867E+02 
  34004.3166     0.25134E+02 
  34036.5788     0.25402E+02 
  34068.8410     0.25671E+02 
  34101.1031     0.25942E+02 
  34133.3653     0.26215E+02 
  34165.6274     0.26489E+02 
  34197.8896     0.26765E+02 
  34230.1518     0.27042E+02 
  34262.4139     0.27321E+02 
  34294.6761     0.27602E+02 
  34326.9382     0.27883E+02 
  34359.2004     0.28167E+02 
  34391.4626     0.28451E+02 
  34423.7247     0.28738E+02 
  34455.9869     0.29025E+02 
  34488.2490     0.29314E+02 
  34520.5112     0.29605E+02 
  34552.7734     0.29897E+02 
  34585.0355     0.30190E+02 
  34617.2977     0.30485E+02 
  34649.5598     0.30781E+02 
  34681.8220     0.31079E+02 
  34714.0842     0.31377E+02 
  34746.3463     0.31677E+02 
  34778.6085     0.31979E+02 
  34810.8706     0.32281E+02 
  34843.1328     0.32585E+02 
  34875.3950     0.32891E+02 
  34907.6571     0.33197E+02 
  34939.9193     0.33505E+02 
  34972.1814     0.33814E+02 
  35004.4436     0.34124E+02 
  35036.7058     0.34435E+02 
  35068.9679     0.34748E+02 
  35101.2301     0.35061E+02 
  35133.4922     0.35376E+02 
  35165.7544     0.35692E+02 
  35198.0166     0.36009E+02 
  35230.2787     0.36327E+02 
  35262.5409     0.36646E+02 
  35294.8030     0.36966E+02 
  35327.0652     0.37287E+02 
  35359.3274     0.37609E+02 
  35391.5895     0.37932E+02 
  35423.8517     0.38256E+02 
  35456.1138     0.38581E+02 
  35488.3760     0.38907E+02 
  35520.6382     0.39233E+02 
  35552.9003     0.39561E+02 
  35585.1625     0.39889E+02 
  35617.4246     0.40219E+02 
  35649.6868     0.40549E+02 
  35681.9490     0.40879E+02 
  35714.2111     0.41211E+02 
  35746.4733     0.41543E+02 
  35778.7354     0.41876E+02 
  35810.9976     0.42210E+02 
  35843.2598     0.42544E+02 
  35875.5219     0.42879E+02 
  35907.7841     0.43215E+02 
  35940.0462     0.43551E+02 
  35972.3084     0.43888E+02 
  36004.5706     0.44225E+02 
  36036.8327     0.44563E+02 
  36069.0949     0.44902E+02 
  36101.3570     0.45241E+02 
  36133.6192     0.45580E+02 
  36165.8814     0.45919E+02 
  36198.1435     0.46260E+02 
  36230.4057     0.46600E+02 
  36262.6678     0.46941E+02 
  36294.9300     0.47282E+02 
  36327.1922     0.47623E+02 
  36359.4543     0.47965E+02 
  36391.7165     0.48307E+02 
  36423.9786     0.48649E+02 
  36456.2408     0.48992E+02 
  36488.5030     0.49334E+02 
  36520.7651     0.49677E+02 
  36553.0273     0.50019E+02 
  36585.2894     0.50362E+02 
  36617.5516     0.50705E+02 
  36649.8138     0.51048E+02 
  36682.0759     0.51391E+02 
  36714.3381     0.51734E+02 
  36746.6002     0.52077E+02 
  36778.8624     0.52419E+02 
  36811.1246     0.52762E+02 
  36843.3867     0.53104E+02 
  36875.6489     0.53447E+02 
  36907.9110     0.53789E+02 
  36940.1732     0.54131E+02 
  36972.4354     0.54472E+02 
  37004.6975     0.54814E+02 
  37036.9597     0.55155E+02 
  37069.2218     0.55496E+02 
  37101.4840     0.55836E+02 
  37133.7462     0.56176E+02 
  37166.0083     0.56516E+02 
  37198.2705     0.56855E+02 
  37230.5326     0.57193E+02 
  37262.7948     0.57531E+02 
  37295.0570     0.57869E+02 
  37327.3191     0.58206E+02 
  37359.5813     0.58543E+02 
  37391.8434     0.58878E+02 
  37424.1056     0.59214E+02 
  37456.3678     0.59548E+02 
  37488.6299     0.59882E+02 
  37520.8921     0.60215E+02 
  37553.1542     0.60547E+02 
  37585.4164     0.60879E+02 
  37617.6786     0.61209E+02 
  37649.9407     0.61539E+02 
  37682.2029     0.61868E+02 
  37714.4650     0.62196E+02 
  37746.7272     0.62523E+02 
  37778.9894     0.62850E+02 
  37811.2515     0.63175E+02 
  37843.5137     0.63499E+02 
  37875.7758     0.63822E+02 
  37908.0380     0.64144E+02 
  37940.3002     0.64465E+02 
  37972.5623     0.64785E+02 
  38004.8245     0.65104E+02 
  38037.0866     0.65421E+02 
  38069.3488     0.65737E+02 
  38101.6110     0.66052E+02 
  38133.8731     0.66366E+02 
  38166.1353     0.66679E+02 
  38198.3974     0.66990E+02 
  38230.6596     0.67300E+02 
  38262.9218     0.67608E+02 
  38295.1839     0.67915E+02 
  38327.4461     0.68221E+02 
  38359.7082     0.68525E+02 
  38391.9704     0.68827E+02 
  38424.2326     0.69129E+02 
  38456.4947     0.69428E+02 
  38488.7569     0.69726E+02 
  38521.0190     0.70023E+02 
  38553.2812     0.70318E+02 
  38585.5434     0.70611E+02 
  38617.8055     0.70902E+02 
  38650.0677     0.71192E+02 
  38682.3298     0.71480E+02 
  38714.5920     0.71767E+02 
  38746.8542     0.72051E+02 
  38779.1163     0.72334E+02 
  38811.3785     0.72615E+02 
  38843.6406     0.72895E+02 
  38875.9028     0.73172E+02 
  38908.1650     0.73447E+02 
  38940.4271     0.73721E+02 
  38972.6893     0.73993E+02 
  39004.9514     0.74262E+02 
  39037.2136     0.74530E+02 
  39069.4758     0.74796E+02 
  39101.7379     0.75060E+02 
  39134.0001     0.75321E+02 
  39166.2622     0.75581E+02 
  39198.5244     0.75838E+02 
  39230.7866     0.76094E+02 
  39263.0487     0.76347E+02 
  39295.3109     0.76598E+02 
  39327.5730     0.76847E+02 
  39359.8352     0.77094E+02 
  39392.0974     0.77338E+02 
  39424.3595     0.77580E+02 
  39456.6217     0.77821E+02 
  39488.8838     0.78058E+02 
  39521.1460     0.78294E+02 
  39553.4082     0.78527E+02 
  39585.6703     0.78758E+02 
  39617.9325     0.78986E+02 
  39650.1946     0.79212E+02 
  39682.4568     0.79436E+02 
  39714.7190     0.79657E+02 
  39746.9811     0.79876E+02 
  39779.2433     0.80093E+02 
  39811.5054     0.80307E+02 
  39843.7676     0.80518E+02 
  39876.0298     0.80727E+02 
  39908.2919     0.80934E+02 
  39940.5541     0.81138E+02 
  39972.8162     0.81339E+02 
  40005.0784     0.81538E+02 
  40037.3406     0.81735E+02 
  40069.6027     0.81928E+02 
  40101.8649     0.82119E+02 
  40134.1270     0.82308E+02 
  40166.3892     0.82494E+02 
  40198.6514     0.82677E+02 
  40230.9135     0.82858E+02 
  40263.1757     0.83036E+02 
  40295.4378     0.83211E+02 
  40327.7000     0.83384E+02 
  40359.9622     0.83554E+02 
  40392.2243     0.83721E+02 
  40424.4865     0.83885E+02 
  40456.7486     0.84047E+02 
  40489.0108     0.84206E+02 
  40521.2730     0.84362E+02 
  40553.5351     0.84516E+02 
  40585.7973     0.84666E+02 
  40618.0594     0.84814E+02 
  40650.3216     0.84959E+02 
  40682.5838     0.85102E+02 
  40714.8459     0.85241E+02 
  40747.1081     0.85378E+02 
  40779.3702     0.85512E+02 
  40811.6324     0.85643E+02 
  40843.8946     0.85771E+02 
  40876.1567     0.85896E+02 
  40908.4189     0.86019E+02 
  40940.6810     0.86138E+02 
  40972.9432     0.86255E+02 
  41005.2054     0.86369E+02 
  41037.4675     0.86480E+02 
  41069.7297     0.86588E+02 
  41101.9918     0.86693E+02 
  41134.2540     0.86795E+02 
  41166.5162     0.86894E+02 
  41198.7783     0.86991E+02 
  41231.0405     0.87084E+02 
  41263.3026     0.87175E+02 
  41295.5648     0.87263E+02 
  41327.8270     0.87347E+02 
  41360.0891     0.87429E+02 
  41392.3513     0.87508E+02 
  41424.6134     0.87584E+02 
  41456.8756     0.87657E+02 
  41489.1378     0.87727E+02 
  41521.3999     0.87795E+02 
  41553.6621     0.87859E+02 
  41585.9242     0.87920E+02 
  41618.1864     0.87979E+02 
  41650.4486     0.88034E+02 
  41682.7107     0.88087E+02 
  41714.9729     0.88136E+02 
  41747.2350     0.88183E+02 
  41779.4972     0.88227E+02 
  41811.7594     0.88268E+02 
  41844.0215     0.88305E+02 
  41876.2837     0.88340E+02 
  41908.5458     0.88373E+02 
  41940.8080     0.88402E+02 
  41973.0702     0.88428E+02 
  42005.3323     0.88451E+02 
  42037.5945     0.88472E+02 
  42069.8566     0.88489E+02 
  42102.1188     0.88504E+02 
  42134.3810     0.88516E+02 
  42166.6431     0.88524E+02 
  42198.9053     0.88530E+02 
  42231.1674     0.88534E+02 
  42263.4296     0.88534E+02 
  42295.6918     0.88531E+02 
  42327.9539     0.88526E+02 
  42360.2161     0.88517E+02 
  42392.4782     0.88506E+02 
  42424.7404     0.88492E+02 
  42457.0026     0.88475E+02 
  42489.2647     0.88456E+02 
  42521.5269     0.88433E+02 
  42553.7890     0.88408E+02 
  42586.0512     0.88380E+02 
  42618.3134     0.88349E+02 
  42650.5755     0.88315E+02 
  42682.8377     0.88279E+02 
  42715.0998     0.88239E+02 
  42747.3620     0.88197E+02 
  42779.6242     0.88153E+02 
  42811.8863     0.88105E+02 
  42844.1485     0.88055E+02 
  42876.4106     0.88002E+02 
  42908.6728     0.87946E+02 
  42940.9350     0.87888E+02 
  42973.1971     0.87827E+02 
  43005.4593     0.87763E+02 
  43037.7214     0.87697E+02 
  43069.9836     0.87628E+02 
  43102.2458     0.87557E+02 
  43134.5079     0.87482E+02 
  43166.7701     0.87405E+02 
  43199.0322     0.87326E+02 
  43231.2944     0.87244E+02 
  43263.5566     0.87159E+02 
  43295.8187     0.87072E+02 
  43328.0809     0.86983E+02 
  43360.3430     0.86890E+02 
  43392.6052     0.86796E+02 
  43424.8674     0.86698E+02 
  43457.1295     0.86599E+02 
  43489.3917     0.86496E+02 
  43521.6538     0.86392E+02 
  43553.9160     0.86284E+02 
  43586.1782     0.86175E+02 
  43618.4403     0.86063E+02 
  43650.7025     0.85948E+02 
  43682.9646     0.85832E+02 
  43715.2268     0.85712E+02 
  43747.4890     0.85591E+02 
  43779.7511     0.85467E+02 
  43812.0133     0.85341E+02 
  43844.2754     0.85212E+02 
  43876.5376     0.85082E+02 
  43908.7998     0.84948E+02 
  43941.0619     0.84813E+02 
  43973.3241     0.84675E+02 
  44005.5862     0.84536E+02 
  44037.8484     0.84394E+02 
  44070.1106     0.84249E+02 
  44102.3727     0.84103E+02 
  44134.6349     0.83954E+02 
  44166.8970     0.83804E+02 
  44199.1592     0.83651E+02 
  44231.4214     0.83496E+02 
  44263.6835     0.83339E+02 
  44295.9457     0.83180E+02 
  44328.2078     0.83019E+02 
  44360.4700     0.82855E+02 
  44392.7322     0.82690E+02 
  44424.9943     0.82523E+02 
  44457.2565     0.82354E+02 
  44489.5186     0.82182E+02 
  44521.7808     0.82009E+02 
  44554.0430     0.81834E+02 
  44586.3051     0.81657E+02 
  44618.5673     0.81478E+02 
  44650.8294     0.81298E+02 
  44683.0916     0.81115E+02 
  44715.3538     0.80931E+02 
  44747.6159     0.80744E+02 
  44779.8781     0.80556E+02 
  44812.1402     0.80367E+02 
  44844.4024     0.80175E+02 
  44876.6646     0.79982E+02 
  44908.9267     0.79787E+02 
  44941.1889     0.79590E+02 
  44973.4510     0.79392E+02 
  45005.7132     0.79191E+02 
  45037.9754     0.78990E+02 
  45070.2375     0.78786E+02 
  45102.4997     0.78581E+02 
  45134.7618     0.78375E+02 
  45167.0240     0.78167E+02 
  45199.2862     0.77957E+02 
  45231.5483     0.77746E+02 
  45263.8105     0.77533E+02 
  45296.0726     0.77319E+02 
  45328.3348     0.77103E+02 
  45360.5970     0.76886E+02 
  45392.8591     0.76668E+02 
  45425.1213     0.76448E+02 
  45457.3834     0.76226E+02 
  45489.6456     0.76004E+02 
  45521.9078     0.75780E+02 
  45554.1699     0.75554E+02 
  45586.4321     0.75328E+02 
  45618.6942     0.75100E+02 
  45650.9564     0.74870E+02 
  45683.2186     0.74640E+02 
  45715.4807     0.74408E+02 
  45747.7429     0.74175E+02 
  45780.0050     0.73941E+02 
  45812.2672     0.73706E+02 
  45844.5294     0.73469E+02 
  45876.7915     0.73231E+02 
  45909.0537     0.72993E+02 
  45941.3158     0.72753E+02 
  45973.5780     0.72512E+02 
  46005.8402     0.72270E+02 
  46038.1023     0.72027E+02 
  46070.3645     0.71783E+02 
  46102.6266     0.71538E+02 
  46134.8888     0.71292E+02 
  46167.1510     0.71045E+02 
  46199.4131     0.70797E+02 
  46231.6753     0.70548E+02 
  46263.9374     0.70299E+02 
  46296.1996     0.70048E+02 
  46328.4618     0.69796E+02 
  46360.7239     0.69544E+02 
  46392.9861     0.69291E+02 
  46425.2482     0.69037E+02 
  46457.5104     0.68782E+02 
  46489.7726     0.68527E+02 
  46522.0347     0.68271E+02 
  46554.2969     0.68014E+02 
  46586.5590     0.67756E+02 
  46618.8212     0.67497E+02 
  46651.0834     0.67238E+02 
  46683.3455     0.66979E+02 
  46715.6077     0.66718E+02 
  46747.8698     0.66457E+02 
  46780.1320     0.66196E+02 
  46812.3942     0.65933E+02 
  46844.6563     0.65671E+02 
  46876.9185     0.65407E+02 
  46909.1806     0.65143E+02 
  46941.4428     0.64879E+02 
  46973.7050     0.64614E+02 
  47005.9671     0.64349E+02 
  47038.2293     0.64083E+02 
  47070.4914     0.63817E+02 
  47102.7536     0.63550E+02 
  47135.0158     0.63283E+02 
  47167.2779     0.63015E+02 
  47199.5401     0.62748E+02 
  47231.8022     0.62479E+02 
  47264.0644     0.62211E+02 
  47296.3266     0.61942E+02 
  47328.5887     0.61673E+02 
  47360.8509     0.61403E+02 
  47393.1130     0.61133E+02 
  47425.3752     0.60863E+02 
  47457.6374     0.60593E+02 
  47489.8995     0.60323E+02 
  47522.1617     0.60052E+02 
  47554.4238     0.59781E+02 
  47586.6860     0.59510E+02 
  47618.9482     0.59239E+02 
  47651.2103     0.58967E+02 
  47683.4725     0.58696E+02 
  47715.7346     0.58424E+02 
  47747.9968     0.58153E+02 
  47780.2590     0.57881E+02 
  47812.5211     0.57609E+02 
  47844.7833     0.57337E+02 
  47877.0454     0.57065E+02 
  47909.3076     0.56793E+02 
  47941.5698     0.56521E+02 
  47973.8319     0.56249E+02 
  48006.0941     0.55977E+02 
  48038.3562     0.55705E+02 
  48070.6184     0.55433E+02 
  48102.8806     0.55161E+02 
  48135.1427     0.54889E+02 
  48167.4049     0.54618E+02 
  48199.6670     0.54346E+02 
  48231.9292     0.54075E+02 
  48264.1914     0.53803E+02 
  48296.4535     0.53532E+02 
  48328.7157     0.53261E+02 
  48360.9778     0.52990E+02 
  48393.2400     0.52719E+02 
  48425.5022     0.52449E+02 
  48457.7643     0.52179E+02 
  48490.0265     0.51909E+02 
  48522.2886     0.51639E+02 
  48554.5508     0.51369E+02 
  48586.8130     0.51100E+02 
  48619.0751     0.50831E+02 
  48651.3373     0.50562E+02 
  48683.5994     0.50294E+02 
  48715.8616     0.50025E+02 
  48748.1238     0.49758E+02 
  48780.3859     0.49490E+02 
  48812.6481     0.49223E+02 
  48844.9102     0.48956E+02 
  48877.1724     0.48690E+02 
  48909.4346     0.48424E+02 
  48941.6967     0.48158E+02 
  48973.9589     0.47893E+02 
  49006.2210     0.47628E+02 
  49038.4832     0.47363E+02 
  49070.7454     0.47099E+02 
  49103.0075     0.46836E+02 
  49135.2697     0.46573E+02 
  49167.5318     0.46310E+02 
  49199.7940     0.46048E+02 
  49232.0562     0.45786E+02 
  49264.3183     0.45525E+02 
  49296.5805     0.45264E+02 
  49328.8426     0.45004E+02 
  49361.1048     0.44744E+02 
  49393.3670     0.44485E+02 
  49425.6291     0.44226E+02 
  49457.8913     0.43968E+02 
  49490.1534     0.43711E+02 
  49522.4156     0.43454E+02 
  49554.6778     0.43197E+02 
  49586.9399     0.42941E+02 
  49619.2021     0.42686E+02 
  49651.4642     0.42432E+02 
  49683.7264     0.42178E+02 
  49715.9886     0.41924E+02 
  49748.2507     0.41671E+02 
  49780.5129     0.41419E+02 
  49812.7750     0.41168E+02 
  49845.0372     0.40917E+02 
  49877.2994     0.40667E+02 
  49909.5615     0.40417E+02 
  49941.8237     0.40168E+02 
  49974.0858     0.39920E+02 
  50006.3480     0.39673E+02 
  50038.6102     0.39426E+02 
  50070.8723     0.39180E+02 
  50103.1345     0.38934E+02 
  50135.3966     0.38689E+02 
  50167.6588     0.38445E+02 
  50199.9210     0.38202E+02 
  50232.1831     0.37960E+02 
  50264.4453     0.37718E+02 
  50296.7074     0.37477E+02 
  50328.9696     0.37236E+02 
  50361.2318     0.36997E+02 
  50393.4939     0.36758E+02 
  50425.7561     0.36520E+02 
  50458.0182     0.36283E+02 
  50490.2804     0.36046E+02 
  50522.5426     0.35810E+02 
  50554.8047     0.35575E+02 
  50587.0669     0.35341E+02 
  50619.3290     0.35108E+02 
  50651.5912     0.34875E+02 
  50683.8534     0.34644E+02 
  50716.1155     0.34413E+02 
  50748.3777     0.34183E+02 
  50780.6398     0.33953E+02 
  50812.9020     0.33725E+02 
  50845.1642     0.33497E+02 
  50877.4263     0.33270E+02 
  50909.6885     0.33044E+02 
  50941.9506     0.32819E+02 
  50974.2128     0.32595E+02 
  51006.4750     0.32371E+02 
  51038.7371     0.32149E+02 
  51070.9993     0.31927E+02 
  51103.2614     0.31706E+02 
  51135.5236     0.31486E+02 
  51167.7858     0.31267E+02 
  51200.0479     0.31049E+02 
  51232.3101     0.30831E+02 
  51264.5722     0.30615E+02 
  51296.8344     0.30399E+02 
  51329.0966     0.30184E+02 
  51361.3587     0.29970E+02 
  51393.6209     0.29757E+02 
  51425.8830     0.29545E+02 
  51458.1452     0.29334E+02 
  51490.4074     0.29123E+02 
  51522.6695     0.28914E+02 
  51554.9317     0.28705E+02 
  51587.1938     0.28497E+02 
  51619.4560     0.28291E+02 
  51651.7182     0.28085E+02 
  51683.9803     0.27880E+02 
  51716.2425     0.27676E+02 
  51748.5046     0.27473E+02 
  51780.7668     0.27270E+02 
  51813.0290     0.27069E+02 
  51845.2911     0.26868E+02 
  51877.5533     0.26669E+02 
  51909.8154     0.26470E+02 
  51942.0776     0.26273E+02 
  51974.3398     0.26076E+02 
  52006.6019     0.25880E+02 
  52038.8641     0.25685E+02 
  52071.1262     0.25491E+02 
  52103.3884     0.25298E+02 
  52135.6506     0.25106E+02 
  52167.9127     0.24914E+02 
  52200.1749     0.24724E+02 
  52232.4370     0.24534E+02 
  52264.6992     0.24346E+02 
  52296.9614     0.24158E+02 
  52329.2235     0.23972E+02 
  52361.4857     0.23786E+02 
  52393.7478     0.23601E+02 
  52426.0100     0.23417E+02 
  52458.2722     0.23234E+02 
  52490.5343     0.23052E+02 
  52522.7965     0.22871E+02 
  52555.0586     0.22691E+02 
  52587.3208     0.22511E+02 
  52619.5830     0.22333E+02 
  52651.8451     0.22156E+02 
  52684.1073     0.21979E+02 
  52716.3694     0.21803E+02 
  52748.6316     0.21629E+02 
  52780.8938     0.21455E+02 
  52813.1559     0.21282E+02 
  52845.4181     0.21110E+02 
  52877.6802     0.20939E+02 
  52909.9424     0.20769E+02 
  52942.2046     0.20600E+02 
  52974.4667     0.20432E+02 
  53006.7289     0.20264E+02 
  53038.9910     0.20098E+02 
  53071.2532     0.19932E+02 
  53103.5154     0.19768E+02 
  53135.7775     0.19604E+02 
  53168.0397     0.19441E+02 
  53200.3018     0.19279E+02 
  53232.5640     0.19118E+02 
  53264.8262     0.18958E+02 
  53297.0883     0.18799E+02 
  53329.3505     0.18641E+02 
  53361.6126     0.18483E+02 
  53393.8748     0.18327E+02 
  53426.1370     0.18171E+02 
  53458.3991     0.18016E+02 
  53490.6613     0.17863E+02 
  53522.9234     0.17710E+02 
  53555.1856     0.17558E+02 
  53587.4478     0.17407E+02 
  53619.7099     0.17256E+02 
  53651.9721     0.17107E+02 
  53684.2342     0.16958E+02 
  53716.4964     0.16811E+02 
  53748.7586     0.16664E+02 
  53781.0207     0.16518E+02 
  53813.2829     0.16373E+02 
  53845.5450     0.16229E+02 
  53877.8072     0.16086E+02 
  53910.0694     0.15944E+02 
  53942.3315     0.15802E+02 
  53974.5937     0.15661E+02 
  54006.8558     0.15522E+02 
  54039.1180     0.15383E+02 
  54071.3802     0.15245E+02 
  54103.6423     0.15107E+02 
  54135.9045     0.14971E+02 
  54168.1666     0.14836E+02 
  54200.4288     0.14701E+02 
  54232.6910     0.14567E+02 
  54264.9531     0.14434E+02 
  54297.2153     0.14302E+02 
  54329.4774     0.14171E+02 
  54361.7396     0.14040E+02 
  54394.0018     0.13910E+02 
  54426.2639     0.13782E+02 
  54458.5261     0.13654E+02 
  54490.7882     0.13526E+02 
  54523.0504     0.13400E+02 
  54555.3126     0.13274E+02 
  54587.5747     0.13150E+02 
  54619.8369     0.13026E+02 
  54652.0990     0.12903E+02 
  54684.3612     0.12780E+02 
  54716.6234     0.12659E+02 
  54748.8855     0.12538E+02 
  54781.1477     0.12418E+02 
  54813.4098     0.12299E+02 
  54845.6720     0.12181E+02 
  54877.9342     0.12063E+02 
  54910.1963     0.11946E+02 
  54942.4585     0.11831E+02 
  54974.7206     0.11715E+02 
  55006.9828     0.11601E+02 
  55039.2450     0.11487E+02 
  55071.5071     0.11374E+02 
  55103.7693     0.11262E+02 
  55136.0314     0.11151E+02 
  55168.2936     0.11040E+02 
  55200.5558     0.10931E+02 
  55232.8179     0.10821E+02 
  55265.0801     0.10713E+02 
  55297.3422     0.10606E+02 
  55329.6044     0.10499E+02 
  55361.8666     0.10393E+02 
  55394.1287     0.10287E+02 
  55426.3909     0.10183E+02 
  55458.6530     0.10079E+02 
  55490.9152     0.99757E+01 
  55523.1774     0.98732E+01 
  55555.4395     0.97715E+01 
  55587.7017     0.96705E+01 
  55619.9638     0.95703E+01 
  55652.2260     0.94707E+01 
  55684.4882     0.93719E+01 
  55716.7503     0.92737E+01 
  55749.0125     0.91763E+01 
  55781.2746     0.90796E+01 
  55813.5368     0.89836E+01 
  55845.7990     0.88882E+01 
  55878.0611     0.87936E+01 
  55910.3233     0.86996E+01 
  55942.5854     0.86063E+01 
  55974.8476     0.85137E+01 
  56007.1098     0.84218E+01 
  56039.3719     0.83306E+01 
  56071.6341     0.82400E+01 
  56103.8962     0.81501E+01 
  56136.1584     0.80608E+01 
  56168.4206     0.79723E+01 
  56200.6827     0.78843E+01 
  56232.9449     0.77971E+01 
  56265.2070     0.77105E+01 
  56297.4692     0.76245E+01 
  56329.7314     0.75392E+01 
  56361.9935     0.74545E+01 
  56394.2557     0.73705E+01 
  56426.5178     0.72871E+01 
  56458.7800     0.72043E+01 
  56491.0422     0.71222E+01 
  56523.3043     0.70407E+01 
  56555.5665     0.69598E+01 
  56587.8286     0.68795E+01 
  56620.0908     0.67998E+01 
  56652.3530     0.67208E+01 
  56684.6151     0.66424E+01 
  56716.8773     0.65645E+01 
  56749.1394     0.64873E+01 
  56781.4016     0.64107E+01 
  56813.6638     0.63347E+01 
  56845.9259     0.62593E+01 
  56878.1881     0.61844E+01 
  56910.4502     0.61102E+01 
  56942.7124     0.60365E+01 
  56974.9746     0.59635E+01 
  57007.2367     0.58910E+01 
  57039.4989     0.58190E+01 
  57071.7610     0.57477E+01 
  57104.0232     0.56769E+01 
  57136.2854     0.56067E+01 
  57168.5475     0.55371E+01 
  57200.8097     0.54680E+01 
  57233.0718     0.53995E+01 
  57265.3340     0.53315E+01 
  57297.5962     0.52641E+01 
  57329.8583     0.51972E+01 
  57362.1205     0.51309E+01 
  57394.3826     0.50651E+01 
  57426.6448     0.49998E+01 
  57458.9070     0.49351E+01 
  57491.1691     0.48710E+01 
  57523.4313     0.48073E+01 
  57555.6934     0.47442E+01 
  57587.9556     0.46816E+01 
  57620.2178     0.46196E+01 
  57652.4799     0.45580E+01 
  57684.7421     0.44970E+01 
  57717.0042     0.44365E+01 
  57749.2664     0.43765E+01 
  57781.5286     0.43170E+01 
  57813.7907     0.42580E+01 
  57846.0529     0.41995E+01 
  57878.3150     0.41416E+01 
  57910.5772     0.40841E+01 
  57942.8394     0.40271E+01 
  57975.1015     0.39706E+01 
  58007.3637     0.39146E+01 
  58039.6258     0.38591E+01 
  58071.8880     0.38040E+01 
  58104.1502     0.37495E+01 
  58136.4123     0.36954E+01 
  58168.6745     0.36418E+01 
  58200.9366     0.35887E+01 
  58233.1988     0.35361E+01 
  58265.4610     0.34839E+01 
  58297.7231     0.34322E+01 
  58329.9853     0.33809E+01 
  58362.2474     0.33302E+01 
  58394.5096     0.32798E+01 
  58426.7718     0.32300E+01 
  58459.0339     0.31806E+01 
  58491.2961     0.31316E+01 
  58523.5582     0.30831E+01 
  58555.8204     0.30350E+01 
  58588.0826     0.29874E+01 
  58620.3447     0.29402E+01 
  58652.6069     0.28935E+01 
  58684.8690     0.28472E+01 
  58717.1312     0.28014E+01 
  58749.3934     0.27559E+01 
  58781.6555     0.27109E+01 
  58813.9177     0.26664E+01 
  58846.1798     0.26223E+01 
  58878.4420     0.25786E+01 
  58910.7042     0.25353E+01 
  58942.9663     0.24924E+01 
  58975.2285     0.24500E+01 
  59007.4906     0.24079E+01 
  59039.7528     0.23663E+01 
  59072.0150     0.23251E+01 
  59104.2771     0.22844E+01 
  59136.5393     0.22440E+01 
  59168.8014     0.22040E+01 
  59201.0636     0.21645E+01 
  59233.3258     0.21253E+01 
  59265.5879     0.20866E+01 
  59297.8501     0.20482E+01 
  59330.1122     0.20103E+01 
  59362.3744     0.19727E+01 
  59394.6366     0.19356E+01 
  59426.8987     0.18988E+01 
  59459.1609     0.18625E+01 
  59491.4230     0.18265E+01 
  59523.6852     0.17909E+01 
  59555.9474     0.17557E+01 
  59588.2095     0.17209E+01 
  59620.4717     0.16865E+01 
  59652.7338     0.16524E+01 
  59684.9960     0.16187E+01 
  59717.2582     0.15855E+01 
  59749.5203     0.15526E+01 
  59781.7825     0.15200E+01 
  59814.0446     0.14879E+01 
  59846.3068     0.14561E+01 
  59878.5690     0.14247E+01 
  59910.8311     0.13937E+01 
  59943.0933     0.13631E+01 
  59975.3554     0.13328E+01 
  60007.6176     0.13029E+01 
  60039.8798     0.12733E+01 
  60072.1419     0.12441E+01 
  60104.4041     0.12153E+01 
  60136.6662     0.11869E+01 
  60168.9284     0.11588E+01 
  60201.1906     0.11311E+01 
  60233.4527     0.11038E+01 
  60265.7149     0.10768E+01 
  60297.9770     0.10502E+01 
  60330.2392     0.10239E+01 
  60362.5014     0.99798E+00 
  60394.7635     0.97244E+00 
  60427.0257     0.94726E+00 
  60459.2878     0.92243E+00 
  60491.5500     0.89796E+00 
  60523.8122     0.87385E+00 
  60556.0743     0.85010E+00 
  60588.3365     0.82670E+00 
  60620.5986     0.80366E+00 
  60652.8608     0.78098E+00 
  60685.1230     0.75865E+00 
  60717.3851     0.73668E+00 
  60749.6473     0.71506E+00 
  60781.9094     0.69380E+00 
  60814.1716     0.67290E+00 
  60846.4338     0.65234E+00 
  60878.6959     0.63215E+00 
  60910.9581     0.61231E+00 
  60943.2202     0.59282E+00 
  60975.4824     0.57369E+00 
  61007.7446     0.55492E+00 
  61040.0067     0.53650E+00 
  61072.2689     0.51844E+00 
  61104.5310     0.50073E+00 
  61136.7932     0.48338E+00 
  61169.0554     0.46639E+00 
  61201.3175     0.44976E+00 
  61233.5797     0.43349E+00 
  61265.8418     0.41757E+00 
  61298.1040     0.40202E+00 
  61330.3662     0.38682E+00 
  61362.6283     0.37199E+00 
  61394.8905     0.35752E+00 
  61427.1526     0.34341E+00 
  61459.4148     0.32967E+00 
  61491.6770     0.31630E+00 
  61523.9391     0.30329E+00 
  61556.2013     0.29064E+00 
  61588.4634     0.27837E+00 
  61620.7256     0.26647E+00 
  61652.9878     0.25494E+00 
  61685.2499     0.24378E+00 
  61717.5121     0.23299E+00 
  61749.7742     0.22259E+00 
  61782.0364     0.21256E+00 
  61814.2986     0.20291E+00 
  61846.5607     0.19364E+00 
  61878.8229     0.18475E+00 
  61911.0850     0.17625E+00 
  61943.3472     0.16814E+00 
  61975.6094     0.16042E+00 
  62007.8715     0.15309E+00 
  62040.1337     0.14615E+00 
  62072.3958     0.13961E+00 
  62104.6580     0.13347E+00 
  62136.9202     0.12773E+00 
  62169.1823     0.12239E+00 
  62201.4445     0.11746E+00 
  62233.7066     0.11294E+00 
  62265.9688     0.10883E+00 
  62298.2310     0.10514E+00 
  62330.4931     0.10187E+00 
  62362.7553     0.99013E-01 
  62395.0174     0.96585E-01 
  62427.2796     0.94586E-01 
  62459.5418     0.93019E-01 
  62491.8039     0.91887E-01 
  62524.0661     0.91194E-01 
  62556.3282     0.90945E-01 
  62588.5904     0.91142E-01 
  62620.8526     0.91790E-01 
  62653.1147     0.92893E-01 
  62685.3769     0.94455E-01 
  62717.6390     0.96481E-01 
  62749.9012     0.98975E-01 
  62782.1634     0.10194E+00 
  62814.4255     0.10539E+00 
  62846.6877     0.10931E+00 
  62878.9498     0.11373E+00 
  62911.2120     0.11863E+00 
  62943.4742     0.12404E+00 
  62975.7363     0.12995E+00 
  63007.9985     0.13636E+00 
  63040.2606     0.14329E+00 
  63072.5228     0.15075E+00 
  63104.7850     0.15872E+00 
  63137.0471     0.16723E+00 
  63169.3093     0.17628E+00 
  63201.5714     0.18587E+00 
  63233.8336     0.19602E+00 
  63266.0958     0.20672E+00 
  63298.3579     0.21799E+00 
  63330.6201     0.22983E+00 
  63362.8822     0.24225E+00 
  63395.1444     0.25526E+00 
  63427.4066     0.26886E+00 
  63459.6687     0.28306E+00 
  63491.9309     0.29787E+00 
  63524.1930     0.31330E+00 
  63556.4552     0.32936E+00 
  63588.7174     0.34606E+00 
  63620.9795     0.36339E+00 
  63653.2417     0.38138E+00 
  63685.5038     0.40003E+00 
  63717.7660     0.41935E+00 
  63750.0282     0.43936E+00 
  63782.2903     0.46005E+00 
  63814.5525     0.48144E+00 
  63846.8146     0.50355E+00 
  63879.0768     0.52637E+00 
  63911.3390     0.54992E+00 
  63943.6011     0.57422E+00 
  63975.8633     0.59927E+00 
  64008.1254     0.62509E+00 
  64040.3876     0.65168E+00 
  64072.6498     0.67905E+00 
  64104.9119     0.70723E+00 
  64137.1741     0.73622E+00 
  64169.4362     0.76604E+00 
  64201.6984     0.79669E+00 
  64233.9606     0.82819E+00 
  64266.2227     0.86056E+00 
  64298.4849     0.89380E+00 
  64330.7470     0.92794E+00 
  64363.0092     0.96298E+00 
  64395.2714     0.99894E+00 
  64427.5335     0.10358E+01 
  64459.7957     0.10737E+01 
  64492.0578     0.11125E+01 
  64524.3200     0.11523E+01 
  64556.5822     0.11931E+01 
  64588.8443     0.12349E+01 
  64621.1065     0.12777E+01 
  64653.3686     0.13216E+01 
  64685.6308     0.13666E+01 
  64717.8930     0.14126E+01 
  64750.1551     0.14597E+01 
  64782.4173     0.15080E+01 
  64814.6794     0.15574E+01 
  64846.9416     0.16079E+01 
  64879.2038     0.16596E+01 
  64911.4659     0.17126E+01 
  64943.7281     0.17667E+01 
  64975.9902     0.18221E+01 
  65008.2524     0.18787E+01 
  65040.5146     0.19366E+01 
  65072.7767     0.19959E+01 
  65105.0389     0.20564E+01 
  65137.3010     0.21183E+01 
  65169.5632     0.21816E+01 
  65201.8254     0.22462E+01 
  65234.0875     0.23123E+01 
  65266.3497     0.23798E+01 
  65298.6118     0.24488E+01 
  65330.8740     0.25193E+01 
  65363.1362     0.25913E+01 
  65395.3983     0.26649E+01 
  65427.6605     0.27400E+01 
  65459.9226     0.28167E+01 
  65492.1848     0.28951E+01 
  65524.4470     0.29751E+01 
  65556.7091     0.30568E+01 
  65588.9713     0.31402E+01 
  65621.2334     0.32254E+01 
  65653.4956     0.33123E+01 
  65685.7578     0.34011E+01 
  65718.0199     0.34917E+01 
  65750.2821     0.35841E+01 
  65782.5442     0.36785E+01 
  65814.8064     0.37748E+01 
  65847.0686     0.38731E+01 
  65879.3307     0.39734E+01 
  65911.5929     0.40757E+01 
  65943.8550     0.41801E+01 
  65976.1172     0.42866E+01 
  66008.3794     0.43953E+01 
  66040.6415     0.45062E+01 
  66072.9037     0.46193E+01 
  66105.1658     0.47346E+01 
  66137.4280     0.48523E+01 
  66169.6902     0.49723E+01 
  66201.9523     0.50947E+01 
  66234.2145     0.52196E+01 
  66266.4766     0.53469E+01 
  66298.7388     0.54767E+01 
  66331.0010     0.56091E+01 
  66363.2631     0.57441E+01 
  66395.5253     0.58817E+01 
  66427.7874     0.60221E+01 
  66460.0496     0.61651E+01 
  66492.3118     0.63110E+01 
  66524.5739     0.64597E+01 
  66556.8361     0.66113E+01 
  66589.0982     0.67659E+01 
  66621.3604     0.69234E+01 
  66653.6226     0.70839E+01 
  66685.8847     0.72476E+01 
  66718.1469     0.74144E+01 
  66750.4090     0.75844E+01 
  66782.6712     0.77577E+01 
  66814.9334     0.79343E+01 
  66847.1955     0.81142E+01 
  66879.4577     0.82976E+01 
  66911.7198     0.84844E+01 
  66943.9820     0.86748E+01 
  66976.2442     0.88688E+01 
  67008.5063     0.90664E+01 
  67040.7685     0.92678E+01 
  67073.0306     0.94730E+01 
  67105.2928     0.96820E+01 
  67137.5550     0.98949E+01 
  67169.8171     0.10112E+02 
  67202.0793     0.10333E+02 
  67234.3414     0.10558E+02 
  67266.6036     0.10787E+02 
  67298.8658     0.11021E+02 
  67331.1279     0.11259E+02 
  67363.3901     0.11501E+02 
  67395.6522     0.11747E+02 
  67427.9144     0.11999E+02 
  67460.1766     0.12255E+02 
  67492.4387     0.12515E+02 
  67524.7009     0.12780E+02 
  67556.9630     0.13051E+02 
  67589.2252     0.13326E+02 
  67621.4874     0.13606E+02 
  67653.7495     0.13891E+02 
  67686.0117     0.14181E+02 
  67718.2738     0.14477E+02 
  67750.5360     0.14778E+02 
  67782.7982     0.15084E+02 
  67815.0603     0.15396E+02 
  67847.3225     0.15713E+02 
  67879.5846     0.16037E+02 
  67911.8468     0.16365E+02 
  67944.1090     0.16700E+02 
  67976.3711     0.17041E+02 
  68008.6333     0.17388E+02 
  68040.8954     0.17741E+02 
  68073.1576     0.18100E+02 
  68105.4198     0.18465E+02 
  68137.6819     0.18837E+02 
  68169.9441     0.19215E+02 
  68202.2062     0.19600E+02 
  68234.4684     0.19992E+02 
  68266.7306     0.20391E+02 
  68298.9927     0.20796E+02 
  68331.2549     0.21209E+02 
  68363.5170     0.21628E+02 
  68395.7792     0.22055E+02 
  68428.0414     0.22489E+02 
  68460.3035     0.22931E+02 
  68492.5657     0.23380E+02 
  68524.8278     0.23837E+02 
  68557.0900     0.24302E+02 
  68589.3522     0.24775E+02 
  68621.6143     0.25255E+02 
  68653.8765     0.25744E+02 
  68686.1386     0.26241E+02 
  68718.4008     0.26747E+02 
  68750.6630     0.27260E+02 
  68782.9251     0.27783E+02 
  68815.1873     0.28314E+02 
  68847.4494     0.28854E+02 
  68879.7116     0.29403E+02 
  68911.9738     0.29962E+02 
  68944.2359     0.30529E+02 
  68976.4981     0.31106E+02 
  69008.7602     0.31692E+02 
  69041.0224     0.32288E+02 
  69073.2846     0.32894E+02 
  69105.5467     0.33509E+02 
  69137.8089     0.34135E+02 
  69170.0710     0.34771E+02 
  69202.3332     0.35417E+02 
  69234.5954     0.36073E+02 
  69266.8575     0.36740E+02 
  69299.1197     0.37417E+02 
  69331.3818     0.38106E+02 
  69363.6440     0.38805E+02 
  69395.9062     0.39516E+02 
  69428.1683     0.40238E+02 
  69460.4305     0.40971E+02 
  69492.6926     0.41716E+02 
  69524.9548     0.42472E+02 
  69557.2170     0.43241E+02 
  69589.4791     0.44021E+02 
  69621.7413     0.44813E+02 
  69654.0034     0.45618E+02 
  69686.2656     0.46435E+02 
  69718.5278     0.47265E+02 
  69750.7899     0.48108E+02 
  69783.0521     0.48963E+02 
  69815.3142     0.49832E+02 
  69847.5764     0.50713E+02 
  69879.8386     0.51608E+02 
  69912.1007     0.52517E+02 
  69944.3629     0.53439E+02 
  69976.6250     0.54375E+02 
  70008.8872     0.55325E+02 
  70041.1494     0.56290E+02 
  70073.4115     0.57268E+02 
  70105.6737     0.58261E+02 
  70137.9358     0.59269E+02 
  70170.1980     0.60291E+02 
  70202.4602     0.61329E+02 
  70234.7223     0.62382E+02 
  70266.9845     0.63449E+02 
  70299.2466     0.64533E+02 
  70331.5088     0.65632E+02 
  70363.7710     0.66747E+02 
  70396.0331     0.67878E+02 
  70428.2953     0.69025E+02 
  70460.5574     0.70188E+02 
  70492.8196     0.71368E+02 
  70525.0818     0.72564E+02 
  70557.3439     0.73777E+02 
  70589.6061     0.75007E+02 
  70621.8682     0.76255E+02 
  70654.1304     0.77519E+02 
  70686.3926     0.78802E+02 
  70718.6547     0.80101E+02 
  70750.9169     0.81419E+02 
  70783.1790     0.82755E+02 
  70815.4412     0.84109E+02 
  70847.7034     0.85481E+02 
  70879.9655     0.86872E+02 
  70912.2277     0.88281E+02 
  70944.4898     0.89710E+02 
  70976.7520     0.91157E+02 
  71009.0142     0.92624E+02 
  71041.2763     0.94110E+02 
  71073.5385     0.95615E+02 
  71105.8006     0.97141E+02 
  71138.0628     0.98686E+02 
  71170.3250     0.10025E+03 
  71202.5871     0.10184E+03 
  71234.8493     0.10344E+03 
  71267.1114     0.10507E+03 
  71299.3736     0.10672E+03 
  71331.6358     0.10838E+03 
  71363.8979     0.11007E+03 
  71396.1601     0.11178E+03 
  71428.4222     0.11352E+03 
  71460.6844     0.11527E+03 
  71492.9466     0.11705E+03 
  71525.2087     0.11884E+03 
  71557.4709     0.12066E+03 
  71589.7330     0.12250E+03 
  71621.9952     0.12437E+03 
  71654.2574     0.12626E+03 
  71686.5195     0.12816E+03 
  71718.7817     0.13010E+03 
  71751.0438     0.13205E+03 
  71783.3060     0.13403E+03 
  71815.5682     0.13603E+03 
  71847.8303     0.13806E+03 
  71880.0925     0.14011E+03 
  71912.3546     0.14218E+03 
  71944.6168     0.14428E+03 
  71976.8790     0.14640E+03 
  72009.1411     0.14855E+03 
  72041.4033     0.15072E+03 
  72073.6654     0.15291E+03 
  72105.9276     0.15513E+03 
  72138.1898     0.15737E+03 
  72170.4519     0.15964E+03 
  72202.7141     0.16194E+03 
  72234.9762     0.16426E+03 
  72267.2384     0.16660E+03 
  72299.5006     0.16897E+03 
  72331.7627     0.17137E+03 
  72364.0249     0.17379E+03 
  72396.2870     0.17624E+03 
  72428.5492     0.17872E+03 
  72460.8114     0.18122E+03 
  72493.0735     0.18375E+03 
  72525.3357     0.18630E+03 
  72557.5978     0.18888E+03 
  72589.8600     0.19149E+03 
