  32262.1600     0.45401E+01 
  32294.4222     0.45914E+01 
  32326.6843     0.46431E+01 
  32358.9465     0.46951E+01 
  32391.2086     0.47476E+01 
  32423.4708     0.48004E+01 
  32455.7330     0.48537E+01 
  32487.9951     0.49073E+01 
  32520.2573     0.49612E+01 
  32552.5194     0.50156E+01 
  32584.7816     0.50704E+01 
  32617.0438     0.51255E+01 
  32649.3059     0.51810E+01 
  32681.5681     0.52369E+01 
  32713.8302     0.52932E+01 
  32746.0924     0.53498E+01 
  32778.3546     0.54069E+01 
  32810.6167     0.54643E+01 
  32842.8789     0.55221E+01 
  32875.1410     0.55802E+01 
  32907.4032     0.56388E+01 
  32939.6654     0.56977E+01 
  32971.9275     0.57570E+01 
  33004.1897     0.58167E+01 
  33036.4518     0.58767E+01 
  33068.7140     0.59371E+01 
  33100.9762     0.59979E+01 
  33133.2383     0.60591E+01 
  33165.5005     0.61206E+01 
  33197.7626     0.61825E+01 
  33230.0248     0.62448E+01 
  33262.2870     0.63075E+01 
  33294.5491     0.63705E+01 
  33326.8113     0.64339E+01 
  33359.0734     0.64976E+01 
  33391.3356     0.65617E+01 
  33423.5978     0.66262E+01 
  33455.8599     0.66910E+01 
  33488.1221     0.67562E+01 
  33520.3842     0.68217E+01 
  33552.6464     0.68876E+01 
  33584.9086     0.69539E+01 
  33617.1707     0.70205E+01 
  33649.4329     0.70875E+01 
  33681.6950     0.71548E+01 
  33713.9572     0.72224E+01 
  33746.2194     0.72904E+01 
  33778.4815     0.73588E+01 
  33810.7437     0.74275E+01 
  33843.0058     0.74965E+01 
  33875.2680     0.75659E+01 
  33907.5302     0.76356E+01 
  33939.7923     0.77056E+01 
  33972.0545     0.77760E+01 
  34004.3166     0.78467E+01 
  34036.5788     0.79177E+01 
  34068.8410     0.79891E+01 
  34101.1031     0.80607E+01 
  34133.3653     0.81327E+01 
  34165.6274     0.82051E+01 
  34197.8896     0.82777E+01 
  34230.1518     0.83506E+01 
  34262.4139     0.84239E+01 
  34294.6761     0.84975E+01 
  34326.9382     0.85713E+01 
  34359.2004     0.86455E+01 
  34391.4626     0.87200E+01 
  34423.7247     0.87947E+01 
  34455.9869     0.88698E+01 
  34488.2490     0.89452E+01 
  34520.5112     0.90208E+01 
  34552.7734     0.90967E+01 
  34585.0355     0.91730E+01 
  34617.2977     0.92495E+01 
  34649.5598     0.93262E+01 
  34681.8220     0.94033E+01 
  34714.0842     0.94806E+01 
  34746.3463     0.95582E+01 
  34778.6085     0.96360E+01 
  34810.8706     0.97141E+01 
  34843.1328     0.97925E+01 
  34875.3950     0.98711E+01 
  34907.6571     0.99499E+01 
  34939.9193     0.10029E+02 
  34972.1814     0.10108E+02 
  35004.4436     0.10188E+02 
  35036.7058     0.10268E+02 
  35068.9679     0.10348E+02 
  35101.2301     0.10428E+02 
  35133.4922     0.10509E+02 
  35165.7544     0.10589E+02 
  35198.0166     0.10670E+02 
  35230.2787     0.10752E+02 
  35262.5409     0.10833E+02 
  35294.8030     0.10914E+02 
  35327.0652     0.10996E+02 
  35359.3274     0.11078E+02 
  35391.5895     0.11160E+02 
  35423.8517     0.11243E+02 
  35456.1138     0.11325E+02 
  35488.3760     0.11408E+02 
  35520.6382     0.11491E+02 
  35552.9003     0.11574E+02 
  35585.1625     0.11657E+02 
  35617.4246     0.11741E+02 
  35649.6868     0.11824E+02 
  35681.9490     0.11908E+02 
  35714.2111     0.11992E+02 
  35746.4733     0.12076E+02 
  35778.7354     0.12160E+02 
  35810.9976     0.12244E+02 
  35843.2598     0.12329E+02 
  35875.5219     0.12413E+02 
  35907.7841     0.12498E+02 
  35940.0462     0.12583E+02 
  35972.3084     0.12667E+02 
  36004.5706     0.12752E+02 
  36036.8327     0.12838E+02 
  36069.0949     0.12923E+02 
  36101.3570     0.13008E+02 
  36133.6192     0.13093E+02 
  36165.8814     0.13179E+02 
  36198.1435     0.13264E+02 
  36230.4057     0.13350E+02 
  36262.6678     0.13436E+02 
  36294.9300     0.13522E+02 
  36327.1922     0.13607E+02 
  36359.4543     0.13693E+02 
  36391.7165     0.13779E+02 
  36423.9786     0.13865E+02 
  36456.2408     0.13951E+02 
  36488.5030     0.14037E+02 
  36520.7651     0.14123E+02 
  36553.0273     0.14209E+02 
  36585.2894     0.14295E+02 
  36617.5516     0.14381E+02 
  36649.8138     0.14468E+02 
  36682.0759     0.14554E+02 
  36714.3381     0.14640E+02 
  36746.6002     0.14726E+02 
  36778.8624     0.14812E+02 
  36811.1246     0.14898E+02 
  36843.3867     0.14984E+02 
  36875.6489     0.15070E+02 
  36907.9110     0.15156E+02 
  36940.1732     0.15242E+02 
  36972.4354     0.15328E+02 
  37004.6975     0.15414E+02 
  37036.9597     0.15500E+02 
  37069.2218     0.15585E+02 
  37101.4840     0.15671E+02 
  37133.7462     0.15756E+02 
  37166.0083     0.15842E+02 
  37198.2705     0.15927E+02 
  37230.5326     0.16013E+02 
  37262.7948     0.16098E+02 
  37295.0570     0.16183E+02 
  37327.3191     0.16268E+02 
  37359.5813     0.16353E+02 
  37391.8434     0.16438E+02 
  37424.1056     0.16522E+02 
  37456.3678     0.16607E+02 
  37488.6299     0.16691E+02 
  37520.8921     0.16776E+02 
  37553.1542     0.16860E+02 
  37585.4164     0.16944E+02 
  37617.6786     0.17027E+02 
  37649.9407     0.17111E+02 
  37682.2029     0.17195E+02 
  37714.4650     0.17278E+02 
  37746.7272     0.17361E+02 
  37778.9894     0.17444E+02 
  37811.2515     0.17527E+02 
  37843.5137     0.17609E+02 
  37875.7758     0.17692E+02 
  37908.0380     0.17774E+02 
  37940.3002     0.17856E+02 
  37972.5623     0.17937E+02 
  38004.8245     0.18019E+02 
  38037.0866     0.18100E+02 
  38069.3488     0.18181E+02 
  38101.6110     0.18262E+02 
  38133.8731     0.18342E+02 
  38166.1353     0.18423E+02 
  38198.3974     0.18503E+02 
  38230.6596     0.18582E+02 
  38262.9218     0.18662E+02 
  38295.1839     0.18741E+02 
  38327.4461     0.18820E+02 
  38359.7082     0.18899E+02 
  38391.9704     0.18977E+02 
  38424.2326     0.19055E+02 
  38456.4947     0.19133E+02 
  38488.7569     0.19211E+02 
  38521.0190     0.19288E+02 
  38553.2812     0.19365E+02 
  38585.5434     0.19441E+02 
  38617.8055     0.19517E+02 
  38650.0677     0.19593E+02 
  38682.3298     0.19669E+02 
  38714.5920     0.19744E+02 
  38746.8542     0.19819E+02 
  38779.1163     0.19893E+02 
  38811.3785     0.19967E+02 
  38843.6406     0.20041E+02 
  38875.9028     0.20115E+02 
  38908.1650     0.20188E+02 
  38940.4271     0.20260E+02 
  38972.6893     0.20333E+02 
  39004.9514     0.20404E+02 
  39037.2136     0.20476E+02 
  39069.4758     0.20547E+02 
  39101.7379     0.20618E+02 
  39134.0001     0.20688E+02 
  39166.2622     0.20758E+02 
  39198.5244     0.20827E+02 
  39230.7866     0.20897E+02 
  39263.0487     0.20965E+02 
  39295.3109     0.21033E+02 
  39327.5730     0.21101E+02 
  39359.8352     0.21168E+02 
  39392.0974     0.21235E+02 
  39424.3595     0.21302E+02 
  39456.6217     0.21368E+02 
  39488.8838     0.21433E+02 
  39521.1460     0.21498E+02 
  39553.4082     0.21563E+02 
  39585.6703     0.21627E+02 
  39617.9325     0.21691E+02 
  39650.1946     0.21754E+02 
  39682.4568     0.21817E+02 
  39714.7190     0.21879E+02 
  39746.9811     0.21941E+02 
  39779.2433     0.22002E+02 
  39811.5054     0.22063E+02 
  39843.7676     0.22123E+02 
  39876.0298     0.22183E+02 
  39908.2919     0.22242E+02 
  39940.5541     0.22300E+02 
  39972.8162     0.22359E+02 
  40005.0784     0.22416E+02 
  40037.3406     0.22473E+02 
  40069.6027     0.22530E+02 
  40101.8649     0.22586E+02 
  40134.1270     0.22642E+02 
  40166.3892     0.22697E+02 
  40198.6514     0.22751E+02 
  40230.9135     0.22805E+02 
  40263.1757     0.22858E+02 
  40295.4378     0.22911E+02 
  40327.7000     0.22963E+02 
  40359.9622     0.23015E+02 
  40392.2243     0.23066E+02 
  40424.4865     0.23116E+02 
  40456.7486     0.23166E+02 
  40489.0108     0.23216E+02 
  40521.2730     0.23265E+02 
  40553.5351     0.23313E+02 
  40585.7973     0.23361E+02 
  40618.0594     0.23408E+02 
  40650.3216     0.23454E+02 
  40682.5838     0.23500E+02 
  40714.8459     0.23545E+02 
  40747.1081     0.23590E+02 
  40779.3702     0.23634E+02 
  40811.6324     0.23677E+02 
  40843.8946     0.23720E+02 
  40876.1567     0.23763E+02 
  40908.4189     0.23804E+02 
  40940.6810     0.23845E+02 
  40972.9432     0.23886E+02 
  41005.2054     0.23926E+02 
  41037.4675     0.23965E+02 
  41069.7297     0.24003E+02 
  41101.9918     0.24041E+02 
  41134.2540     0.24079E+02 
  41166.5162     0.24115E+02 
  41198.7783     0.24151E+02 
  41231.0405     0.24187E+02 
  41263.3026     0.24222E+02 
  41295.5648     0.24256E+02 
  41327.8270     0.24289E+02 
  41360.0891     0.24322E+02 
  41392.3513     0.24355E+02 
  41424.6134     0.24386E+02 
  41456.8756     0.24417E+02 
  41489.1378     0.24448E+02 
  41521.3999     0.24477E+02 
  41553.6621     0.24506E+02 
  41585.9242     0.24535E+02 
  41618.1864     0.24562E+02 
  41650.4486     0.24590E+02 
  41682.7107     0.24616E+02 
  41714.9729     0.24642E+02 
  41747.2350     0.24667E+02 
  41779.4972     0.24691E+02 
  41811.7594     0.24715E+02 
  41844.0215     0.24738E+02 
  41876.2837     0.24761E+02 
  41908.5458     0.24783E+02 
  41940.8080     0.24804E+02 
  41973.0702     0.24824E+02 
  42005.3323     0.24844E+02 
  42037.5945     0.24863E+02 
  42069.8566     0.24882E+02 
  42102.1188     0.24900E+02 
  42134.3810     0.24917E+02 
  42166.6431     0.24934E+02 
  42198.9053     0.24949E+02 
  42231.1674     0.24965E+02 
  42263.4296     0.24979E+02 
  42295.6918     0.24993E+02 
  42327.9539     0.25006E+02 
  42360.2161     0.25019E+02 
  42392.4782     0.25031E+02 
  42424.7404     0.25042E+02 
  42457.0026     0.25053E+02 
  42489.2647     0.25062E+02 
  42521.5269     0.25072E+02 
  42553.7890     0.25080E+02 
  42586.0512     0.25088E+02 
  42618.3134     0.25095E+02 
  42650.5755     0.25102E+02 
  42682.8377     0.25108E+02 
  42715.0998     0.25113E+02 
  42747.3620     0.25118E+02 
  42779.6242     0.25122E+02 
  42811.8863     0.25125E+02 
  42844.1485     0.25128E+02 
  42876.4106     0.25130E+02 
  42908.6728     0.25131E+02 
  42940.9350     0.25132E+02 
  42973.1971     0.25132E+02 
  43005.4593     0.25131E+02 
  43037.7214     0.25130E+02 
  43069.9836     0.25128E+02 
  43102.2458     0.25125E+02 
  43134.5079     0.25122E+02 
  43166.7701     0.25118E+02 
  43199.0322     0.25113E+02 
  43231.2944     0.25108E+02 
  43263.5566     0.25102E+02 
  43295.8187     0.25096E+02 
  43328.0809     0.25089E+02 
  43360.3430     0.25081E+02 
  43392.6052     0.25072E+02 
  43424.8674     0.25063E+02 
  43457.1295     0.25054E+02 
  43489.3917     0.25043E+02 
  43521.6538     0.25032E+02 
  43553.9160     0.25021E+02 
  43586.1782     0.25009E+02 
  43618.4403     0.24996E+02 
  43650.7025     0.24982E+02 
  43682.9646     0.24968E+02 
  43715.2268     0.24953E+02 
  43747.4890     0.24938E+02 
  43779.7511     0.24922E+02 
  43812.0133     0.24906E+02 
  43844.2754     0.24888E+02 
  43876.5376     0.24871E+02 
  43908.7998     0.24852E+02 
  43941.0619     0.24833E+02 
  43973.3241     0.24814E+02 
  44005.5862     0.24793E+02 
  44037.8484     0.24773E+02 
  44070.1106     0.24751E+02 
  44102.3727     0.24729E+02 
  44134.6349     0.24707E+02 
  44166.8970     0.24684E+02 
  44199.1592     0.24660E+02 
  44231.4214     0.24635E+02 
  44263.6835     0.24610E+02 
  44295.9457     0.24585E+02 
  44328.2078     0.24559E+02 
  44360.4700     0.24532E+02 
  44392.7322     0.24505E+02 
  44424.9943     0.24477E+02 
  44457.2565     0.24449E+02 
  44489.5186     0.24420E+02 
  44521.7808     0.24391E+02 
  44554.0430     0.24361E+02 
  44586.3051     0.24330E+02 
  44618.5673     0.24299E+02 
  44650.8294     0.24267E+02 
  44683.0916     0.24235E+02 
  44715.3538     0.24202E+02 
  44747.6159     0.24169E+02 
  44779.8781     0.24135E+02 
  44812.1402     0.24101E+02 
  44844.4024     0.24066E+02 
  44876.6646     0.24030E+02 
  44908.9267     0.23994E+02 
  44941.1889     0.23958E+02 
  44973.4510     0.23921E+02 
  45005.7132     0.23883E+02 
  45037.9754     0.23845E+02 
  45070.2375     0.23807E+02 
  45102.4997     0.23768E+02 
  45134.7618     0.23728E+02 
  45167.0240     0.23688E+02 
  45199.2862     0.23648E+02 
  45231.5483     0.23607E+02 
  45263.8105     0.23566E+02 
  45296.0726     0.23524E+02 
  45328.3348     0.23481E+02 
  45360.5970     0.23438E+02 
  45392.8591     0.23395E+02 
  45425.1213     0.23351E+02 
  45457.3834     0.23307E+02 
  45489.6456     0.23262E+02 
  45521.9078     0.23217E+02 
  45554.1699     0.23171E+02 
  45586.4321     0.23125E+02 
  45618.6942     0.23079E+02 
  45650.9564     0.23032E+02 
  45683.2186     0.22984E+02 
  45715.4807     0.22936E+02 
  45747.7429     0.22888E+02 
  45780.0050     0.22839E+02 
  45812.2672     0.22790E+02 
  45844.5294     0.22741E+02 
  45876.7915     0.22691E+02 
  45909.0537     0.22640E+02 
  45941.3158     0.22590E+02 
  45973.5780     0.22538E+02 
  46005.8402     0.22487E+02 
  46038.1023     0.22435E+02 
  46070.3645     0.22383E+02 
  46102.6266     0.22330E+02 
  46134.8888     0.22277E+02 
  46167.1510     0.22223E+02 
  46199.4131     0.22169E+02 
  46231.6753     0.22115E+02 
  46263.9374     0.22060E+02 
  46296.1996     0.22005E+02 
  46328.4618     0.21950E+02 
  46360.7239     0.21894E+02 
  46392.9861     0.21838E+02 
  46425.2482     0.21782E+02 
  46457.5104     0.21725E+02 
  46489.7726     0.21668E+02 
  46522.0347     0.21611E+02 
  46554.2969     0.21553E+02 
  46586.5590     0.21495E+02 
  46618.8212     0.21437E+02 
  46651.0834     0.21378E+02 
  46683.3455     0.21319E+02 
  46715.6077     0.21259E+02 
  46747.8698     0.21200E+02 
  46780.1320     0.21140E+02 
  46812.3942     0.21080E+02 
  46844.6563     0.21019E+02 
  46876.9185     0.20958E+02 
  46909.1806     0.20897E+02 
  46941.4428     0.20836E+02 
  46973.7050     0.20774E+02 
  47005.9671     0.20712E+02 
  47038.2293     0.20650E+02 
  47070.4914     0.20587E+02 
  47102.7536     0.20525E+02 
  47135.0158     0.20462E+02 
  47167.2779     0.20398E+02 
  47199.5401     0.20335E+02 
  47231.8022     0.20271E+02 
  47264.0644     0.20207E+02 
  47296.3266     0.20143E+02 
  47328.5887     0.20078E+02 
  47360.8509     0.20014E+02 
  47393.1130     0.19949E+02 
  47425.3752     0.19884E+02 
  47457.6374     0.19818E+02 
  47489.8995     0.19753E+02 
  47522.1617     0.19687E+02 
  47554.4238     0.19621E+02 
  47586.6860     0.19555E+02 
  47618.9482     0.19488E+02 
  47651.2103     0.19422E+02 
  47683.4725     0.19355E+02 
  47715.7346     0.19288E+02 
  47747.9968     0.19221E+02 
  47780.2590     0.19153E+02 
  47812.5211     0.19086E+02 
  47844.7833     0.19018E+02 
  47877.0454     0.18950E+02 
  47909.3076     0.18882E+02 
  47941.5698     0.18814E+02 
  47973.8319     0.18746E+02 
  48006.0941     0.18677E+02 
  48038.3562     0.18609E+02 
  48070.6184     0.18540E+02 
  48102.8806     0.18471E+02 
  48135.1427     0.18402E+02 
  48167.4049     0.18333E+02 
  48199.6670     0.18263E+02 
  48231.9292     0.18194E+02 
  48264.1914     0.18124E+02 
  48296.4535     0.18055E+02 
  48328.7157     0.17985E+02 
  48360.9778     0.17915E+02 
  48393.2400     0.17845E+02 
  48425.5022     0.17775E+02 
  48457.7643     0.17705E+02 
  48490.0265     0.17634E+02 
  48522.2886     0.17564E+02 
  48554.5508     0.17494E+02 
  48586.8130     0.17423E+02 
  48619.0751     0.17352E+02 
  48651.3373     0.17282E+02 
  48683.5994     0.17211E+02 
  48715.8616     0.17140E+02 
  48748.1238     0.17069E+02 
  48780.3859     0.16998E+02 
  48812.6481     0.16927E+02 
  48844.9102     0.16856E+02 
  48877.1724     0.16785E+02 
  48909.4346     0.16713E+02 
  48941.6967     0.16642E+02 
  48973.9589     0.16571E+02 
  49006.2210     0.16499E+02 
  49038.4832     0.16428E+02 
  49070.7454     0.16356E+02 
  49103.0075     0.16285E+02 
  49135.2697     0.16213E+02 
  49167.5318     0.16142E+02 
  49199.7940     0.16070E+02 
  49232.0562     0.15999E+02 
  49264.3183     0.15927E+02 
  49296.5805     0.15856E+02 
  49328.8426     0.15784E+02 
  49361.1048     0.15712E+02 
  49393.3670     0.15641E+02 
  49425.6291     0.15569E+02 
  49457.8913     0.15498E+02 
  49490.1534     0.15426E+02 
  49522.4156     0.15355E+02 
  49554.6778     0.15283E+02 
  49586.9399     0.15211E+02 
  49619.2021     0.15140E+02 
  49651.4642     0.15068E+02 
  49683.7264     0.14997E+02 
  49715.9886     0.14925E+02 
  49748.2507     0.14854E+02 
  49780.5129     0.14783E+02 
  49812.7750     0.14711E+02 
  49845.0372     0.14640E+02 
  49877.2994     0.14569E+02 
  49909.5615     0.14497E+02 
  49941.8237     0.14426E+02 
  49974.0858     0.14355E+02 
  50006.3480     0.14284E+02 
  50038.6102     0.14213E+02 
  50070.8723     0.14142E+02 
  50103.1345     0.14071E+02 
  50135.3966     0.14000E+02 
  50167.6588     0.13930E+02 
  50199.9210     0.13859E+02 
  50232.1831     0.13788E+02 
  50264.4453     0.13718E+02 
  50296.7074     0.13647E+02 
  50328.9696     0.13577E+02 
  50361.2318     0.13506E+02 
  50393.4939     0.13436E+02 
  50425.7561     0.13366E+02 
  50458.0182     0.13296E+02 
  50490.2804     0.13226E+02 
  50522.5426     0.13156E+02 
  50554.8047     0.13086E+02 
  50587.0669     0.13017E+02 
  50619.3290     0.12947E+02 
  50651.5912     0.12878E+02 
  50683.8534     0.12808E+02 
  50716.1155     0.12739E+02 
  50748.3777     0.12670E+02 
  50780.6398     0.12601E+02 
  50812.9020     0.12532E+02 
  50845.1642     0.12463E+02 
  50877.4263     0.12394E+02 
  50909.6885     0.12326E+02 
  50941.9506     0.12257E+02 
  50974.2128     0.12189E+02 
  51006.4750     0.12121E+02 
  51038.7371     0.12053E+02 
  51070.9993     0.11985E+02 
  51103.2614     0.11917E+02 
  51135.5236     0.11849E+02 
  51167.7858     0.11782E+02 
  51200.0479     0.11714E+02 
  51232.3101     0.11647E+02 
  51264.5722     0.11580E+02 
  51296.8344     0.11513E+02 
  51329.0966     0.11446E+02 
  51361.3587     0.11379E+02 
  51393.6209     0.11313E+02 
  51425.8830     0.11246E+02 
  51458.1452     0.11180E+02 
  51490.4074     0.11114E+02 
  51522.6695     0.11048E+02 
  51554.9317     0.10982E+02 
  51587.1938     0.10917E+02 
  51619.4560     0.10851E+02 
  51651.7182     0.10786E+02 
  51683.9803     0.10721E+02 
  51716.2425     0.10656E+02 
  51748.5046     0.10591E+02 
  51780.7668     0.10526E+02 
  51813.0290     0.10462E+02 
  51845.2911     0.10397E+02 
  51877.5533     0.10333E+02 
  51909.8154     0.10269E+02 
  51942.0776     0.10206E+02 
  51974.3398     0.10142E+02 
  52006.6019     0.10078E+02 
  52038.8641     0.10015E+02 
  52071.1262     0.99521E+01 
  52103.3884     0.98892E+01 
  52135.6506     0.98265E+01 
  52167.9127     0.97639E+01 
  52200.1749     0.97016E+01 
  52232.4370     0.96394E+01 
  52264.6992     0.95774E+01 
  52296.9614     0.95156E+01 
  52329.2235     0.94540E+01 
  52361.4857     0.93926E+01 
  52393.7478     0.93314E+01 
  52426.0100     0.92704E+01 
  52458.2722     0.92095E+01 
  52490.5343     0.91489E+01 
  52522.7965     0.90884E+01 
  52555.0586     0.90282E+01 
  52587.3208     0.89681E+01 
  52619.5830     0.89082E+01 
  52651.8451     0.88486E+01 
  52684.1073     0.87891E+01 
  52716.3694     0.87299E+01 
  52748.6316     0.86708E+01 
  52780.8938     0.86119E+01 
  52813.1559     0.85533E+01 
  52845.4181     0.84948E+01 
  52877.6802     0.84366E+01 
  52909.9424     0.83785E+01 
  52942.2046     0.83207E+01 
  52974.4667     0.82631E+01 
  53006.7289     0.82056E+01 
  53038.9910     0.81484E+01 
  53071.2532     0.80914E+01 
  53103.5154     0.80346E+01 
  53135.7775     0.79780E+01 
  53168.0397     0.79217E+01 
  53200.3018     0.78655E+01 
  53232.5640     0.78095E+01 
  53264.8262     0.77538E+01 
  53297.0883     0.76983E+01 
  53329.3505     0.76430E+01 
  53361.6126     0.75879E+01 
  53393.8748     0.75330E+01 
  53426.1370     0.74783E+01 
  53458.3991     0.74238E+01 
  53490.6613     0.73696E+01 
  53522.9234     0.73156E+01 
  53555.1856     0.72618E+01 
  53587.4478     0.72082E+01 
  53619.7099     0.71548E+01 
  53651.9721     0.71017E+01 
  53684.2342     0.70487E+01 
  53716.4964     0.69960E+01 
  53748.7586     0.69435E+01 
  53781.0207     0.68912E+01 
  53813.2829     0.68392E+01 
  53845.5450     0.67873E+01 
  53877.8072     0.67357E+01 
  53910.0694     0.66843E+01 
  53942.3315     0.66331E+01 
  53974.5937     0.65821E+01 
  54006.8558     0.65314E+01 
  54039.1180     0.64809E+01 
  54071.3802     0.64306E+01 
  54103.6423     0.63805E+01 
  54135.9045     0.63307E+01 
  54168.1666     0.62810E+01 
  54200.4288     0.62316E+01 
  54232.6910     0.61824E+01 
  54264.9531     0.61335E+01 
  54297.2153     0.60847E+01 
  54329.4774     0.60362E+01 
  54361.7396     0.59879E+01 
  54394.0018     0.59398E+01 
  54426.2639     0.58920E+01 
  54458.5261     0.58443E+01 
  54490.7882     0.57969E+01 
  54523.0504     0.57497E+01 
  54555.3126     0.57027E+01 
  54587.5747     0.56560E+01 
  54619.8369     0.56095E+01 
  54652.0990     0.55632E+01 
  54684.3612     0.55171E+01 
  54716.6234     0.54712E+01 
  54748.8855     0.54256E+01 
  54781.1477     0.53802E+01 
  54813.4098     0.53350E+01 
  54845.6720     0.52900E+01 
  54877.9342     0.52453E+01 
  54910.1963     0.52007E+01 
  54942.4585     0.51564E+01 
  54974.7206     0.51124E+01 
  55006.9828     0.50685E+01 
  55039.2450     0.50248E+01 
  55071.5071     0.49814E+01 
  55103.7693     0.49382E+01 
  55136.0314     0.48952E+01 
  55168.2936     0.48525E+01 
  55200.5558     0.48099E+01 
  55232.8179     0.47676E+01 
  55265.0801     0.47255E+01 
  55297.3422     0.46836E+01 
  55329.6044     0.46419E+01 
  55361.8666     0.46005E+01 
  55394.1287     0.45592E+01 
  55426.3909     0.45182E+01 
  55458.6530     0.44774E+01 
  55490.9152     0.44368E+01 
  55523.1774     0.43965E+01 
  55555.4395     0.43563E+01 
  55587.7017     0.43164E+01 
  55619.9638     0.42767E+01 
  55652.2260     0.42372E+01 
  55684.4882     0.41979E+01 
  55716.7503     0.41588E+01 
  55749.0125     0.41200E+01 
  55781.2746     0.40813E+01 
  55813.5368     0.40429E+01 
  55845.7990     0.40047E+01 
  55878.0611     0.39667E+01 
  55910.3233     0.39289E+01 
  55942.5854     0.38913E+01 
  55974.8476     0.38540E+01 
  56007.1098     0.38168E+01 
  56039.3719     0.37799E+01 
  56071.6341     0.37431E+01 
  56103.8962     0.37066E+01 
  56136.1584     0.36703E+01 
  56168.4206     0.36342E+01 
  56200.6827     0.35983E+01 
  56232.9449     0.35626E+01 
  56265.2070     0.35271E+01 
  56297.4692     0.34919E+01 
  56329.7314     0.34568E+01 
  56361.9935     0.34219E+01 
  56394.2557     0.33873E+01 
  56426.5178     0.33528E+01 
  56458.7800     0.33186E+01 
  56491.0422     0.32845E+01 
  56523.3043     0.32507E+01 
  56555.5665     0.32171E+01 
  56587.8286     0.31837E+01 
  56620.0908     0.31504E+01 
  56652.3530     0.31174E+01 
  56684.6151     0.30846E+01 
  56716.8773     0.30520E+01 
  56749.1394     0.30196E+01 
  56781.4016     0.29873E+01 
  56813.6638     0.29553E+01 
  56845.9259     0.29235E+01 
  56878.1881     0.28919E+01 
  56910.4502     0.28605E+01 
  56942.7124     0.28292E+01 
  56974.9746     0.27982E+01 
  57007.2367     0.27674E+01 
  57039.4989     0.27367E+01 
  57071.7610     0.27063E+01 
  57104.0232     0.26761E+01 
  57136.2854     0.26460E+01 
  57168.5475     0.26162E+01 
  57200.8097     0.25865E+01 
  57233.0718     0.25570E+01 
  57265.3340     0.25277E+01 
  57297.5962     0.24987E+01 
  57329.8583     0.24698E+01 
  57362.1205     0.24411E+01 
  57394.3826     0.24126E+01 
  57426.6448     0.23842E+01 
  57458.9070     0.23561E+01 
  57491.1691     0.23282E+01 
  57523.4313     0.23004E+01 
  57555.6934     0.22728E+01 
  57587.9556     0.22454E+01 
  57620.2178     0.22183E+01 
  57652.4799     0.21912E+01 
  57684.7421     0.21644E+01 
  57717.0042     0.21378E+01 
  57749.2664     0.21113E+01 
  57781.5286     0.20851E+01 
  57813.7907     0.20590E+01 
  57846.0529     0.20331E+01 
  57878.3150     0.20074E+01 
  57910.5772     0.19818E+01 
  57942.8394     0.19565E+01 
  57975.1015     0.19313E+01 
  58007.3637     0.19063E+01 
  58039.6258     0.18815E+01 
  58071.8880     0.18568E+01 
  58104.1502     0.18324E+01 
  58136.4123     0.18081E+01 
  58168.6745     0.17840E+01 
  58200.9366     0.17601E+01 
  58233.1988     0.17363E+01 
  58265.4610     0.17128E+01 
  58297.7231     0.16894E+01 
  58329.9853     0.16662E+01 
  58362.2474     0.16431E+01 
  58394.5096     0.16203E+01 
  58426.7718     0.15976E+01 
  58459.0339     0.15751E+01 
  58491.2961     0.15527E+01 
  58523.5582     0.15306E+01 
  58555.8204     0.15086E+01 
  58588.0826     0.14867E+01 
  58620.3447     0.14651E+01 
  58652.6069     0.14436E+01 
  58684.8690     0.14223E+01 
  58717.1312     0.14012E+01 
  58749.3934     0.13802E+01 
  58781.6555     0.13594E+01 
  58813.9177     0.13388E+01 
  58846.1798     0.13183E+01 
  58878.4420     0.12980E+01 
  58910.7042     0.12779E+01 
  58942.9663     0.12580E+01 
  58975.2285     0.12382E+01 
  59007.4906     0.12186E+01 
  59039.7528     0.11991E+01 
  59072.0150     0.11798E+01 
  59104.2771     0.11607E+01 
  59136.5393     0.11418E+01 
  59168.8014     0.11230E+01 
  59201.0636     0.11044E+01 
  59233.3258     0.10859E+01 
  59265.5879     0.10676E+01 
  59297.8501     0.10495E+01 
  59330.1122     0.10316E+01 
  59362.3744     0.10138E+01 
  59394.6366     0.99614E+00 
  59426.8987     0.97868E+00 
  59459.1609     0.96138E+00 
  59491.4230     0.94425E+00 
  59523.6852     0.92728E+00 
  59555.9474     0.91047E+00 
  59588.2095     0.89383E+00 
  59620.4717     0.87735E+00 
  59652.7338     0.86104E+00 
  59684.9960     0.84489E+00 
  59717.2582     0.82890E+00 
  59749.5203     0.81308E+00 
  59781.7825     0.79741E+00 
  59814.0446     0.78192E+00 
  59846.3068     0.76658E+00 
  59878.5690     0.75141E+00 
  59910.8311     0.73640E+00 
  59943.0933     0.72155E+00 
  59975.3554     0.70687E+00 
  60007.6176     0.69235E+00 
  60039.8798     0.67799E+00 
  60072.1419     0.66380E+00 
  60104.4041     0.64977E+00 
  60136.6662     0.63590E+00 
  60168.9284     0.62220E+00 
  60201.1906     0.60866E+00 
  60233.4527     0.59528E+00 
  60265.7149     0.58207E+00 
  60297.9770     0.56903E+00 
  60330.2392     0.55614E+00 
  60362.5014     0.54343E+00 
  60394.7635     0.53087E+00 
  60427.0257     0.51849E+00 
  60459.2878     0.50627E+00 
  60491.5500     0.49421E+00 
  60523.8122     0.48232E+00 
  60556.0743     0.47060E+00 
  60588.3365     0.45905E+00 
  60620.5986     0.44766E+00 
  60652.8608     0.43644E+00 
  60685.1230     0.42539E+00 
  60717.3851     0.41451E+00 
  60749.6473     0.40380E+00 
  60781.9094     0.39325E+00 
  60814.1716     0.38288E+00 
  60846.4338     0.37268E+00 
  60878.6959     0.36266E+00 
  60910.9581     0.35280E+00 
  60943.2202     0.34312E+00 
  60975.4824     0.33361E+00 
  61007.7446     0.32427E+00 
  61040.0067     0.31512E+00 
  61072.2689     0.30613E+00 
  61104.5310     0.29733E+00 
  61136.7932     0.28870E+00 
  61169.0554     0.28025E+00 
  61201.3175     0.27198E+00 
  61233.5797     0.26389E+00 
  61265.8418     0.25598E+00 
  61298.1040     0.24826E+00 
  61330.3662     0.24071E+00 
  61362.6283     0.23336E+00 
  61394.8905     0.22618E+00 
  61427.1526     0.21920E+00 
  61459.4148     0.21240E+00 
  61491.6770     0.20579E+00 
  61523.9391     0.19938E+00 
  61556.2013     0.19315E+00 
  61588.4634     0.18712E+00 
  61620.7256     0.18128E+00 
  61652.9878     0.17564E+00 
  61685.2499     0.17019E+00 
  61717.5121     0.16494E+00 
  61749.7742     0.15990E+00 
  61782.0364     0.15505E+00 
  61814.2986     0.15041E+00 
  61846.5607     0.14597E+00 
  61878.8229     0.14174E+00 
  61911.0850     0.13772E+00 
  61943.3472     0.13391E+00 
  61975.6094     0.13031E+00 
  62007.8715     0.12692E+00 
  62040.1337     0.12375E+00 
  62072.3958     0.12080E+00 
  62104.6580     0.11807E+00 
  62136.9202     0.11556E+00 
  62169.1823     0.11327E+00 
  62201.4445     0.11121E+00 
  62233.7066     0.10938E+00 
  62265.9688     0.10778E+00 
  62298.2310     0.10641E+00 
  62330.4931     0.10527E+00 
  62362.7553     0.10438E+00 
  62395.0174     0.10372E+00 
  62427.2796     0.10331E+00 
  62459.5418     0.10314E+00 
  62491.8039     0.10323E+00 
  62524.0661     0.10356E+00 
  62556.3282     0.10414E+00 
  62588.5904     0.10499E+00 
  62620.8526     0.10609E+00 
  62653.1147     0.10745E+00 
  62685.3769     0.10908E+00 
  62717.6390     0.11098E+00 
  62749.9012     0.11315E+00 
  62782.1634     0.11559E+00 
  62814.4255     0.11832E+00 
  62846.6877     0.12132E+00 
  62878.9498     0.12461E+00 
  62911.2120     0.12819E+00 
  62943.4742     0.13206E+00 
  62975.7363     0.13622E+00 
  63007.9985     0.14069E+00 
  63040.2606     0.14546E+00 
  63072.5228     0.15054E+00 
  63104.7850     0.15592E+00 
  63137.0471     0.16163E+00 
  63169.3093     0.16765E+00 
  63201.5714     0.17400E+00 
  63233.8336     0.18067E+00 
  63266.0958     0.18768E+00 
  63298.3579     0.19502E+00 
  63330.6201     0.20270E+00 
  63362.8822     0.21074E+00 
  63395.1444     0.21912E+00 
  63427.4066     0.22785E+00 
  63459.6687     0.23695E+00 
  63491.9309     0.24641E+00 
  63524.1930     0.25625E+00 
  63556.4552     0.26646E+00 
  63588.7174     0.27705E+00 
  63620.9795     0.28802E+00 
  63653.2417     0.29939E+00 
  63685.5038     0.31115E+00 
  63717.7660     0.32332E+00 
  63750.0282     0.33590E+00 
  63782.2903     0.34889E+00 
  63814.5525     0.36230E+00 
  63846.8146     0.37614E+00 
  63879.0768     0.39041E+00 
  63911.3390     0.40512E+00 
  63943.6011     0.42028E+00 
  63975.8633     0.43589E+00 
  64008.1254     0.45196E+00 
  64040.3876     0.46849E+00 
  64072.6498     0.48549E+00 
  64104.9119     0.50298E+00 
  64137.1741     0.52095E+00 
  64169.4362     0.53941E+00 
  64201.6984     0.55838E+00 
  64233.9606     0.57785E+00 
  64266.2227     0.59784E+00 
  64298.4849     0.61835E+00 
  64330.7470     0.63939E+00 
  64363.0092     0.66098E+00 
  64395.2714     0.68311E+00 
  64427.5335     0.70579E+00 
  64459.7957     0.72904E+00 
  64492.0578     0.75286E+00 
  64524.3200     0.77726E+00 
  64556.5822     0.80225E+00 
  64588.8443     0.82784E+00 
  64621.1065     0.85404E+00 
  64653.3686     0.88085E+00 
  64685.6308     0.90829E+00 
  64717.8930     0.93637E+00 
  64750.1551     0.96509E+00 
  64782.4173     0.99446E+00 
  64814.6794     0.10245E+01 
  64846.9416     0.10552E+01 
  64879.2038     0.10866E+01 
  64911.4659     0.11187E+01 
  64943.7281     0.11515E+01 
  64975.9902     0.11850E+01 
  65008.2524     0.12192E+01 
  65040.5146     0.12542E+01 
  65072.7767     0.12899E+01 
  65105.0389     0.13264E+01 
  65137.3010     0.13637E+01 
  65169.5632     0.14017E+01 
  65201.8254     0.14405E+01 
  65234.0875     0.14802E+01 
  65266.3497     0.15206E+01 
  65298.6118     0.15619E+01 
  65330.8740     0.16040E+01 
  65363.1362     0.16470E+01 
  65395.3983     0.16909E+01 
  65427.6605     0.17356E+01 
  65459.9226     0.17812E+01 
  65492.1848     0.18277E+01 
  65524.4470     0.18752E+01 
  65556.7091     0.19236E+01 
  65588.9713     0.19729E+01 
  65621.2334     0.20232E+01 
  65653.4956     0.20744E+01 
  65685.7578     0.21267E+01 
  65718.0199     0.21800E+01 
  65750.2821     0.22342E+01 
  65782.5442     0.22895E+01 
  65814.8064     0.23459E+01 
  65847.0686     0.24033E+01 
  65879.3307     0.24618E+01 
  65911.5929     0.25214E+01 
  65943.8550     0.25821E+01 
  65976.1172     0.26439E+01 
  66008.3794     0.27069E+01 
  66040.6415     0.27710E+01 
  66072.9037     0.28363E+01 
  66105.1658     0.29028E+01 
  66137.4280     0.29705E+01 
  66169.6902     0.30394E+01 
  66201.9523     0.31096E+01 
  66234.2145     0.31810E+01 
  66266.4766     0.32537E+01 
  66298.7388     0.33277E+01 
  66331.0010     0.34030E+01 
  66363.2631     0.34797E+01 
  66395.5253     0.35577E+01 
  66427.7874     0.36370E+01 
  66460.0496     0.37178E+01 
  66492.3118     0.37999E+01 
  66524.5739     0.38835E+01 
  66556.8361     0.39685E+01 
  66589.0982     0.40550E+01 
  66621.3604     0.41430E+01 
  66653.6226     0.42325E+01 
  66685.8847     0.43235E+01 
  66718.1469     0.44160E+01 
  66750.4090     0.45101E+01 
  66782.6712     0.46058E+01 
  66814.9334     0.47031E+01 
  66847.1955     0.48020E+01 
  66879.4577     0.49026E+01 
  66911.7198     0.50049E+01 
  66943.9820     0.51088E+01 
  66976.2442     0.52145E+01 
  67008.5063     0.53218E+01 
  67040.7685     0.54310E+01 
  67073.0306     0.55419E+01 
  67105.2928     0.56547E+01 
  67137.5550     0.57692E+01 
  67169.8171     0.58857E+01 
  67202.0793     0.60040E+01 
  67234.3414     0.61242E+01 
  67266.6036     0.62463E+01 
  67298.8658     0.63703E+01 
  67331.1279     0.64964E+01 
  67363.3901     0.66244E+01 
  67395.6522     0.67544E+01 
  67427.9144     0.68865E+01 
  67460.1766     0.70207E+01 
  67492.4387     0.71570E+01 
  67524.7009     0.72953E+01 
  67556.9630     0.74359E+01 
  67589.2252     0.75785E+01 
  67621.4874     0.77234E+01 
  67653.7495     0.78705E+01 
  67686.0117     0.80199E+01 
  67718.2738     0.81715E+01 
  67750.5360     0.83255E+01 
  67782.7982     0.84818E+01 
  67815.0603     0.86404E+01 
  67847.3225     0.88014E+01 
  67879.5846     0.89648E+01 
  67911.8468     0.91307E+01 
  67944.1090     0.92990E+01 
  67976.3711     0.94698E+01 
  68008.6333     0.96432E+01 
  68040.8954     0.98191E+01 
  68073.1576     0.99976E+01 
  68105.4198     0.10179E+02 
  68137.6819     0.10362E+02 
  68169.9441     0.10549E+02 
  68202.2062     0.10738E+02 
  68234.4684     0.10930E+02 
  68266.7306     0.11124E+02 
  68298.9927     0.11322E+02 
  68331.2549     0.11522E+02 
  68363.5170     0.11725E+02 
  68395.7792     0.11931E+02 
  68428.0414     0.12139E+02 
  68460.3035     0.12351E+02 
  68492.5657     0.12566E+02 
  68524.8278     0.12784E+02 
  68557.0900     0.13004E+02 
  68589.3522     0.13228E+02 
  68621.6143     0.13455E+02 
  68653.8765     0.13685E+02 
  68686.1386     0.13918E+02 
  68718.4008     0.14154E+02 
  68750.6630     0.14394E+02 
  68782.9251     0.14636E+02 
  68815.1873     0.14882E+02 
  68847.4494     0.15132E+02 
  68879.7116     0.15384E+02 
  68911.9738     0.15641E+02 
  68944.2359     0.15900E+02 
  68976.4981     0.16163E+02 
  69008.7602     0.16429E+02 
  69041.0224     0.16699E+02 
  69073.2846     0.16972E+02 
  69105.5467     0.17249E+02 
  69137.8089     0.17530E+02 
  69170.0710     0.17814E+02 
  69202.3332     0.18102E+02 
  69234.5954     0.18393E+02 
  69266.8575     0.18689E+02 
  69299.1197     0.18988E+02 
  69331.3818     0.19290E+02 
  69363.6440     0.19597E+02 
  69395.9062     0.19908E+02 
  69428.1683     0.20222E+02 
  69460.4305     0.20540E+02 
  69492.6926     0.20862E+02 
  69524.9548     0.21189E+02 
  69557.2170     0.21519E+02 
  69589.4791     0.21853E+02 
  69621.7413     0.22192E+02 
  69654.0034     0.22534E+02 
  69686.2656     0.22881E+02 
  69718.5278     0.23232E+02 
  69750.7899     0.23587E+02 
  69783.0521     0.23946E+02 
  69815.3142     0.24310E+02 
  69847.5764     0.24678E+02 
  69879.8386     0.25050E+02 
  69912.1007     0.25427E+02 
  69944.3629     0.25808E+02 
  69976.6250     0.26193E+02 
  70008.8872     0.26583E+02 
  70041.1494     0.26978E+02 
  70073.4115     0.27377E+02 
  70105.6737     0.27781E+02 
  70137.9358     0.28189E+02 
  70170.1980     0.28602E+02 
  70202.4602     0.29019E+02 
  70234.7223     0.29441E+02 
  70266.9845     0.29868E+02 
  70299.2466     0.30300E+02 
  70331.5088     0.30737E+02 
  70363.7710     0.31178E+02 
  70396.0331     0.31624E+02 
  70428.2953     0.32075E+02 
  70460.5574     0.32532E+02 
  70492.8196     0.32993E+02 
  70525.0818     0.33458E+02 
  70557.3439     0.33929E+02 
  70589.6061     0.34405E+02 
  70621.8682     0.34887E+02 
  70654.1304     0.35373E+02 
  70686.3926     0.35864E+02 
  70718.6547     0.36361E+02 
  70750.9169     0.36862E+02 
  70783.1790     0.37369E+02 
  70815.4412     0.37881E+02 
  70847.7034     0.38399E+02 
  70879.9655     0.38921E+02 
  70912.2277     0.39449E+02 
  70944.4898     0.39983E+02 
  70976.7520     0.40521E+02 
  71009.0142     0.41066E+02 
  71041.2763     0.41615E+02 
  71073.5385     0.42170E+02 
  71105.8006     0.42731E+02 
  71138.0628     0.43297E+02 
  71170.3250     0.43868E+02 
  71202.5871     0.44445E+02 
  71234.8493     0.45028E+02 
  71267.1114     0.45616E+02 
  71299.3736     0.46210E+02 
  71331.6358     0.46810E+02 
  71363.8979     0.47415E+02 
  71396.1601     0.48026E+02 
  71428.4222     0.48643E+02 
  71460.6844     0.49265E+02 
  71492.9466     0.49894E+02 
  71525.2087     0.50528E+02 
  71557.4709     0.51168E+02 
  71589.7330     0.51813E+02 
  71621.9952     0.52465E+02 
  71654.2574     0.53122E+02 
  71686.5195     0.53785E+02 
  71718.7817     0.54454E+02 
  71751.0438     0.55130E+02 
  71783.3060     0.55811E+02 
  71815.5682     0.56498E+02 
  71847.8303     0.57191E+02 
  71880.0925     0.57890E+02 
  71912.3546     0.58594E+02 
  71944.6168     0.59305E+02 
  71976.8790     0.60022E+02 
  72009.1411     0.60746E+02 
  72041.4033     0.61475E+02 
  72073.6654     0.62210E+02 
  72105.9276     0.62951E+02 
  72138.1898     0.63699E+02 
  72170.4519     0.64452E+02 
  72202.7141     0.65212E+02 
  72234.9762     0.65978E+02 
  72267.2384     0.66749E+02 
  72299.5006     0.67528E+02 
  72331.7627     0.68312E+02 
  72364.0249     0.69102E+02 
  72396.2870     0.69899E+02 
  72428.5492     0.70702E+02 
  72460.8114     0.71511E+02 
  72493.0735     0.72326E+02 
  72525.3357     0.73147E+02 
  72557.5978     0.73975E+02 
  72589.8600     0.74808E+02 
