  32262.1600     0.54420E+01 
  32294.4222     0.55118E+01 
  32326.6843     0.55823E+01 
  32358.9465     0.56533E+01 
  32391.2086     0.57249E+01 
  32423.4708     0.57971E+01 
  32455.7330     0.58700E+01 
  32487.9951     0.59435E+01 
  32520.2573     0.60175E+01 
  32552.5194     0.60922E+01 
  32584.7816     0.61675E+01 
  32617.0438     0.62434E+01 
  32649.3059     0.63199E+01 
  32681.5681     0.63970E+01 
  32713.8302     0.64748E+01 
  32746.0924     0.65531E+01 
  32778.3546     0.66321E+01 
  32810.6167     0.67116E+01 
  32842.8789     0.67918E+01 
  32875.1410     0.68726E+01 
  32907.4032     0.69540E+01 
  32939.6654     0.70360E+01 
  32971.9275     0.71186E+01 
  33004.1897     0.72018E+01 
  33036.4518     0.72857E+01 
  33068.7140     0.73701E+01 
  33100.9762     0.74551E+01 
  33133.2383     0.75407E+01 
  33165.5005     0.76270E+01 
  33197.7626     0.77138E+01 
  33230.0248     0.78012E+01 
  33262.2870     0.78893E+01 
  33294.5491     0.79779E+01 
  33326.8113     0.80671E+01 
  33359.0734     0.81569E+01 
  33391.3356     0.82473E+01 
  33423.5978     0.83383E+01 
  33455.8599     0.84298E+01 
  33488.1221     0.85220E+01 
  33520.3842     0.86147E+01 
  33552.6464     0.87080E+01 
  33584.9086     0.88019E+01 
  33617.1707     0.88964E+01 
  33649.4329     0.89914E+01 
  33681.6950     0.90870E+01 
  33713.9572     0.91832E+01 
  33746.2194     0.92799E+01 
  33778.4815     0.93772E+01 
  33810.7437     0.94750E+01 
  33843.0058     0.95734E+01 
  33875.2680     0.96723E+01 
  33907.5302     0.97718E+01 
  33939.7923     0.98719E+01 
  33972.0545     0.99724E+01 
  34004.3166     0.10074E+02 
  34036.5788     0.10175E+02 
  34068.8410     0.10277E+02 
  34101.1031     0.10380E+02 
  34133.3653     0.10483E+02 
  34165.6274     0.10587E+02 
  34197.8896     0.10691E+02 
  34230.1518     0.10796E+02 
  34262.4139     0.10901E+02 
  34294.6761     0.11007E+02 
  34326.9382     0.11113E+02 
  34359.2004     0.11220E+02 
  34391.4626     0.11327E+02 
  34423.7247     0.11435E+02 
  34455.9869     0.11543E+02 
  34488.2490     0.11652E+02 
  34520.5112     0.11761E+02 
  34552.7734     0.11870E+02 
  34585.0355     0.11980E+02 
  34617.2977     0.12091E+02 
  34649.5598     0.12202E+02 
  34681.8220     0.12313E+02 
  34714.0842     0.12425E+02 
  34746.3463     0.12537E+02 
  34778.6085     0.12650E+02 
  34810.8706     0.12763E+02 
  34843.1328     0.12876E+02 
  34875.3950     0.12990E+02 
  34907.6571     0.13104E+02 
  34939.9193     0.13219E+02 
  34972.1814     0.13334E+02 
  35004.4436     0.13449E+02 
  35036.7058     0.13565E+02 
  35068.9679     0.13681E+02 
  35101.2301     0.13798E+02 
  35133.4922     0.13915E+02 
  35165.7544     0.14032E+02 
  35198.0166     0.14150E+02 
  35230.2787     0.14267E+02 
  35262.5409     0.14386E+02 
  35294.8030     0.14504E+02 
  35327.0652     0.14623E+02 
  35359.3274     0.14742E+02 
  35391.5895     0.14861E+02 
  35423.8517     0.14981E+02 
  35456.1138     0.15101E+02 
  35488.3760     0.15221E+02 
  35520.6382     0.15342E+02 
  35552.9003     0.15463E+02 
  35585.1625     0.15584E+02 
  35617.4246     0.15705E+02 
  35649.6868     0.15827E+02 
  35681.9490     0.15948E+02 
  35714.2111     0.16070E+02 
  35746.4733     0.16192E+02 
  35778.7354     0.16315E+02 
  35810.9976     0.16437E+02 
  35843.2598     0.16560E+02 
  35875.5219     0.16683E+02 
  35907.7841     0.16806E+02 
  35940.0462     0.16929E+02 
  35972.3084     0.17053E+02 
  36004.5706     0.17176E+02 
  36036.8327     0.17300E+02 
  36069.0949     0.17424E+02 
  36101.3570     0.17548E+02 
  36133.6192     0.17672E+02 
  36165.8814     0.17796E+02 
  36198.1435     0.17920E+02 
  36230.4057     0.18045E+02 
  36262.6678     0.18169E+02 
  36294.9300     0.18293E+02 
  36327.1922     0.18418E+02 
  36359.4543     0.18543E+02 
  36391.7165     0.18667E+02 
  36423.9786     0.18792E+02 
  36456.2408     0.18916E+02 
  36488.5030     0.19041E+02 
  36520.7651     0.19166E+02 
  36553.0273     0.19290E+02 
  36585.2894     0.19415E+02 
  36617.5516     0.19540E+02 
  36649.8138     0.19664E+02 
  36682.0759     0.19789E+02 
  36714.3381     0.19913E+02 
  36746.6002     0.20038E+02 
  36778.8624     0.20162E+02 
  36811.1246     0.20286E+02 
  36843.3867     0.20411E+02 
  36875.6489     0.20535E+02 
  36907.9110     0.20659E+02 
  36940.1732     0.20782E+02 
  36972.4354     0.20906E+02 
  37004.6975     0.21030E+02 
  37036.9597     0.21153E+02 
  37069.2218     0.21276E+02 
  37101.4840     0.21400E+02 
  37133.7462     0.21522E+02 
  37166.0083     0.21645E+02 
  37198.2705     0.21768E+02 
  37230.5326     0.21890E+02 
  37262.7948     0.22012E+02 
  37295.0570     0.22134E+02 
  37327.3191     0.22256E+02 
  37359.5813     0.22377E+02 
  37391.8434     0.22498E+02 
  37424.1056     0.22619E+02 
  37456.3678     0.22740E+02 
  37488.6299     0.22860E+02 
  37520.8921     0.22980E+02 
  37553.1542     0.23100E+02 
  37585.4164     0.23220E+02 
  37617.6786     0.23339E+02 
  37649.9407     0.23458E+02 
  37682.2029     0.23576E+02 
  37714.4650     0.23694E+02 
  37746.7272     0.23812E+02 
  37778.9894     0.23929E+02 
  37811.2515     0.24046E+02 
  37843.5137     0.24163E+02 
  37875.7758     0.24279E+02 
  37908.0380     0.24395E+02 
  37940.3002     0.24511E+02 
  37972.5623     0.24626E+02 
  38004.8245     0.24740E+02 
  38037.0866     0.24854E+02 
  38069.3488     0.24968E+02 
  38101.6110     0.25081E+02 
  38133.8731     0.25194E+02 
  38166.1353     0.25306E+02 
  38198.3974     0.25418E+02 
  38230.6596     0.25529E+02 
  38262.9218     0.25640E+02 
  38295.1839     0.25750E+02 
  38327.4461     0.25860E+02 
  38359.7082     0.25969E+02 
  38391.9704     0.26078E+02 
  38424.2326     0.26186E+02 
  38456.4947     0.26294E+02 
  38488.7569     0.26401E+02 
  38521.0190     0.26507E+02 
  38553.2812     0.26613E+02 
  38585.5434     0.26718E+02 
  38617.8055     0.26823E+02 
  38650.0677     0.26927E+02 
  38682.3298     0.27030E+02 
  38714.5920     0.27133E+02 
  38746.8542     0.27235E+02 
  38779.1163     0.27337E+02 
  38811.3785     0.27438E+02 
  38843.6406     0.27538E+02 
  38875.9028     0.27638E+02 
  38908.1650     0.27737E+02 
  38940.4271     0.27835E+02 
  38972.6893     0.27932E+02 
  39004.9514     0.28029E+02 
  39037.2136     0.28125E+02 
  39069.4758     0.28221E+02 
  39101.7379     0.28316E+02 
  39134.0001     0.28410E+02 
  39166.2622     0.28503E+02 
  39198.5244     0.28595E+02 
  39230.7866     0.28687E+02 
  39263.0487     0.28778E+02 
  39295.3109     0.28868E+02 
  39327.5730     0.28958E+02 
  39359.8352     0.29047E+02 
  39392.0974     0.29135E+02 
  39424.3595     0.29222E+02 
  39456.6217     0.29308E+02 
  39488.8838     0.29394E+02 
  39521.1460     0.29478E+02 
  39553.4082     0.29562E+02 
  39585.6703     0.29645E+02 
  39617.9325     0.29728E+02 
  39650.1946     0.29809E+02 
  39682.4568     0.29890E+02 
  39714.7190     0.29969E+02 
  39746.9811     0.30048E+02 
  39779.2433     0.30126E+02 
  39811.5054     0.30204E+02 
  39843.7676     0.30280E+02 
  39876.0298     0.30355E+02 
  39908.2919     0.30430E+02 
  39940.5541     0.30504E+02 
  39972.8162     0.30577E+02 
  40005.0784     0.30649E+02 
  40037.3406     0.30720E+02 
  40069.6027     0.30790E+02 
  40101.8649     0.30859E+02 
  40134.1270     0.30927E+02 
  40166.3892     0.30995E+02 
  40198.6514     0.31061E+02 
  40230.9135     0.31127E+02 
  40263.1757     0.31191E+02 
  40295.4378     0.31255E+02 
  40327.7000     0.31318E+02 
  40359.9622     0.31379E+02 
  40392.2243     0.31440E+02 
  40424.4865     0.31500E+02 
  40456.7486     0.31559E+02 
  40489.0108     0.31617E+02 
  40521.2730     0.31674E+02 
  40553.5351     0.31730E+02 
  40585.7973     0.31785E+02 
  40618.0594     0.31839E+02 
  40650.3216     0.31892E+02 
  40682.5838     0.31944E+02 
  40714.8459     0.31996E+02 
  40747.1081     0.32046E+02 
  40779.3702     0.32095E+02 
  40811.6324     0.32143E+02 
  40843.8946     0.32190E+02 
  40876.1567     0.32237E+02 
  40908.4189     0.32282E+02 
  40940.6810     0.32326E+02 
  40972.9432     0.32369E+02 
  41005.2054     0.32412E+02 
  41037.4675     0.32453E+02 
  41069.7297     0.32493E+02 
  41101.9918     0.32532E+02 
  41134.2540     0.32570E+02 
  41166.5162     0.32607E+02 
  41198.7783     0.32644E+02 
  41231.0405     0.32679E+02 
  41263.3026     0.32713E+02 
  41295.5648     0.32746E+02 
  41327.8270     0.32778E+02 
  41360.0891     0.32809E+02 
  41392.3513     0.32839E+02 
  41424.6134     0.32868E+02 
  41456.8756     0.32896E+02 
  41489.1378     0.32923E+02 
  41521.3999     0.32949E+02 
  41553.6621     0.32974E+02 
  41585.9242     0.32998E+02 
  41618.1864     0.33021E+02 
  41650.4486     0.33042E+02 
  41682.7107     0.33063E+02 
  41714.9729     0.33083E+02 
  41747.2350     0.33102E+02 
  41779.4972     0.33119E+02 
  41811.7594     0.33136E+02 
  41844.0215     0.33152E+02 
  41876.2837     0.33166E+02 
  41908.5458     0.33180E+02 
  41940.8080     0.33193E+02 
  41973.0702     0.33204E+02 
  42005.3323     0.33215E+02 
  42037.5945     0.33224E+02 
  42069.8566     0.33233E+02 
  42102.1188     0.33240E+02 
  42134.3810     0.33247E+02 
  42166.6431     0.33252E+02 
  42198.9053     0.33257E+02 
  42231.1674     0.33260E+02 
  42263.4296     0.33263E+02 
  42295.6918     0.33264E+02 
  42327.9539     0.33265E+02 
  42360.2161     0.33264E+02 
  42392.4782     0.33262E+02 
  42424.7404     0.33260E+02 
  42457.0026     0.33256E+02 
  42489.2647     0.33252E+02 
  42521.5269     0.33246E+02 
  42553.7890     0.33240E+02 
  42586.0512     0.33232E+02 
  42618.3134     0.33223E+02 
  42650.5755     0.33214E+02 
  42682.8377     0.33203E+02 
  42715.0998     0.33192E+02 
  42747.3620     0.33179E+02 
  42779.6242     0.33166E+02 
  42811.8863     0.33152E+02 
  42844.1485     0.33136E+02 
  42876.4106     0.33120E+02 
  42908.6728     0.33103E+02 
  42940.9350     0.33084E+02 
  42973.1971     0.33065E+02 
  43005.4593     0.33045E+02 
  43037.7214     0.33024E+02 
  43069.9836     0.33002E+02 
  43102.2458     0.32979E+02 
  43134.5079     0.32955E+02 
  43166.7701     0.32930E+02 
  43199.0322     0.32904E+02 
  43231.2944     0.32878E+02 
  43263.5566     0.32850E+02 
  43295.8187     0.32822E+02 
  43328.0809     0.32792E+02 
  43360.3430     0.32762E+02 
  43392.6052     0.32731E+02 
  43424.8674     0.32698E+02 
  43457.1295     0.32665E+02 
  43489.3917     0.32631E+02 
  43521.6538     0.32597E+02 
  43553.9160     0.32561E+02 
  43586.1782     0.32524E+02 
  43618.4403     0.32487E+02 
  43650.7025     0.32449E+02 
  43682.9646     0.32409E+02 
  43715.2268     0.32369E+02 
  43747.4890     0.32328E+02 
  43779.7511     0.32287E+02 
  43812.0133     0.32244E+02 
  43844.2754     0.32201E+02 
  43876.5376     0.32157E+02 
  43908.7998     0.32111E+02 
  43941.0619     0.32066E+02 
  43973.3241     0.32019E+02 
  44005.5862     0.31971E+02 
  44037.8484     0.31923E+02 
  44070.1106     0.31874E+02 
  44102.3727     0.31824E+02 
  44134.6349     0.31773E+02 
  44166.8970     0.31722E+02 
  44199.1592     0.31670E+02 
  44231.4214     0.31617E+02 
  44263.6835     0.31563E+02 
  44295.9457     0.31508E+02 
  44328.2078     0.31453E+02 
  44360.4700     0.31397E+02 
  44392.7322     0.31340E+02 
  44424.9943     0.31283E+02 
  44457.2565     0.31225E+02 
  44489.5186     0.31166E+02 
  44521.7808     0.31106E+02 
  44554.0430     0.31046E+02 
  44586.3051     0.30984E+02 
  44618.5673     0.30923E+02 
  44650.8294     0.30860E+02 
  44683.0916     0.30797E+02 
  44715.3538     0.30733E+02 
  44747.6159     0.30669E+02 
  44779.8781     0.30603E+02 
  44812.1402     0.30538E+02 
  44844.4024     0.30471E+02 
  44876.6646     0.30404E+02 
  44908.9267     0.30336E+02 
  44941.1889     0.30268E+02 
  44973.4510     0.30198E+02 
  45005.7132     0.30129E+02 
  45037.9754     0.30058E+02 
  45070.2375     0.29988E+02 
  45102.4997     0.29916E+02 
  45134.7618     0.29844E+02 
  45167.0240     0.29771E+02 
  45199.2862     0.29698E+02 
  45231.5483     0.29624E+02 
  45263.8105     0.29549E+02 
  45296.0726     0.29474E+02 
  45328.3348     0.29399E+02 
  45360.5970     0.29323E+02 
  45392.8591     0.29246E+02 
  45425.1213     0.29169E+02 
  45457.3834     0.29091E+02 
  45489.6456     0.29013E+02 
  45521.9078     0.28934E+02 
  45554.1699     0.28855E+02 
  45586.4321     0.28775E+02 
  45618.6942     0.28694E+02 
  45650.9564     0.28614E+02 
  45683.2186     0.28532E+02 
  45715.4807     0.28451E+02 
  45747.7429     0.28368E+02 
  45780.0050     0.28286E+02 
  45812.2672     0.28202E+02 
  45844.5294     0.28119E+02 
  45876.7915     0.28035E+02 
  45909.0537     0.27950E+02 
  45941.3158     0.27865E+02 
  45973.5780     0.27780E+02 
  46005.8402     0.27694E+02 
  46038.1023     0.27608E+02 
  46070.3645     0.27521E+02 
  46102.6266     0.27434E+02 
  46134.8888     0.27347E+02 
  46167.1510     0.27259E+02 
  46199.4131     0.27171E+02 
  46231.6753     0.27082E+02 
  46263.9374     0.26993E+02 
  46296.1996     0.26904E+02 
  46328.4618     0.26814E+02 
  46360.7239     0.26724E+02 
  46392.9861     0.26634E+02 
  46425.2482     0.26543E+02 
  46457.5104     0.26452E+02 
  46489.7726     0.26361E+02 
  46522.0347     0.26270E+02 
  46554.2969     0.26178E+02 
  46586.5590     0.26085E+02 
  46618.8212     0.25993E+02 
  46651.0834     0.25900E+02 
  46683.3455     0.25807E+02 
  46715.6077     0.25714E+02 
  46747.8698     0.25620E+02 
  46780.1320     0.25526E+02 
  46812.3942     0.25432E+02 
  46844.6563     0.25337E+02 
  46876.9185     0.25243E+02 
  46909.1806     0.25148E+02 
  46941.4428     0.25053E+02 
  46973.7050     0.24957E+02 
  47005.9671     0.24862E+02 
  47038.2293     0.24766E+02 
  47070.4914     0.24670E+02 
  47102.7536     0.24574E+02 
  47135.0158     0.24477E+02 
  47167.2779     0.24381E+02 
  47199.5401     0.24284E+02 
  47231.8022     0.24187E+02 
  47264.0644     0.24090E+02 
  47296.3266     0.23993E+02 
  47328.5887     0.23895E+02 
  47360.8509     0.23798E+02 
  47393.1130     0.23700E+02 
  47425.3752     0.23602E+02 
  47457.6374     0.23504E+02 
  47489.8995     0.23406E+02 
  47522.1617     0.23308E+02 
  47554.4238     0.23209E+02 
  47586.6860     0.23111E+02 
  47618.9482     0.23012E+02 
  47651.2103     0.22914E+02 
  47683.4725     0.22815E+02 
  47715.7346     0.22716E+02 
  47747.9968     0.22617E+02 
  47780.2590     0.22518E+02 
  47812.5211     0.22419E+02 
  47844.7833     0.22320E+02 
  47877.0454     0.22220E+02 
  47909.3076     0.22121E+02 
  47941.5698     0.22022E+02 
  47973.8319     0.21922E+02 
  48006.0941     0.21823E+02 
  48038.3562     0.21723E+02 
  48070.6184     0.21624E+02 
  48102.8806     0.21524E+02 
  48135.1427     0.21425E+02 
  48167.4049     0.21325E+02 
  48199.6670     0.21226E+02 
  48231.9292     0.21126E+02 
  48264.1914     0.21027E+02 
  48296.4535     0.20927E+02 
  48328.7157     0.20827E+02 
  48360.9778     0.20728E+02 
  48393.2400     0.20628E+02 
  48425.5022     0.20529E+02 
  48457.7643     0.20429E+02 
  48490.0265     0.20330E+02 
  48522.2886     0.20231E+02 
  48554.5508     0.20131E+02 
  48586.8130     0.20032E+02 
  48619.0751     0.19933E+02 
  48651.3373     0.19833E+02 
  48683.5994     0.19734E+02 
  48715.8616     0.19635E+02 
  48748.1238     0.19536E+02 
  48780.3859     0.19437E+02 
  48812.6481     0.19338E+02 
  48844.9102     0.19240E+02 
  48877.1724     0.19141E+02 
  48909.4346     0.19042E+02 
  48941.6967     0.18944E+02 
  48973.9589     0.18845E+02 
  49006.2210     0.18747E+02 
  49038.4832     0.18649E+02 
  49070.7454     0.18551E+02 
  49103.0075     0.18453E+02 
  49135.2697     0.18355E+02 
  49167.5318     0.18257E+02 
  49199.7940     0.18160E+02 
  49232.0562     0.18062E+02 
  49264.3183     0.17965E+02 
  49296.5805     0.17868E+02 
  49328.8426     0.17771E+02 
  49361.1048     0.17674E+02 
  49393.3670     0.17577E+02 
  49425.6291     0.17481E+02 
  49457.8913     0.17384E+02 
  49490.1534     0.17288E+02 
  49522.4156     0.17192E+02 
  49554.6778     0.17096E+02 
  49586.9399     0.17000E+02 
  49619.2021     0.16905E+02 
  49651.4642     0.16809E+02 
  49683.7264     0.16714E+02 
  49715.9886     0.16619E+02 
  49748.2507     0.16524E+02 
  49780.5129     0.16430E+02 
  49812.7750     0.16335E+02 
  49845.0372     0.16241E+02 
  49877.2994     0.16147E+02 
  49909.5615     0.16053E+02 
  49941.8237     0.15960E+02 
  49974.0858     0.15866E+02 
  50006.3480     0.15773E+02 
  50038.6102     0.15680E+02 
  50070.8723     0.15587E+02 
  50103.1345     0.15495E+02 
  50135.3966     0.15402E+02 
  50167.6588     0.15310E+02 
  50199.9210     0.15218E+02 
  50232.1831     0.15127E+02 
  50264.4453     0.15035E+02 
  50296.7074     0.14944E+02 
  50328.9696     0.14853E+02 
  50361.2318     0.14762E+02 
  50393.4939     0.14672E+02 
  50425.7561     0.14582E+02 
  50458.0182     0.14492E+02 
  50490.2804     0.14402E+02 
  50522.5426     0.14313E+02 
  50554.8047     0.14224E+02 
  50587.0669     0.14135E+02 
  50619.3290     0.14046E+02 
  50651.5912     0.13957E+02 
  50683.8534     0.13869E+02 
  50716.1155     0.13781E+02 
  50748.3777     0.13694E+02 
  50780.6398     0.13606E+02 
  50812.9020     0.13519E+02 
  50845.1642     0.13433E+02 
  50877.4263     0.13346E+02 
  50909.6885     0.13260E+02 
  50941.9506     0.13174E+02 
  50974.2128     0.13088E+02 
  51006.4750     0.13003E+02 
  51038.7371     0.12918E+02 
  51070.9993     0.12833E+02 
  51103.2614     0.12748E+02 
  51135.5236     0.12664E+02 
  51167.7858     0.12580E+02 
  51200.0479     0.12496E+02 
  51232.3101     0.12413E+02 
  51264.5722     0.12330E+02 
  51296.8344     0.12247E+02 
  51329.0966     0.12165E+02 
  51361.3587     0.12082E+02 
  51393.6209     0.12001E+02 
  51425.8830     0.11919E+02 
  51458.1452     0.11838E+02 
  51490.4074     0.11757E+02 
  51522.6695     0.11676E+02 
  51554.9317     0.11596E+02 
  51587.1938     0.11516E+02 
  51619.4560     0.11436E+02 
  51651.7182     0.11356E+02 
  51683.9803     0.11277E+02 
  51716.2425     0.11198E+02 
  51748.5046     0.11120E+02 
  51780.7668     0.11042E+02 
  51813.0290     0.10964E+02 
  51845.2911     0.10886E+02 
  51877.5533     0.10809E+02 
  51909.8154     0.10732E+02 
  51942.0776     0.10655E+02 
  51974.3398     0.10579E+02 
  52006.6019     0.10503E+02 
  52038.8641     0.10428E+02 
  52071.1262     0.10352E+02 
  52103.3884     0.10277E+02 
  52135.6506     0.10203E+02 
  52167.9127     0.10128E+02 
  52200.1749     0.10054E+02 
  52232.4370     0.99804E+01 
  52264.6992     0.99070E+01 
  52296.9614     0.98339E+01 
  52329.2235     0.97612E+01 
  52361.4857     0.96888E+01 
  52393.7478     0.96167E+01 
  52426.0100     0.95449E+01 
  52458.2722     0.94735E+01 
  52490.5343     0.94023E+01 
  52522.7965     0.93316E+01 
  52555.0586     0.92611E+01 
  52587.3208     0.91910E+01 
  52619.5830     0.91212E+01 
  52651.8451     0.90517E+01 
  52684.1073     0.89825E+01 
  52716.3694     0.89137E+01 
  52748.6316     0.88452E+01 
  52780.8938     0.87770E+01 
  52813.1559     0.87092E+01 
  52845.4181     0.86417E+01 
  52877.6802     0.85745E+01 
  52909.9424     0.85077E+01 
  52942.2046     0.84412E+01 
  52974.4667     0.83750E+01 
  53006.7289     0.83091E+01 
  53038.9910     0.82436E+01 
  53071.2532     0.81784E+01 
  53103.5154     0.81135E+01 
  53135.7775     0.80489E+01 
  53168.0397     0.79847E+01 
  53200.3018     0.79208E+01 
  53232.5640     0.78573E+01 
  53264.8262     0.77940E+01 
  53297.0883     0.77311E+01 
  53329.3505     0.76685E+01 
  53361.6126     0.76063E+01 
  53393.8748     0.75443E+01 
  53426.1370     0.74827E+01 
  53458.3991     0.74215E+01 
  53490.6613     0.73605E+01 
  53522.9234     0.72999E+01 
  53555.1856     0.72396E+01 
  53587.4478     0.71796E+01 
  53619.7099     0.71200E+01 
  53651.9721     0.70606E+01 
  53684.2342     0.70016E+01 
  53716.4964     0.69429E+01 
  53748.7586     0.68846E+01 
  53781.0207     0.68265E+01 
  53813.2829     0.67688E+01 
  53845.5450     0.67114E+01 
  53877.8072     0.66543E+01 
  53910.0694     0.65976E+01 
  53942.3315     0.65411E+01 
  53974.5937     0.64850E+01 
  54006.8558     0.64292E+01 
  54039.1180     0.63737E+01 
  54071.3802     0.63185E+01 
  54103.6423     0.62637E+01 
  54135.9045     0.62091E+01 
  54168.1666     0.61549E+01 
  54200.4288     0.61010E+01 
  54232.6910     0.60474E+01 
  54264.9531     0.59941E+01 
  54297.2153     0.59411E+01 
  54329.4774     0.58885E+01 
  54361.7396     0.58361E+01 
  54394.0018     0.57841E+01 
  54426.2639     0.57324E+01 
  54458.5261     0.56809E+01 
  54490.7882     0.56298E+01 
  54523.0504     0.55790E+01 
  54555.3126     0.55285E+01 
  54587.5747     0.54783E+01 
  54619.8369     0.54284E+01 
  54652.0990     0.53788E+01 
  54684.3612     0.53295E+01 
  54716.6234     0.52805E+01 
  54748.8855     0.52318E+01 
  54781.1477     0.51834E+01 
  54813.4098     0.51353E+01 
  54845.6720     0.50875E+01 
  54877.9342     0.50400E+01 
  54910.1963     0.49928E+01 
  54942.4585     0.49459E+01 
  54974.7206     0.48993E+01 
  55006.9828     0.48530E+01 
  55039.2450     0.48070E+01 
  55071.5071     0.47613E+01 
  55103.7693     0.47158E+01 
  55136.0314     0.46707E+01 
  55168.2936     0.46258E+01 
  55200.5558     0.45812E+01 
  55232.8179     0.45369E+01 
  55265.0801     0.44929E+01 
  55297.3422     0.44492E+01 
  55329.6044     0.44058E+01 
  55361.8666     0.43626E+01 
  55394.1287     0.43198E+01 
  55426.3909     0.42772E+01 
  55458.6530     0.42349E+01 
  55490.9152     0.41928E+01 
  55523.1774     0.41511E+01 
  55555.4395     0.41096E+01 
  55587.7017     0.40684E+01 
  55619.9638     0.40275E+01 
  55652.2260     0.39868E+01 
  55684.4882     0.39464E+01 
  55716.7503     0.39063E+01 
  55749.0125     0.38665E+01 
  55781.2746     0.38269E+01 
  55813.5368     0.37876E+01 
  55845.7990     0.37486E+01 
  55878.0611     0.37098E+01 
  55910.3233     0.36713E+01 
  55942.5854     0.36331E+01 
  55974.8476     0.35951E+01 
  56007.1098     0.35574E+01 
  56039.3719     0.35200E+01 
  56071.6341     0.34828E+01 
  56103.8962     0.34458E+01 
  56136.1584     0.34092E+01 
  56168.4206     0.33727E+01 
  56200.6827     0.33366E+01 
  56232.9449     0.33007E+01 
  56265.2070     0.32650E+01 
  56297.4692     0.32296E+01 
  56329.7314     0.31945E+01 
  56361.9935     0.31596E+01 
  56394.2557     0.31249E+01 
  56426.5178     0.30905E+01 
  56458.7800     0.30564E+01 
  56491.0422     0.30224E+01 
  56523.3043     0.29888E+01 
  56555.5665     0.29554E+01 
  56587.8286     0.29222E+01 
  56620.0908     0.28892E+01 
  56652.3530     0.28565E+01 
  56684.6151     0.28241E+01 
  56716.8773     0.27919E+01 
  56749.1394     0.27599E+01 
  56781.4016     0.27281E+01 
  56813.6638     0.26966E+01 
  56845.9259     0.26653E+01 
  56878.1881     0.26343E+01 
  56910.4502     0.26035E+01 
  56942.7124     0.25729E+01 
  56974.9746     0.25425E+01 
  57007.2367     0.25124E+01 
  57039.4989     0.24825E+01 
  57071.7610     0.24529E+01 
  57104.0232     0.24234E+01 
  57136.2854     0.23942E+01 
  57168.5475     0.23652E+01 
  57200.8097     0.23364E+01 
  57233.0718     0.23079E+01 
  57265.3340     0.22795E+01 
  57297.5962     0.22514E+01 
  57329.8583     0.22235E+01 
  57362.1205     0.21958E+01 
  57394.3826     0.21684E+01 
  57426.6448     0.21411E+01 
  57458.9070     0.21141E+01 
  57491.1691     0.20873E+01 
  57523.4313     0.20606E+01 
  57555.6934     0.20342E+01 
  57587.9556     0.20081E+01 
  57620.2178     0.19821E+01 
  57652.4799     0.19563E+01 
  57684.7421     0.19307E+01 
  57717.0042     0.19054E+01 
  57749.2664     0.18802E+01 
  57781.5286     0.18553E+01 
  57813.7907     0.18305E+01 
  57846.0529     0.18060E+01 
  57878.3150     0.17816E+01 
  57910.5772     0.17575E+01 
  57942.8394     0.17335E+01 
  57975.1015     0.17098E+01 
  58007.3637     0.16862E+01 
  58039.6258     0.16629E+01 
  58071.8880     0.16397E+01 
  58104.1502     0.16167E+01 
  58136.4123     0.15939E+01 
  58168.6745     0.15714E+01 
  58200.9366     0.15490E+01 
  58233.1988     0.15268E+01 
  58265.4610     0.15048E+01 
  58297.7231     0.14829E+01 
  58329.9853     0.14613E+01 
  58362.2474     0.14399E+01 
  58394.5096     0.14186E+01 
  58426.7718     0.13975E+01 
  58459.0339     0.13766E+01 
  58491.2961     0.13559E+01 
  58523.5582     0.13354E+01 
  58555.8204     0.13151E+01 
  58588.0826     0.12949E+01 
  58620.3447     0.12749E+01 
  58652.6069     0.12551E+01 
  58684.8690     0.12355E+01 
  58717.1312     0.12161E+01 
  58749.3934     0.11968E+01 
  58781.6555     0.11777E+01 
  58813.9177     0.11588E+01 
  58846.1798     0.11401E+01 
  58878.4420     0.11215E+01 
  58910.7042     0.11031E+01 
  58942.9663     0.10849E+01 
  58975.2285     0.10668E+01 
  59007.4906     0.10490E+01 
  59039.7528     0.10312E+01 
  59072.0150     0.10137E+01 
  59104.2771     0.99634E+00 
  59136.5393     0.97914E+00 
  59168.8014     0.96211E+00 
  59201.0636     0.94525E+00 
  59233.3258     0.92855E+00 
  59265.5879     0.91201E+00 
  59297.8501     0.89565E+00 
  59330.1122     0.87945E+00 
  59362.3744     0.86341E+00 
  59394.6366     0.84753E+00 
  59426.8987     0.83182E+00 
  59459.1609     0.81627E+00 
  59491.4230     0.80088E+00 
  59523.6852     0.78565E+00 
  59555.9474     0.77058E+00 
  59588.2095     0.75568E+00 
  59620.4717     0.74093E+00 
  59652.7338     0.72634E+00 
  59684.9960     0.71191E+00 
  59717.2582     0.69763E+00 
  59749.5203     0.68352E+00 
  59781.7825     0.66956E+00 
  59814.0446     0.65576E+00 
  59846.3068     0.64211E+00 
  59878.5690     0.62862E+00 
  59910.8311     0.61529E+00 
  59943.0933     0.60211E+00 
  59975.3554     0.58908E+00 
  60007.6176     0.57621E+00 
  60039.8798     0.56349E+00 
  60072.1419     0.55093E+00 
  60104.4041     0.53852E+00 
  60136.6662     0.52626E+00 
  60168.9284     0.51415E+00 
  60201.1906     0.50220E+00 
  60233.4527     0.49040E+00 
  60265.7149     0.47875E+00 
  60297.9770     0.46725E+00 
  60330.2392     0.45590E+00 
  60362.5014     0.44470E+00 
  60394.7635     0.43366E+00 
  60427.0257     0.42276E+00 
  60459.2878     0.41202E+00 
  60491.5500     0.40142E+00 
  60523.8122     0.39098E+00 
  60556.0743     0.38068E+00 
  60588.3365     0.37054E+00 
  60620.5986     0.36054E+00 
  60652.8608     0.35070E+00 
  60685.1230     0.34101E+00 
  60717.3851     0.33146E+00 
  60749.6473     0.32206E+00 
  60781.9094     0.31282E+00 
  60814.1716     0.30372E+00 
  60846.4338     0.29478E+00 
  60878.6959     0.28598E+00 
  60910.9581     0.27734E+00 
  60943.2202     0.26884E+00 
  60975.4824     0.26049E+00 
  61007.7446     0.25230E+00 
  61040.0067     0.24425E+00 
  61072.2689     0.23636E+00 
  61104.5310     0.22862E+00 
  61136.7932     0.22103E+00 
  61169.0554     0.21359E+00 
  61201.3175     0.20630E+00 
  61233.5797     0.19916E+00 
  61265.8418     0.19218E+00 
  61298.1040     0.18535E+00 
  61330.3662     0.17867E+00 
  61362.6283     0.17215E+00 
  61394.8905     0.16578E+00 
  61427.1526     0.15956E+00 
  61459.4148     0.15350E+00 
  61491.6770     0.14760E+00 
  61523.9391     0.14185E+00 
  61556.2013     0.13626E+00 
  61588.4634     0.13083E+00 
  61620.7256     0.12555E+00 
  61652.9878     0.12043E+00 
  61685.2499     0.11547E+00 
  61717.5121     0.11067E+00 
  61749.7742     0.10604E+00 
  61782.0364     0.10156E+00 
  61814.2986     0.97245E-01 
  61846.5607     0.93094E-01 
  61878.8229     0.89106E-01 
  61911.0850     0.85284E-01 
  61943.3472     0.81627E-01 
  61975.6094     0.78138E-01 
  62007.8715     0.74816E-01 
  62040.1337     0.71663E-01 
  62072.3958     0.68680E-01 
  62104.6580     0.65868E-01 
  62136.9202     0.63228E-01 
  62169.1823     0.60762E-01 
  62201.4445     0.58470E-01 
  62233.7066     0.56355E-01 
  62265.9688     0.54416E-01 
  62298.2310     0.52657E-01 
  62330.4931     0.51077E-01 
  62362.7553     0.49679E-01 
  62395.0174     0.48464E-01 
  62427.2796     0.47433E-01 
  62459.5418     0.46588E-01 
  62491.8039     0.45932E-01 
  62524.0661     0.45464E-01 
  62556.3282     0.45188E-01 
  62588.5904     0.45105E-01 
  62620.8526     0.45216E-01 
  62653.1147     0.45524E-01 
  62685.3769     0.46030E-01 
  62717.6390     0.46737E-01 
  62749.9012     0.47646E-01 
  62782.1634     0.48761E-01 
  62814.4255     0.50081E-01 
  62846.6877     0.51611E-01 
  62878.9498     0.53352E-01 
  62911.2120     0.55306E-01 
  62943.4742     0.57477E-01 
  62975.7363     0.59865E-01 
  63007.9985     0.62475E-01 
  63040.2606     0.65308E-01 
  63072.5228     0.68366E-01 
  63104.7850     0.71654E-01 
  63137.0471     0.75173E-01 
  63169.3093     0.78926E-01 
  63201.5714     0.82917E-01 
  63233.8336     0.87147E-01 
  63266.0958     0.91621E-01 
  63298.3579     0.96341E-01 
  63330.6201     0.10131E+00 
  63362.8822     0.10653E+00 
  63395.1444     0.11201E+00 
  63427.4066     0.11775E+00 
  63459.6687     0.12375E+00 
  63491.9309     0.13002E+00 
  63524.1930     0.13656E+00 
  63556.4552     0.14337E+00 
  63588.7174     0.15046E+00 
  63620.9795     0.15783E+00 
  63653.2417     0.16549E+00 
  63685.5038     0.17343E+00 
  63717.7660     0.18168E+00 
  63750.0282     0.19022E+00 
  63782.2903     0.19906E+00 
  63814.5525     0.20821E+00 
  63846.8146     0.21767E+00 
  63879.0768     0.22745E+00 
  63911.3390     0.23755E+00 
  63943.6011     0.24798E+00 
  63975.8633     0.25873E+00 
  64008.1254     0.26983E+00 
  64040.3876     0.28126E+00 
  64072.6498     0.29305E+00 
  64104.9119     0.30518E+00 
  64137.1741     0.31767E+00 
  64169.4362     0.33053E+00 
  64201.6984     0.34376E+00 
  64233.9606     0.35736E+00 
  64266.2227     0.37134E+00 
  64298.4849     0.38572E+00 
  64330.7470     0.40048E+00 
  64363.0092     0.41565E+00 
  64395.2714     0.43122E+00 
  64427.5335     0.44721E+00 
  64459.7957     0.46361E+00 
  64492.0578     0.48045E+00 
  64524.3200     0.49772E+00 
  64556.5822     0.51543E+00 
  64588.8443     0.53360E+00 
  64621.1065     0.55222E+00 
  64653.3686     0.57130E+00 
  64685.6308     0.59086E+00 
  64717.8930     0.61090E+00 
  64750.1551     0.63142E+00 
  64782.4173     0.65245E+00 
  64814.6794     0.67398E+00 
  64846.9416     0.69603E+00 
  64879.2038     0.71860E+00 
  64911.4659     0.74170E+00 
  64943.7281     0.76534E+00 
  64975.9902     0.78954E+00 
  65008.2524     0.81430E+00 
  65040.5146     0.83963E+00 
  65072.7767     0.86554E+00 
  65105.0389     0.89204E+00 
  65137.3010     0.91914E+00 
  65169.5632     0.94685E+00 
  65201.8254     0.97519E+00 
  65234.0875     0.10042E+01 
  65266.3497     0.10338E+01 
  65298.6118     0.10640E+01 
  65330.8740     0.10950E+01 
  65363.1362     0.11266E+01 
  65395.3983     0.11589E+01 
  65427.6605     0.11919E+01 
  65459.9226     0.12257E+01 
  65492.1848     0.12601E+01 
  65524.4470     0.12953E+01 
  65556.7091     0.13313E+01 
  65588.9713     0.13680E+01 
  65621.2334     0.14055E+01 
  65653.4956     0.14438E+01 
  65685.7578     0.14829E+01 
  65718.0199     0.15229E+01 
  65750.2821     0.15636E+01 
  65782.5442     0.16053E+01 
  65814.8064     0.16478E+01 
  65847.0686     0.16911E+01 
  65879.3307     0.17354E+01 
  65911.5929     0.17806E+01 
  65943.8550     0.18268E+01 
  65976.1172     0.18738E+01 
  66008.3794     0.19219E+01 
  66040.6415     0.19709E+01 
  66072.9037     0.20209E+01 
  66105.1658     0.20720E+01 
  66137.4280     0.21241E+01 
  66169.6902     0.21772E+01 
  66201.9523     0.22314E+01 
  66234.2145     0.22867E+01 
  66266.4766     0.23431E+01 
  66298.7388     0.24006E+01 
  66331.0010     0.24593E+01 
  66363.2631     0.25192E+01 
  66395.5253     0.25802E+01 
  66427.7874     0.26424E+01 
  66460.0496     0.27059E+01 
  66492.3118     0.27707E+01 
  66524.5739     0.28367E+01 
  66556.8361     0.29040E+01 
  66589.0982     0.29726E+01 
  66621.3604     0.30425E+01 
  66653.6226     0.31139E+01 
  66685.8847     0.31866E+01 
  66718.1469     0.32607E+01 
  66750.4090     0.33362E+01 
  66782.6712     0.34132E+01 
  66814.9334     0.34917E+01 
  66847.1955     0.35717E+01 
  66879.4577     0.36533E+01 
  66911.7198     0.37364E+01 
  66943.9820     0.38211E+01 
  66976.2442     0.39073E+01 
  67008.5063     0.39953E+01 
  67040.7685     0.40849E+01 
  67073.0306     0.41762E+01 
  67105.2928     0.42692E+01 
  67137.5550     0.43640E+01 
  67169.8171     0.44605E+01 
  67202.0793     0.45589E+01 
  67234.3414     0.46590E+01 
  67266.6036     0.47611E+01 
  67298.8658     0.48651E+01 
  67331.1279     0.49710E+01 
  67363.3901     0.50788E+01 
  67395.6522     0.51886E+01 
  67427.9144     0.53005E+01 
  67460.1766     0.54144E+01 
  67492.4387     0.55305E+01 
  67524.7009     0.56486E+01 
  67556.9630     0.57689E+01 
  67589.2252     0.58914E+01 
  67621.4874     0.60161E+01 
  67653.7495     0.61430E+01 
  67686.0117     0.62723E+01 
  67718.2738     0.64039E+01 
  67750.5360     0.65378E+01 
  67782.7982     0.66742E+01 
  67815.0603     0.68130E+01 
  67847.3225     0.69543E+01 
  67879.5846     0.70981E+01 
  67911.8468     0.72444E+01 
  67944.1090     0.73934E+01 
  67976.3711     0.75450E+01 
  68008.6333     0.76992E+01 
  68040.8954     0.78562E+01 
  68073.1576     0.80159E+01 
  68105.4198     0.81784E+01 
  68137.6819     0.83437E+01 
  68169.9441     0.85119E+01 
  68202.2062     0.86830E+01 
  68234.4684     0.88571E+01 
  68266.7306     0.90342E+01 
  68298.9927     0.92143E+01 
  68331.2549     0.93976E+01 
  68363.5170     0.95839E+01 
  68395.7792     0.97735E+01 
  68428.0414     0.99662E+01 
  68460.3035     0.10162E+02 
  68492.5657     0.10362E+02 
  68524.8278     0.10564E+02 
  68557.0900     0.10770E+02 
  68589.3522     0.10980E+02 
  68621.6143     0.11193E+02 
  68653.8765     0.11410E+02 
  68686.1386     0.11630E+02 
  68718.4008     0.11854E+02 
  68750.6630     0.12081E+02 
  68782.9251     0.12313E+02 
  68815.1873     0.12548E+02 
  68847.4494     0.12787E+02 
  68879.7116     0.13029E+02 
  68911.9738     0.13276E+02 
  68944.2359     0.13527E+02 
  68976.4981     0.13782E+02 
  69008.7602     0.14041E+02 
  69041.0224     0.14304E+02 
  69073.2846     0.14571E+02 
  69105.5467     0.14843E+02 
  69137.8089     0.15119E+02 
  69170.0710     0.15399E+02 
  69202.3332     0.15684E+02 
  69234.5954     0.15973E+02 
  69266.8575     0.16267E+02 
  69299.1197     0.16565E+02 
  69331.3818     0.16868E+02 
  69363.6440     0.17175E+02 
  69395.9062     0.17488E+02 
  69428.1683     0.17805E+02 
  69460.4305     0.18127E+02 
  69492.6926     0.18454E+02 
  69524.9548     0.18786E+02 
  69557.2170     0.19123E+02 
  69589.4791     0.19465E+02 
  69621.7413     0.19812E+02 
  69654.0034     0.20165E+02 
  69686.2656     0.20523E+02 
  69718.5278     0.20886E+02 
  69750.7899     0.21254E+02 
  69783.0521     0.21628E+02 
  69815.3142     0.22008E+02 
  69847.5764     0.22393E+02 
  69879.8386     0.22783E+02 
  69912.1007     0.23180E+02 
  69944.3629     0.23582E+02 
  69976.6250     0.23990E+02 
  70008.8872     0.24404E+02 
  70041.1494     0.24823E+02 
  70073.4115     0.25249E+02 
  70105.6737     0.25681E+02 
  70137.9358     0.26119E+02 
  70170.1980     0.26563E+02 
  70202.4602     0.27013E+02 
  70234.7223     0.27470E+02 
  70266.9845     0.27933E+02 
  70299.2466     0.28402E+02 
  70331.5088     0.28878E+02 
  70363.7710     0.29360E+02 
  70396.0331     0.29850E+02 
  70428.2953     0.30345E+02 
  70460.5574     0.30848E+02 
  70492.8196     0.31357E+02 
  70525.0818     0.31873E+02 
  70557.3439     0.32396E+02 
  70589.6061     0.32926E+02 
  70621.8682     0.33463E+02 
  70654.1304     0.34007E+02 
  70686.3926     0.34559E+02 
  70718.6547     0.35117E+02 
  70750.9169     0.35683E+02 
  70783.1790     0.36256E+02 
  70815.4412     0.36837E+02 
  70847.7034     0.37425E+02 
  70879.9655     0.38020E+02 
  70912.2277     0.38624E+02 
  70944.4898     0.39234E+02 
  70976.7520     0.39853E+02 
  71009.0142     0.40479E+02 
  71041.2763     0.41113E+02 
  71073.5385     0.41755E+02 
  71105.8006     0.42405E+02 
  71138.0628     0.43063E+02 
  71170.3250     0.43729E+02 
  71202.5871     0.44404E+02 
  71234.8493     0.45086E+02 
  71267.1114     0.45776E+02 
  71299.3736     0.46475E+02 
  71331.6358     0.47182E+02 
  71363.8979     0.47898E+02 
  71396.1601     0.48622E+02 
  71428.4222     0.49355E+02 
  71460.6844     0.50096E+02 
  71492.9466     0.50846E+02 
  71525.2087     0.51604E+02 
  71557.4709     0.52371E+02 
  71589.7330     0.53147E+02 
  71621.9952     0.53932E+02 
  71654.2574     0.54726E+02 
  71686.5195     0.55528E+02 
  71718.7817     0.56340E+02 
  71751.0438     0.57160E+02 
  71783.3060     0.57990E+02 
  71815.5682     0.58829E+02 
  71847.8303     0.59677E+02 
  71880.0925     0.60534E+02 
  71912.3546     0.61401E+02 
  71944.6168     0.62277E+02 
  71976.8790     0.63162E+02 
  72009.1411     0.64057E+02 
  72041.4033     0.64961E+02 
  72073.6654     0.65874E+02 
  72105.9276     0.66797E+02 
  72138.1898     0.67730E+02 
  72170.4519     0.68672E+02 
  72202.7141     0.69624E+02 
  72234.9762     0.70586E+02 
  72267.2384     0.71557E+02 
  72299.5006     0.72539E+02 
  72331.7627     0.73530E+02 
  72364.0249     0.74530E+02 
  72396.2870     0.75541E+02 
  72428.5492     0.76562E+02 
  72460.8114     0.77592E+02 
  72493.0735     0.78633E+02 
  72525.3357     0.79683E+02 
  72557.5978     0.80744E+02 
  72589.8600     0.81815E+02 
