  32262.1600     0.26887E+02 
  32294.4222     0.27179E+02 
  32326.6843     0.27472E+02 
  32358.9465     0.27768E+02 
  32391.2086     0.28066E+02 
  32423.4708     0.28366E+02 
  32455.7330     0.28668E+02 
  32487.9951     0.28972E+02 
  32520.2573     0.29278E+02 
  32552.5194     0.29587E+02 
  32584.7816     0.29897E+02 
  32617.0438     0.30210E+02 
  32649.3059     0.30524E+02 
  32681.5681     0.30841E+02 
  32713.8302     0.31159E+02 
  32746.0924     0.31480E+02 
  32778.3546     0.31803E+02 
  32810.6167     0.32128E+02 
  32842.8789     0.32455E+02 
  32875.1410     0.32784E+02 
  32907.4032     0.33115E+02 
  32939.6654     0.33448E+02 
  32971.9275     0.33784E+02 
  33004.1897     0.34121E+02 
  33036.4518     0.34460E+02 
  33068.7140     0.34802E+02 
  33100.9762     0.35145E+02 
  33133.2383     0.35491E+02 
  33165.5005     0.35838E+02 
  33197.7626     0.36188E+02 
  33230.0248     0.36540E+02 
  33262.2870     0.36893E+02 
  33294.5491     0.37249E+02 
  33326.8113     0.37606E+02 
  33359.0734     0.37966E+02 
  33391.3356     0.38328E+02 
  33423.5978     0.38691E+02 
  33455.8599     0.39057E+02 
  33488.1221     0.39425E+02 
  33520.3842     0.39794E+02 
  33552.6464     0.40166E+02 
  33584.9086     0.40539E+02 
  33617.1707     0.40915E+02 
  33649.4329     0.41292E+02 
  33681.6950     0.41671E+02 
  33713.9572     0.42052E+02 
  33746.2194     0.42436E+02 
  33778.4815     0.42821E+02 
  33810.7437     0.43208E+02 
  33843.0058     0.43596E+02 
  33875.2680     0.43987E+02 
  33907.5302     0.44380E+02 
  33939.7923     0.44774E+02 
  33972.0545     0.45170E+02 
  34004.3166     0.45568E+02 
  34036.5788     0.45968E+02 
  34068.8410     0.46370E+02 
  34101.1031     0.46773E+02 
  34133.3653     0.47179E+02 
  34165.6274     0.47586E+02 
  34197.8896     0.47995E+02 
  34230.1518     0.48405E+02 
  34262.4139     0.48818E+02 
  34294.6761     0.49232E+02 
  34326.9382     0.49647E+02 
  34359.2004     0.50065E+02 
  34391.4626     0.50484E+02 
  34423.7247     0.50905E+02 
  34455.9869     0.51327E+02 
  34488.2490     0.51751E+02 
  34520.5112     0.52177E+02 
  34552.7734     0.52604E+02 
  34585.0355     0.53033E+02 
  34617.2977     0.53464E+02 
  34649.5598     0.53896E+02 
  34681.8220     0.54330E+02 
  34714.0842     0.54765E+02 
  34746.3463     0.55202E+02 
  34778.6085     0.55640E+02 
  34810.8706     0.56080E+02 
  34843.1328     0.56521E+02 
  34875.3950     0.56963E+02 
  34907.6571     0.57407E+02 
  34939.9193     0.57853E+02 
  34972.1814     0.58300E+02 
  35004.4436     0.58748E+02 
  35036.7058     0.59197E+02 
  35068.9679     0.59648E+02 
  35101.2301     0.60101E+02 
  35133.4922     0.60554E+02 
  35165.7544     0.61009E+02 
  35198.0166     0.61465E+02 
  35230.2787     0.61922E+02 
  35262.5409     0.62381E+02 
  35294.8030     0.62841E+02 
  35327.0652     0.63302E+02 
  35359.3274     0.63764E+02 
  35391.5895     0.64227E+02 
  35423.8517     0.64692E+02 
  35456.1138     0.65157E+02 
  35488.3760     0.65624E+02 
  35520.6382     0.66091E+02 
  35552.9003     0.66560E+02 
  35585.1625     0.67030E+02 
  35617.4246     0.67500E+02 
  35649.6868     0.67972E+02 
  35681.9490     0.68444E+02 
  35714.2111     0.68918E+02 
  35746.4733     0.69392E+02 
  35778.7354     0.69868E+02 
  35810.9976     0.70344E+02 
  35843.2598     0.70821E+02 
  35875.5219     0.71299E+02 
  35907.7841     0.71777E+02 
  35940.0462     0.72256E+02 
  35972.3084     0.72737E+02 
  36004.5706     0.73217E+02 
  36036.8327     0.73699E+02 
  36069.0949     0.74181E+02 
  36101.3570     0.74664E+02 
  36133.6192     0.75147E+02 
  36165.8814     0.75631E+02 
  36198.1435     0.76115E+02 
  36230.4057     0.76600E+02 
  36262.6678     0.77086E+02 
  36294.9300     0.77572E+02 
  36327.1922     0.78059E+02 
  36359.4543     0.78545E+02 
  36391.7165     0.79033E+02 
  36423.9786     0.79520E+02 
  36456.2408     0.80008E+02 
  36488.5030     0.80497E+02 
  36520.7651     0.80986E+02 
  36553.0273     0.81474E+02 
  36585.2894     0.81964E+02 
  36617.5516     0.82453E+02 
  36649.8138     0.82943E+02 
  36682.0759     0.83432E+02 
  36714.3381     0.83922E+02 
  36746.6002     0.84412E+02 
  36778.8624     0.84902E+02 
  36811.1246     0.85392E+02 
  36843.3867     0.85882E+02 
  36875.6489     0.86373E+02 
  36907.9110     0.86863E+02 
  36940.1732     0.87353E+02 
  36972.4354     0.87843E+02 
  37004.6975     0.88332E+02 
  37036.9597     0.88822E+02 
  37069.2218     0.89312E+02 
  37101.4840     0.89801E+02 
  37133.7462     0.90290E+02 
  37166.0083     0.90779E+02 
  37198.2705     0.91267E+02 
  37230.5326     0.91755E+02 
  37262.7948     0.92243E+02 
  37295.0570     0.92730E+02 
  37327.3191     0.93217E+02 
  37359.5813     0.93704E+02 
  37391.8434     0.94190E+02 
  37424.1056     0.94676E+02 
  37456.3678     0.95161E+02 
  37488.6299     0.95645E+02 
  37520.8921     0.96129E+02 
  37553.1542     0.96612E+02 
  37585.4164     0.97095E+02 
  37617.6786     0.97577E+02 
  37649.9407     0.98058E+02 
  37682.2029     0.98539E+02 
  37714.4650     0.99019E+02 
  37746.7272     0.99498E+02 
  37778.9894     0.99976E+02 
  37811.2515     0.10045E+03 
  37843.5137     0.10093E+03 
  37875.7758     0.10140E+03 
  37908.0380     0.10188E+03 
  37940.3002     0.10235E+03 
  37972.5623     0.10283E+03 
  38004.8245     0.10330E+03 
  38037.0866     0.10377E+03 
  38069.3488     0.10424E+03 
  38101.6110     0.10471E+03 
  38133.8731     0.10517E+03 
  38166.1353     0.10564E+03 
  38198.3974     0.10610E+03 
  38230.6596     0.10657E+03 
  38262.9218     0.10703E+03 
  38295.1839     0.10749E+03 
  38327.4461     0.10795E+03 
  38359.7082     0.10841E+03 
  38391.9704     0.10886E+03 
  38424.2326     0.10932E+03 
  38456.4947     0.10977E+03 
  38488.7569     0.11023E+03 
  38521.0190     0.11068E+03 
  38553.2812     0.11113E+03 
  38585.5434     0.11157E+03 
  38617.8055     0.11202E+03 
  38650.0677     0.11247E+03 
  38682.3298     0.11291E+03 
  38714.5920     0.11335E+03 
  38746.8542     0.11379E+03 
  38779.1163     0.11423E+03 
  38811.3785     0.11466E+03 
  38843.6406     0.11510E+03 
  38875.9028     0.11553E+03 
  38908.1650     0.11596E+03 
  38940.4271     0.11639E+03 
  38972.6893     0.11682E+03 
  39004.9514     0.11724E+03 
  39037.2136     0.11766E+03 
  39069.4758     0.11809E+03 
  39101.7379     0.11850E+03 
  39134.0001     0.11892E+03 
  39166.2622     0.11934E+03 
  39198.5244     0.11975E+03 
  39230.7866     0.12016E+03 
  39263.0487     0.12057E+03 
  39295.3109     0.12097E+03 
  39327.5730     0.12138E+03 
  39359.8352     0.12178E+03 
  39392.0974     0.12218E+03 
  39424.3595     0.12258E+03 
  39456.6217     0.12297E+03 
  39488.8838     0.12337E+03 
  39521.1460     0.12376E+03 
  39553.4082     0.12414E+03 
  39585.6703     0.12453E+03 
  39617.9325     0.12491E+03 
  39650.1946     0.12529E+03 
  39682.4568     0.12567E+03 
  39714.7190     0.12605E+03 
  39746.9811     0.12642E+03 
  39779.2433     0.12679E+03 
  39811.5054     0.12716E+03 
  39843.7676     0.12753E+03 
  39876.0298     0.12789E+03 
  39908.2919     0.12825E+03 
  39940.5541     0.12861E+03 
  39972.8162     0.12896E+03 
  40005.0784     0.12931E+03 
  40037.3406     0.12966E+03 
  40069.6027     0.13001E+03 
  40101.8649     0.13035E+03 
  40134.1270     0.13070E+03 
  40166.3892     0.13103E+03 
  40198.6514     0.13137E+03 
  40230.9135     0.13170E+03 
  40263.1757     0.13203E+03 
  40295.4378     0.13236E+03 
  40327.7000     0.13268E+03 
  40359.9622     0.13300E+03 
  40392.2243     0.13332E+03 
  40424.4865     0.13364E+03 
  40456.7486     0.13395E+03 
  40489.0108     0.13426E+03 
  40521.2730     0.13456E+03 
  40553.5351     0.13487E+03 
  40585.7973     0.13517E+03 
  40618.0594     0.13546E+03 
  40650.3216     0.13576E+03 
  40682.5838     0.13605E+03 
  40714.8459     0.13633E+03 
  40747.1081     0.13662E+03 
  40779.3702     0.13690E+03 
  40811.6324     0.13718E+03 
  40843.8946     0.13745E+03 
  40876.1567     0.13772E+03 
  40908.4189     0.13799E+03 
  40940.6810     0.13825E+03 
  40972.9432     0.13852E+03 
  41005.2054     0.13877E+03 
  41037.4675     0.13903E+03 
  41069.7297     0.13928E+03 
  41101.9918     0.13953E+03 
  41134.2540     0.13977E+03 
  41166.5162     0.14001E+03 
  41198.7783     0.14025E+03 
  41231.0405     0.14049E+03 
  41263.3026     0.14072E+03 
  41295.5648     0.14095E+03 
  41327.8270     0.14117E+03 
  41360.0891     0.14139E+03 
  41392.3513     0.14161E+03 
  41424.6134     0.14182E+03 
  41456.8756     0.14203E+03 
  41489.1378     0.14224E+03 
  41521.3999     0.14244E+03 
  41553.6621     0.14264E+03 
  41585.9242     0.14284E+03 
  41618.1864     0.14303E+03 
  41650.4486     0.14322E+03 
  41682.7107     0.14341E+03 
  41714.9729     0.14359E+03 
  41747.2350     0.14377E+03 
  41779.4972     0.14394E+03 
  41811.7594     0.14412E+03 
  41844.0215     0.14428E+03 
  41876.2837     0.14445E+03 
  41908.5458     0.14461E+03 
  41940.8080     0.14477E+03 
  41973.0702     0.14492E+03 
  42005.3323     0.14507E+03 
  42037.5945     0.14522E+03 
  42069.8566     0.14536E+03 
  42102.1188     0.14550E+03 
  42134.3810     0.14563E+03 
  42166.6431     0.14576E+03 
  42198.9053     0.14589E+03 
  42231.1674     0.14601E+03 
  42263.4296     0.14614E+03 
  42295.6918     0.14625E+03 
  42327.9539     0.14637E+03 
  42360.2161     0.14647E+03 
  42392.4782     0.14658E+03 
  42424.7404     0.14668E+03 
  42457.0026     0.14678E+03 
  42489.2647     0.14688E+03 
  42521.5269     0.14697E+03 
  42553.7890     0.14705E+03 
  42586.0512     0.14714E+03 
  42618.3134     0.14722E+03 
  42650.5755     0.14729E+03 
  42682.8377     0.14737E+03 
  42715.0998     0.14743E+03 
  42747.3620     0.14750E+03 
  42779.6242     0.14756E+03 
  42811.8863     0.14762E+03 
  42844.1485     0.14767E+03 
  42876.4106     0.14772E+03 
  42908.6728     0.14777E+03 
  42940.9350     0.14781E+03 
  42973.1971     0.14785E+03 
  43005.4593     0.14788E+03 
  43037.7214     0.14792E+03 
  43069.9836     0.14794E+03 
  43102.2458     0.14797E+03 
  43134.5079     0.14799E+03 
  43166.7701     0.14801E+03 
  43199.0322     0.14802E+03 
  43231.2944     0.14803E+03 
  43263.5566     0.14803E+03 
  43295.8187     0.14804E+03 
  43328.0809     0.14803E+03 
  43360.3430     0.14803E+03 
  43392.6052     0.14802E+03 
  43424.8674     0.14801E+03 
  43457.1295     0.14799E+03 
  43489.3917     0.14797E+03 
  43521.6538     0.14795E+03 
  43553.9160     0.14792E+03 
  43586.1782     0.14789E+03 
  43618.4403     0.14786E+03 
  43650.7025     0.14782E+03 
  43682.9646     0.14778E+03 
  43715.2268     0.14773E+03 
  43747.4890     0.14768E+03 
  43779.7511     0.14763E+03 
  43812.0133     0.14757E+03 
  43844.2754     0.14751E+03 
  43876.5376     0.14745E+03 
  43908.7998     0.14739E+03 
  43941.0619     0.14732E+03 
  43973.3241     0.14724E+03 
  44005.5862     0.14716E+03 
  44037.8484     0.14708E+03 
  44070.1106     0.14700E+03 
  44102.3727     0.14691E+03 
  44134.6349     0.14682E+03 
  44166.8970     0.14673E+03 
  44199.1592     0.14663E+03 
  44231.4214     0.14653E+03 
  44263.6835     0.14642E+03 
  44295.9457     0.14632E+03 
  44328.2078     0.14620E+03 
  44360.4700     0.14609E+03 
  44392.7322     0.14597E+03 
  44424.9943     0.14585E+03 
  44457.2565     0.14572E+03 
  44489.5186     0.14560E+03 
  44521.7808     0.14546E+03 
  44554.0430     0.14533E+03 
  44586.3051     0.14519E+03 
  44618.5673     0.14505E+03 
  44650.8294     0.14490E+03 
  44683.0916     0.14476E+03 
  44715.3538     0.14460E+03 
  44747.6159     0.14445E+03 
  44779.8781     0.14429E+03 
  44812.1402     0.14413E+03 
  44844.4024     0.14397E+03 
  44876.6646     0.14380E+03 
  44908.9267     0.14363E+03 
  44941.1889     0.14346E+03 
  44973.4510     0.14328E+03 
  45005.7132     0.14310E+03 
  45037.9754     0.14292E+03 
  45070.2375     0.14273E+03 
  45102.4997     0.14254E+03 
  45134.7618     0.14235E+03 
  45167.0240     0.14215E+03 
  45199.2862     0.14196E+03 
  45231.5483     0.14176E+03 
  45263.8105     0.14155E+03 
  45296.0726     0.14134E+03 
  45328.3348     0.14113E+03 
  45360.5970     0.14092E+03 
  45392.8591     0.14071E+03 
  45425.1213     0.14049E+03 
  45457.3834     0.14027E+03 
  45489.6456     0.14004E+03 
  45521.9078     0.13981E+03 
  45554.1699     0.13958E+03 
  45586.4321     0.13935E+03 
  45618.6942     0.13912E+03 
  45650.9564     0.13888E+03 
  45683.2186     0.13864E+03 
  45715.4807     0.13839E+03 
  45747.7429     0.13815E+03 
  45780.0050     0.13790E+03 
  45812.2672     0.13765E+03 
  45844.5294     0.13739E+03 
  45876.7915     0.13714E+03 
  45909.0537     0.13688E+03 
  45941.3158     0.13661E+03 
  45973.5780     0.13635E+03 
  46005.8402     0.13608E+03 
  46038.1023     0.13581E+03 
  46070.3645     0.13554E+03 
  46102.6266     0.13527E+03 
  46134.8888     0.13499E+03 
  46167.1510     0.13471E+03 
  46199.4131     0.13443E+03 
  46231.6753     0.13414E+03 
  46263.9374     0.13386E+03 
  46296.1996     0.13357E+03 
  46328.4618     0.13328E+03 
  46360.7239     0.13298E+03 
  46392.9861     0.13269E+03 
  46425.2482     0.13239E+03 
  46457.5104     0.13209E+03 
  46489.7726     0.13179E+03 
  46522.0347     0.13148E+03 
  46554.2969     0.13117E+03 
  46586.5590     0.13086E+03 
  46618.8212     0.13055E+03 
  46651.0834     0.13024E+03 
  46683.3455     0.12992E+03 
  46715.6077     0.12961E+03 
  46747.8698     0.12929E+03 
  46780.1320     0.12897E+03 
  46812.3942     0.12864E+03 
  46844.6563     0.12832E+03 
  46876.9185     0.12799E+03 
  46909.1806     0.12766E+03 
  46941.4428     0.12733E+03 
  46973.7050     0.12699E+03 
  47005.9671     0.12666E+03 
  47038.2293     0.12632E+03 
  47070.4914     0.12598E+03 
  47102.7536     0.12564E+03 
  47135.0158     0.12530E+03 
  47167.2779     0.12496E+03 
  47199.5401     0.12461E+03 
  47231.8022     0.12426E+03 
  47264.0644     0.12391E+03 
  47296.3266     0.12356E+03 
  47328.5887     0.12321E+03 
  47360.8509     0.12285E+03 
  47393.1130     0.12250E+03 
  47425.3752     0.12214E+03 
  47457.6374     0.12178E+03 
  47489.8995     0.12142E+03 
  47522.1617     0.12106E+03 
  47554.4238     0.12070E+03 
  47586.6860     0.12033E+03 
  47618.9482     0.11996E+03 
  47651.2103     0.11960E+03 
  47683.4725     0.11923E+03 
  47715.7346     0.11886E+03 
  47747.9968     0.11848E+03 
  47780.2590     0.11811E+03 
  47812.5211     0.11774E+03 
  47844.7833     0.11736E+03 
  47877.0454     0.11698E+03 
  47909.3076     0.11660E+03 
  47941.5698     0.11622E+03 
  47973.8319     0.11584E+03 
  48006.0941     0.11546E+03 
  48038.3562     0.11508E+03 
  48070.6184     0.11469E+03 
  48102.8806     0.11431E+03 
  48135.1427     0.11392E+03 
  48167.4049     0.11353E+03 
  48199.6670     0.11314E+03 
  48231.9292     0.11275E+03 
  48264.1914     0.11236E+03 
  48296.4535     0.11197E+03 
  48328.7157     0.11158E+03 
  48360.9778     0.11118E+03 
  48393.2400     0.11079E+03 
  48425.5022     0.11039E+03 
  48457.7643     0.10999E+03 
  48490.0265     0.10960E+03 
  48522.2886     0.10920E+03 
  48554.5508     0.10880E+03 
  48586.8130     0.10840E+03 
  48619.0751     0.10800E+03 
  48651.3373     0.10760E+03 
  48683.5994     0.10719E+03 
  48715.8616     0.10679E+03 
  48748.1238     0.10639E+03 
  48780.3859     0.10598E+03 
  48812.6481     0.10558E+03 
  48844.9102     0.10517E+03 
  48877.1724     0.10476E+03 
  48909.4346     0.10436E+03 
  48941.6967     0.10395E+03 
  48973.9589     0.10354E+03 
  49006.2210     0.10313E+03 
  49038.4832     0.10272E+03 
  49070.7454     0.10231E+03 
  49103.0075     0.10190E+03 
  49135.2697     0.10149E+03 
  49167.5318     0.10108E+03 
  49199.7940     0.10067E+03 
  49232.0562     0.10026E+03 
  49264.3183     0.99846E+02 
  49296.5805     0.99433E+02 
  49328.8426     0.99020E+02 
  49361.1048     0.98606E+02 
  49393.3670     0.98193E+02 
  49425.6291     0.97779E+02 
  49457.8913     0.97364E+02 
  49490.1534     0.96950E+02 
  49522.4156     0.96535E+02 
  49554.6778     0.96120E+02 
  49586.9399     0.95705E+02 
  49619.2021     0.95289E+02 
  49651.4642     0.94874E+02 
  49683.7264     0.94458E+02 
  49715.9886     0.94042E+02 
  49748.2507     0.93626E+02 
  49780.5129     0.93210E+02 
  49812.7750     0.92794E+02 
  49845.0372     0.92378E+02 
  49877.2994     0.91962E+02 
  49909.5615     0.91546E+02 
  49941.8237     0.91129E+02 
  49974.0858     0.90713E+02 
  50006.3480     0.90297E+02 
  50038.6102     0.89881E+02 
  50070.8723     0.89465E+02 
  50103.1345     0.89049E+02 
  50135.3966     0.88633E+02 
  50167.6588     0.88217E+02 
  50199.9210     0.87801E+02 
  50232.1831     0.87386E+02 
  50264.4453     0.86971E+02 
  50296.7074     0.86555E+02 
  50328.9696     0.86140E+02 
  50361.2318     0.85726E+02 
  50393.4939     0.85311E+02 
  50425.7561     0.84897E+02 
  50458.0182     0.84483E+02 
  50490.2804     0.84069E+02 
  50522.5426     0.83655E+02 
  50554.8047     0.83242E+02 
  50587.0669     0.82829E+02 
  50619.3290     0.82417E+02 
  50651.5912     0.82004E+02 
  50683.8534     0.81593E+02 
  50716.1155     0.81181E+02 
  50748.3777     0.80770E+02 
  50780.6398     0.80359E+02 
  50812.9020     0.79949E+02 
  50845.1642     0.79539E+02 
  50877.4263     0.79130E+02 
  50909.6885     0.78721E+02 
  50941.9506     0.78312E+02 
  50974.2128     0.77904E+02 
  51006.4750     0.77496E+02 
  51038.7371     0.77089E+02 
  51070.9993     0.76683E+02 
  51103.2614     0.76277E+02 
  51135.5236     0.75872E+02 
  51167.7858     0.75467E+02 
  51200.0479     0.75062E+02 
  51232.3101     0.74659E+02 
  51264.5722     0.74256E+02 
  51296.8344     0.73853E+02 
  51329.0966     0.73451E+02 
  51361.3587     0.73050E+02 
  51393.6209     0.72649E+02 
  51425.8830     0.72249E+02 
  51458.1452     0.71850E+02 
  51490.4074     0.71452E+02 
  51522.6695     0.71054E+02 
  51554.9317     0.70657E+02 
  51587.1938     0.70260E+02 
  51619.4560     0.69864E+02 
  51651.7182     0.69469E+02 
  51683.9803     0.69075E+02 
  51716.2425     0.68681E+02 
  51748.5046     0.68289E+02 
  51780.7668     0.67897E+02 
  51813.0290     0.67506E+02 
  51845.2911     0.67115E+02 
  51877.5533     0.66726E+02 
  51909.8154     0.66337E+02 
  51942.0776     0.65949E+02 
  51974.3398     0.65562E+02 
  52006.6019     0.65176E+02 
  52038.8641     0.64790E+02 
  52071.1262     0.64406E+02 
  52103.3884     0.64022E+02 
  52135.6506     0.63639E+02 
  52167.9127     0.63257E+02 
  52200.1749     0.62876E+02 
  52232.4370     0.62496E+02 
  52264.6992     0.62117E+02 
  52296.9614     0.61739E+02 
  52329.2235     0.61362E+02 
  52361.4857     0.60985E+02 
  52393.7478     0.60610E+02 
  52426.0100     0.60235E+02 
  52458.2722     0.59862E+02 
  52490.5343     0.59490E+02 
  52522.7965     0.59118E+02 
  52555.0586     0.58747E+02 
  52587.3208     0.58378E+02 
  52619.5830     0.58009E+02 
  52651.8451     0.57642E+02 
  52684.1073     0.57275E+02 
  52716.3694     0.56910E+02 
  52748.6316     0.56546E+02 
  52780.8938     0.56182E+02 
  52813.1559     0.55820E+02 
  52845.4181     0.55459E+02 
  52877.6802     0.55098E+02 
  52909.9424     0.54739E+02 
  52942.2046     0.54381E+02 
  52974.4667     0.54024E+02 
  53006.7289     0.53668E+02 
  53038.9910     0.53313E+02 
  53071.2532     0.52960E+02 
  53103.5154     0.52607E+02 
  53135.7775     0.52255E+02 
  53168.0397     0.51905E+02 
  53200.3018     0.51556E+02 
  53232.5640     0.51208E+02 
  53264.8262     0.50860E+02 
  53297.0883     0.50515E+02 
  53329.3505     0.50170E+02 
  53361.6126     0.49826E+02 
  53393.8748     0.49484E+02 
  53426.1370     0.49142E+02 
  53458.3991     0.48802E+02 
  53490.6613     0.48463E+02 
  53522.9234     0.48125E+02 
  53555.1856     0.47789E+02 
  53587.4478     0.47453E+02 
  53619.7099     0.47119E+02 
  53651.9721     0.46785E+02 
  53684.2342     0.46453E+02 
  53716.4964     0.46123E+02 
  53748.7586     0.45793E+02 
  53781.0207     0.45465E+02 
  53813.2829     0.45137E+02 
  53845.5450     0.44811E+02 
  53877.8072     0.44487E+02 
  53910.0694     0.44163E+02 
  53942.3315     0.43841E+02 
  53974.5937     0.43520E+02 
  54006.8558     0.43200E+02 
  54039.1180     0.42881E+02 
  54071.3802     0.42563E+02 
  54103.6423     0.42247E+02 
  54135.9045     0.41932E+02 
  54168.1666     0.41618E+02 
  54200.4288     0.41306E+02 
  54232.6910     0.40994E+02 
  54264.9531     0.40684E+02 
  54297.2153     0.40375E+02 
  54329.4774     0.40068E+02 
  54361.7396     0.39761E+02 
  54394.0018     0.39456E+02 
  54426.2639     0.39152E+02 
  54458.5261     0.38850E+02 
  54490.7882     0.38548E+02 
  54523.0504     0.38248E+02 
  54555.3126     0.37949E+02 
  54587.5747     0.37652E+02 
  54619.8369     0.37355E+02 
  54652.0990     0.37060E+02 
  54684.3612     0.36766E+02 
  54716.6234     0.36474E+02 
  54748.8855     0.36182E+02 
  54781.1477     0.35892E+02 
  54813.4098     0.35603E+02 
  54845.6720     0.35316E+02 
  54877.9342     0.35029E+02 
  54910.1963     0.34744E+02 
  54942.4585     0.34461E+02 
  54974.7206     0.34178E+02 
  55006.9828     0.33897E+02 
  55039.2450     0.33617E+02 
  55071.5071     0.33338E+02 
  55103.7693     0.33061E+02 
  55136.0314     0.32785E+02 
  55168.2936     0.32510E+02 
  55200.5558     0.32236E+02 
  55232.8179     0.31964E+02 
  55265.0801     0.31693E+02 
  55297.3422     0.31423E+02 
  55329.6044     0.31154E+02 
  55361.8666     0.30887E+02 
  55394.1287     0.30621E+02 
  55426.3909     0.30356E+02 
  55458.6530     0.30093E+02 
  55490.9152     0.29831E+02 
  55523.1774     0.29570E+02 
  55555.4395     0.29310E+02 
  55587.7017     0.29052E+02 
  55619.9638     0.28794E+02 
  55652.2260     0.28538E+02 
  55684.4882     0.28284E+02 
  55716.7503     0.28030E+02 
  55749.0125     0.27778E+02 
  55781.2746     0.27528E+02 
  55813.5368     0.27278E+02 
  55845.7990     0.27030E+02 
  55878.0611     0.26783E+02 
  55910.3233     0.26537E+02 
  55942.5854     0.26292E+02 
  55974.8476     0.26049E+02 
  56007.1098     0.25807E+02 
  56039.3719     0.25566E+02 
  56071.6341     0.25326E+02 
  56103.8962     0.25088E+02 
  56136.1584     0.24851E+02 
  56168.4206     0.24615E+02 
  56200.6827     0.24381E+02 
  56232.9449     0.24147E+02 
  56265.2070     0.23915E+02 
  56297.4692     0.23684E+02 
  56329.7314     0.23455E+02 
  56361.9935     0.23226E+02 
  56394.2557     0.22999E+02 
  56426.5178     0.22773E+02 
  56458.7800     0.22549E+02 
  56491.0422     0.22325E+02 
  56523.3043     0.22103E+02 
  56555.5665     0.21882E+02 
  56587.8286     0.21662E+02 
  56620.0908     0.21444E+02 
  56652.3530     0.21227E+02 
  56684.6151     0.21011E+02 
  56716.8773     0.20796E+02 
  56749.1394     0.20582E+02 
  56781.4016     0.20370E+02 
  56813.6638     0.20158E+02 
  56845.9259     0.19948E+02 
  56878.1881     0.19740E+02 
  56910.4502     0.19532E+02 
  56942.7124     0.19326E+02 
  56974.9746     0.19120E+02 
  57007.2367     0.18916E+02 
  57039.4989     0.18714E+02 
  57071.7610     0.18512E+02 
  57104.0232     0.18312E+02 
  57136.2854     0.18113E+02 
  57168.5475     0.17915E+02 
  57200.8097     0.17718E+02 
  57233.0718     0.17522E+02 
  57265.3340     0.17328E+02 
  57297.5962     0.17134E+02 
  57329.8583     0.16942E+02 
  57362.1205     0.16751E+02 
  57394.3826     0.16562E+02 
  57426.6448     0.16373E+02 
  57458.9070     0.16186E+02 
  57491.1691     0.15999E+02 
  57523.4313     0.15814E+02 
  57555.6934     0.15631E+02 
  57587.9556     0.15448E+02 
  57620.2178     0.15266E+02 
  57652.4799     0.15086E+02 
  57684.7421     0.14907E+02 
  57717.0042     0.14729E+02 
  57749.2664     0.14552E+02 
  57781.5286     0.14376E+02 
  57813.7907     0.14201E+02 
  57846.0529     0.14028E+02 
  57878.3150     0.13855E+02 
  57910.5772     0.13684E+02 
  57942.8394     0.13514E+02 
  57975.1015     0.13345E+02 
  58007.3637     0.13177E+02 
  58039.6258     0.13011E+02 
  58071.8880     0.12845E+02 
  58104.1502     0.12681E+02 
  58136.4123     0.12518E+02 
  58168.6745     0.12355E+02 
  58200.9366     0.12194E+02 
  58233.1988     0.12035E+02 
  58265.4610     0.11876E+02 
  58297.7231     0.11718E+02 
  58329.9853     0.11562E+02 
  58362.2474     0.11406E+02 
  58394.5096     0.11252E+02 
  58426.7718     0.11099E+02 
  58459.0339     0.10947E+02 
  58491.2961     0.10796E+02 
  58523.5582     0.10646E+02 
  58555.8204     0.10497E+02 
  58588.0826     0.10350E+02 
  58620.3447     0.10203E+02 
  58652.6069     0.10058E+02 
  58684.8690     0.99134E+01 
  58717.1312     0.97702E+01 
  58749.3934     0.96281E+01 
  58781.6555     0.94871E+01 
  58813.9177     0.93472E+01 
  58846.1798     0.92084E+01 
  58878.4420     0.90706E+01 
  58910.7042     0.89340E+01 
  58942.9663     0.87985E+01 
  58975.2285     0.86640E+01 
  59007.4906     0.85307E+01 
  59039.7528     0.83984E+01 
  59072.0150     0.82673E+01 
  59104.2771     0.81372E+01 
  59136.5393     0.80082E+01 
  59168.8014     0.78803E+01 
  59201.0636     0.77535E+01 
  59233.3258     0.76278E+01 
  59265.5879     0.75032E+01 
  59297.8501     0.73796E+01 
  59330.1122     0.72572E+01 
  59362.3744     0.71358E+01 
  59394.6366     0.70155E+01 
  59426.8987     0.68963E+01 
  59459.1609     0.67782E+01 
  59491.4230     0.66612E+01 
  59523.6852     0.65453E+01 
  59555.9474     0.64305E+01 
  59588.2095     0.63167E+01 
  59620.4717     0.62041E+01 
  59652.7338     0.60925E+01 
  59684.9960     0.59820E+01 
  59717.2582     0.58727E+01 
  59749.5203     0.57644E+01 
  59781.7825     0.56572E+01 
  59814.0446     0.55511E+01 
  59846.3068     0.54461E+01 
  59878.5690     0.53422E+01 
  59910.8311     0.52394E+01 
  59943.0933     0.51377E+01 
  59975.3554     0.50371E+01 
  60007.6176     0.49376E+01 
  60039.8798     0.48393E+01 
  60072.1419     0.47420E+01 
  60104.4041     0.46458E+01 
  60136.6662     0.45508E+01 
  60168.9284     0.44569E+01 
  60201.1906     0.43641E+01 
  60233.4527     0.42724E+01 
  60265.7149     0.41818E+01 
  60297.9770     0.40924E+01 
  60330.2392     0.40041E+01 
  60362.5014     0.39169E+01 
  60394.7635     0.38309E+01 
  60427.0257     0.37460E+01 
  60459.2878     0.36623E+01 
  60491.5500     0.35797E+01 
  60523.8122     0.34983E+01 
  60556.0743     0.34180E+01 
  60588.3365     0.33389E+01 
  60620.5986     0.32609E+01 
  60652.8608     0.31842E+01 
  60685.1230     0.31086E+01 
  60717.3851     0.30341E+01 
  60749.6473     0.29609E+01 
  60781.9094     0.28889E+01 
  60814.1716     0.28180E+01 
  60846.4338     0.27484E+01 
  60878.6959     0.26799E+01 
  60910.9581     0.26127E+01 
  60943.2202     0.25467E+01 
  60975.4824     0.24819E+01 
  61007.7446     0.24184E+01 
  61040.0067     0.23561E+01 
  61072.2689     0.22950E+01 
  61104.5310     0.22352E+01 
  61136.7932     0.21767E+01 
  61169.0554     0.21194E+01 
  61201.3175     0.20634E+01 
  61233.5797     0.20087E+01 
  61265.8418     0.19553E+01 
  61298.1040     0.19032E+01 
  61330.3662     0.18524E+01 
  61362.6283     0.18029E+01 
  61394.8905     0.17548E+01 
  61427.1526     0.17080E+01 
  61459.4148     0.16625E+01 
  61491.6770     0.16184E+01 
  61523.9391     0.15757E+01 
  61556.2013     0.15343E+01 
  61588.4634     0.14944E+01 
  61620.7256     0.14558E+01 
  61652.9878     0.14187E+01 
  61685.2499     0.13830E+01 
  61717.5121     0.13487E+01 
  61749.7742     0.13158E+01 
  61782.0364     0.12845E+01 
  61814.2986     0.12546E+01 
  61846.5607     0.12261E+01 
  61878.8229     0.11992E+01 
  61911.0850     0.11738E+01 
  61943.3472     0.11500E+01 
  61975.6094     0.11276E+01 
  62007.8715     0.11069E+01 
  62040.1337     0.10876E+01 
  62072.3958     0.10700E+01 
  62104.6580     0.10540E+01 
  62136.9202     0.10396E+01 
  62169.1823     0.10268E+01 
  62201.4445     0.10157E+01 
  62233.7066     0.10063E+01 
  62265.9688     0.99851E+00 
  62298.2310     0.99244E+00 
  62330.4931     0.98810E+00 
  62362.7553     0.98549E+00 
  62395.0174     0.98463E+00 
  62427.2796     0.98556E+00 
  62459.5418     0.98827E+00 
  62491.8039     0.99280E+00 
  62524.0661     0.99917E+00 
  62556.3282     0.10074E+01 
  62588.5904     0.10175E+01 
  62620.8526     0.10295E+01 
  62653.1147     0.10434E+01 
  62685.3769     0.10592E+01 
  62717.6390     0.10771E+01 
  62749.9012     0.10969E+01 
  62782.1634     0.11187E+01 
  62814.4255     0.11425E+01 
  62846.6877     0.11684E+01 
  62878.9498     0.11964E+01 
  62911.2120     0.12265E+01 
  62943.4742     0.12587E+01 
  62975.7363     0.12931E+01 
  63007.9985     0.13297E+01 
  63040.2606     0.13685E+01 
  63072.5228     0.14095E+01 
  63104.7850     0.14528E+01 
  63137.0471     0.14984E+01 
  63169.3093     0.15463E+01 
  63201.5714     0.15966E+01 
  63233.8336     0.16492E+01 
  63266.0958     0.17043E+01 
  63298.3579     0.17619E+01 
  63330.6201     0.18219E+01 
  63362.8822     0.18844E+01 
  63395.1444     0.19494E+01 
  63427.4066     0.20171E+01 
  63459.6687     0.20873E+01 
  63491.9309     0.21602E+01 
  63524.1930     0.22358E+01 
  63556.4552     0.23141E+01 
  63588.7174     0.23951E+01 
  63620.9795     0.24789E+01 
  63653.2417     0.25656E+01 
  63685.5038     0.26551E+01 
  63717.7660     0.27475E+01 
  63750.0282     0.28429E+01 
  63782.2903     0.29412E+01 
  63814.5525     0.30426E+01 
  63846.8146     0.31470E+01 
  63879.0768     0.32545E+01 
  63911.3390     0.33651E+01 
  63943.6011     0.34790E+01 
  63975.8633     0.35960E+01 
  64008.1254     0.37164E+01 
  64040.3876     0.38401E+01 
  64072.6498     0.39671E+01 
  64104.9119     0.40975E+01 
  64137.1741     0.42314E+01 
  64169.4362     0.43688E+01 
  64201.6984     0.45097E+01 
  64233.9606     0.46543E+01 
  64266.2227     0.48025E+01 
  64298.4849     0.49544E+01 
  64330.7470     0.51100E+01 
  64363.0092     0.52694E+01 
  64395.2714     0.54327E+01 
  64427.5335     0.55999E+01 
  64459.7957     0.57711E+01 
  64492.0578     0.59463E+01 
  64524.3200     0.61255E+01 
  64556.5822     0.63089E+01 
  64588.8443     0.64964E+01 
  64621.1065     0.66882E+01 
  64653.3686     0.68843E+01 
  64685.6308     0.70847E+01 
  64717.8930     0.72896E+01 
  64750.1551     0.74989E+01 
  64782.4173     0.77128E+01 
  64814.6794     0.79313E+01 
  64846.9416     0.81544E+01 
  64879.2038     0.83823E+01 
  64911.4659     0.86149E+01 
  64943.7281     0.88524E+01 
  64975.9902     0.90949E+01 
  65008.2524     0.93423E+01 
  65040.5146     0.95948E+01 
  65072.7767     0.98524E+01 
  65105.0389     0.10115E+02 
  65137.3010     0.10383E+02 
  65169.5632     0.10657E+02 
  65201.8254     0.10935E+02 
  65234.0875     0.11220E+02 
  65266.3497     0.11510E+02 
  65298.6118     0.11805E+02 
  65330.8740     0.12106E+02 
  65363.1362     0.12413E+02 
  65395.3983     0.12726E+02 
  65427.6605     0.13045E+02 
  65459.9226     0.13370E+02 
  65492.1848     0.13700E+02 
  65524.4470     0.14038E+02 
  65556.7091     0.14381E+02 
  65588.9713     0.14731E+02 
  65621.2334     0.15087E+02 
  65653.4956     0.15449E+02 
  65685.7578     0.15818E+02 
  65718.0199     0.16194E+02 
  65750.2821     0.16577E+02 
  65782.5442     0.16966E+02 
  65814.8064     0.17363E+02 
  65847.0686     0.17766E+02 
  65879.3307     0.18177E+02 
  65911.5929     0.18595E+02 
  65943.8550     0.19020E+02 
  65976.1172     0.19453E+02 
  66008.3794     0.19893E+02 
  66040.6415     0.20340E+02 
  66072.9037     0.20796E+02 
  66105.1658     0.21259E+02 
  66137.4280     0.21730E+02 
  66169.6902     0.22209E+02 
  66201.9523     0.22696E+02 
  66234.2145     0.23191E+02 
  66266.4766     0.23695E+02 
  66298.7388     0.24207E+02 
  66331.0010     0.24727E+02 
  66363.2631     0.25256E+02 
  66395.5253     0.25794E+02 
  66427.7874     0.26341E+02 
  66460.0496     0.26897E+02 
  66492.3118     0.27461E+02 
  66524.5739     0.28035E+02 
  66556.8361     0.28618E+02 
  66589.0982     0.29210E+02 
  66621.3604     0.29812E+02 
  66653.6226     0.30424E+02 
  66685.8847     0.31045E+02 
  66718.1469     0.31676E+02 
  66750.4090     0.32317E+02 
  66782.6712     0.32968E+02 
  66814.9334     0.33629E+02 
  66847.1955     0.34301E+02 
  66879.4577     0.34983E+02 
  66911.7198     0.35675E+02 
  66943.9820     0.36379E+02 
  66976.2442     0.37092E+02 
  67008.5063     0.37817E+02 
  67040.7685     0.38553E+02 
  67073.0306     0.39300E+02 
  67105.2928     0.40059E+02 
  67137.5550     0.40829E+02 
  67169.8171     0.41610E+02 
  67202.0793     0.42403E+02 
  67234.3414     0.43208E+02 
  67266.6036     0.44025E+02 
  67298.8658     0.44854E+02 
  67331.1279     0.45695E+02 
  67363.3901     0.46548E+02 
  67395.6522     0.47414E+02 
  67427.9144     0.48293E+02 
  67460.1766     0.49184E+02 
  67492.4387     0.50088E+02 
  67524.7009     0.51006E+02 
  67556.9630     0.51936E+02 
  67589.2252     0.52880E+02 
  67621.4874     0.53837E+02 
  67653.7495     0.54808E+02 
  67686.0117     0.55792E+02 
  67718.2738     0.56791E+02 
  67750.5360     0.57803E+02 
  67782.7982     0.58830E+02 
  67815.0603     0.59871E+02 
  67847.3225     0.60926E+02 
  67879.5846     0.61996E+02 
  67911.8468     0.63081E+02 
  67944.1090     0.64180E+02 
  67976.3711     0.65295E+02 
  68008.6333     0.66425E+02 
  68040.8954     0.67570E+02 
  68073.1576     0.68731E+02 
  68105.4198     0.69907E+02 
  68137.6819     0.71100E+02 
  68169.9441     0.72308E+02 
  68202.2062     0.73532E+02 
  68234.4684     0.74773E+02 
  68266.7306     0.76030E+02 
  68298.9927     0.77304E+02 
  68331.2549     0.78594E+02 
  68363.5170     0.79901E+02 
  68395.7792     0.81226E+02 
  68428.0414     0.82567E+02 
  68460.3035     0.83926E+02 
  68492.5657     0.85303E+02 
  68524.8278     0.86697E+02 
  68557.0900     0.88109E+02 
  68589.3522     0.89539E+02 
  68621.6143     0.90988E+02 
  68653.8765     0.92454E+02 
  68686.1386     0.93939E+02 
  68718.4008     0.95443E+02 
  68750.6630     0.96966E+02 
  68782.9251     0.98507E+02 
  68815.1873     0.10007E+03 
  68847.4494     0.10165E+03 
  68879.7116     0.10325E+03 
  68911.9738     0.10487E+03 
  68944.2359     0.10651E+03 
  68976.4981     0.10817E+03 
  69008.7602     0.10984E+03 
  69041.0224     0.11154E+03 
  69073.2846     0.11326E+03 
  69105.5467     0.11500E+03 
  69137.8089     0.11677E+03 
  69170.0710     0.11855E+03 
  69202.3332     0.12035E+03 
  69234.5954     0.12218E+03 
  69266.8575     0.12402E+03 
  69299.1197     0.12589E+03 
  69331.3818     0.12778E+03 
  69363.6440     0.12969E+03 
  69395.9062     0.13162E+03 
  69428.1683     0.13358E+03 
  69460.4305     0.13556E+03 
  69492.6926     0.13756E+03 
  69524.9548     0.13958E+03 
  69557.2170     0.14163E+03 
  69589.4791     0.14370E+03 
  69621.7413     0.14579E+03 
  69654.0034     0.14791E+03 
  69686.2656     0.15005E+03 
  69718.5278     0.15221E+03 
  69750.7899     0.15440E+03 
  69783.0521     0.15661E+03 
  69815.3142     0.15885E+03 
  69847.5764     0.16111E+03 
  69879.8386     0.16340E+03 
  69912.1007     0.16571E+03 
  69944.3629     0.16804E+03 
  69976.6250     0.17040E+03 
  70008.8872     0.17279E+03 
  70041.1494     0.17520E+03 
  70073.4115     0.17763E+03 
  70105.6737     0.18010E+03 
  70137.9358     0.18258E+03 
  70170.1980     0.18510E+03 
  70202.4602     0.18764E+03 
  70234.7223     0.19020E+03 
  70266.9845     0.19279E+03 
  70299.2466     0.19541E+03 
  70331.5088     0.19806E+03 
  70363.7710     0.20073E+03 
  70396.0331     0.20343E+03 
  70428.2953     0.20616E+03 
  70460.5574     0.20891E+03 
  70492.8196     0.21169E+03 
  70525.0818     0.21450E+03 
  70557.3439     0.21734E+03 
  70589.6061     0.22021E+03 
  70621.8682     0.22310E+03 
  70654.1304     0.22602E+03 
  70686.3926     0.22897E+03 
  70718.6547     0.23195E+03 
  70750.9169     0.23496E+03 
  70783.1790     0.23799E+03 
  70815.4412     0.24106E+03 
  70847.7034     0.24415E+03 
  70879.9655     0.24727E+03 
  70912.2277     0.25043E+03 
  70944.4898     0.25361E+03 
  70976.7520     0.25682E+03 
  71009.0142     0.26006E+03 
  71041.2763     0.26333E+03 
  71073.5385     0.26663E+03 
  71105.8006     0.26996E+03 
  71138.0628     0.27332E+03 
  71170.3250     0.27671E+03 
  71202.5871     0.28013E+03 
  71234.8493     0.28359E+03 
  71267.1114     0.28707E+03 
  71299.3736     0.29058E+03 
  71331.6358     0.29413E+03 
  71363.8979     0.29770E+03 
  71396.1601     0.30131E+03 
  71428.4222     0.30494E+03 
  71460.6844     0.30861E+03 
  71492.9466     0.31231E+03 
  71525.2087     0.31604E+03 
  71557.4709     0.31980E+03 
  71589.7330     0.32360E+03 
  71621.9952     0.32742E+03 
  71654.2574     0.33128E+03 
  71686.5195     0.33517E+03 
  71718.7817     0.33909E+03 
  71751.0438     0.34305E+03 
  71783.3060     0.34703E+03 
  71815.5682     0.35105E+03 
  71847.8303     0.35510E+03 
  71880.0925     0.35918E+03 
  71912.3546     0.36330E+03 
  71944.6168     0.36744E+03 
  71976.8790     0.37162E+03 
  72009.1411     0.37584E+03 
  72041.4033     0.38008E+03 
  72073.6654     0.38436E+03 
  72105.9276     0.38867E+03 
  72138.1898     0.39301E+03 
  72170.4519     0.39739E+03 
  72202.7141     0.40180E+03 
  72234.9762     0.40624E+03 
  72267.2384     0.41071E+03 
  72299.5006     0.41522E+03 
  72331.7627     0.41976E+03 
  72364.0249     0.42433E+03 
  72396.2870     0.42894E+03 
  72428.5492     0.43358E+03 
  72460.8114     0.43825E+03 
  72493.0735     0.44296E+03 
  72525.3357     0.44770E+03 
  72557.5978     0.45247E+03 
  72589.8600     0.45728E+03 
