  32262.1600     0.12581E+00 
  32294.4222     0.12731E+00 
  32326.6843     0.12881E+00 
  32358.9465     0.13033E+00 
  32391.2086     0.13186E+00 
  32423.4708     0.13341E+00 
  32455.7330     0.13496E+00 
  32487.9951     0.13653E+00 
  32520.2573     0.13811E+00 
  32552.5194     0.13971E+00 
  32584.7816     0.14131E+00 
  32617.0438     0.14293E+00 
  32649.3059     0.14456E+00 
  32681.5681     0.14620E+00 
  32713.8302     0.14786E+00 
  32746.0924     0.14953E+00 
  32778.3546     0.15121E+00 
  32810.6167     0.15290E+00 
  32842.8789     0.15460E+00 
  32875.1410     0.15632E+00 
  32907.4032     0.15805E+00 
  32939.6654     0.15979E+00 
  32971.9275     0.16155E+00 
  33004.1897     0.16331E+00 
  33036.4518     0.16509E+00 
  33068.7140     0.16689E+00 
  33100.9762     0.16869E+00 
  33133.2383     0.17051E+00 
  33165.5005     0.17234E+00 
  33197.7626     0.17418E+00 
  33230.0248     0.17603E+00 
  33262.2870     0.17790E+00 
  33294.5491     0.17977E+00 
  33326.8113     0.18166E+00 
  33359.0734     0.18357E+00 
  33391.3356     0.18548E+00 
  33423.5978     0.18741E+00 
  33455.8599     0.18935E+00 
  33488.1221     0.19130E+00 
  33520.3842     0.19326E+00 
  33552.6464     0.19524E+00 
  33584.9086     0.19723E+00 
  33617.1707     0.19923E+00 
  33649.4329     0.20124E+00 
  33681.6950     0.20326E+00 
  33713.9572     0.20530E+00 
  33746.2194     0.20734E+00 
  33778.4815     0.20940E+00 
  33810.7437     0.21147E+00 
  33843.0058     0.21356E+00 
  33875.2680     0.21565E+00 
  33907.5302     0.21776E+00 
  33939.7923     0.21987E+00 
  33972.0545     0.22200E+00 
  34004.3166     0.22414E+00 
  34036.5788     0.22630E+00 
  34068.8410     0.22846E+00 
  34101.1031     0.23064E+00 
  34133.3653     0.23282E+00 
  34165.6274     0.23502E+00 
  34197.8896     0.23723E+00 
  34230.1518     0.23945E+00 
  34262.4139     0.24168E+00 
  34294.6761     0.24392E+00 
  34326.9382     0.24617E+00 
  34359.2004     0.24843E+00 
  34391.4626     0.25071E+00 
  34423.7247     0.25299E+00 
  34455.9869     0.25529E+00 
  34488.2490     0.25759E+00 
  34520.5112     0.25991E+00 
  34552.7734     0.26224E+00 
  34585.0355     0.26457E+00 
  34617.2977     0.26692E+00 
  34649.5598     0.26928E+00 
  34681.8220     0.27164E+00 
  34714.0842     0.27402E+00 
  34746.3463     0.27641E+00 
  34778.6085     0.27880E+00 
  34810.8706     0.28121E+00 
  34843.1328     0.28362E+00 
  34875.3950     0.28605E+00 
  34907.6571     0.28848E+00 
  34939.9193     0.29092E+00 
  34972.1814     0.29338E+00 
  35004.4436     0.29584E+00 
  35036.7058     0.29831E+00 
  35068.9679     0.30079E+00 
  35101.2301     0.30328E+00 
  35133.4922     0.30577E+00 
  35165.7544     0.30828E+00 
  35198.0166     0.31079E+00 
  35230.2787     0.31331E+00 
  35262.5409     0.31584E+00 
  35294.8030     0.31838E+00 
  35327.0652     0.32093E+00 
  35359.3274     0.32348E+00 
  35391.5895     0.32604E+00 
  35423.8517     0.32861E+00 
  35456.1138     0.33118E+00 
  35488.3760     0.33377E+00 
  35520.6382     0.33636E+00 
  35552.9003     0.33895E+00 
  35585.1625     0.34156E+00 
  35617.4246     0.34417E+00 
  35649.6868     0.34679E+00 
  35681.9490     0.34941E+00 
  35714.2111     0.35204E+00 
  35746.4733     0.35468E+00 
  35778.7354     0.35732E+00 
  35810.9976     0.35997E+00 
  35843.2598     0.36262E+00 
  35875.5219     0.36528E+00 
  35907.7841     0.36795E+00 
  35940.0462     0.37062E+00 
  35972.3084     0.37330E+00 
  36004.5706     0.37598E+00 
  36036.8327     0.37866E+00 
  36069.0949     0.38135E+00 
  36101.3570     0.38405E+00 
  36133.6192     0.38675E+00 
  36165.8814     0.38945E+00 
  36198.1435     0.39216E+00 
  36230.4057     0.39487E+00 
  36262.6678     0.39759E+00 
  36294.9300     0.40031E+00 
  36327.1922     0.40303E+00 
  36359.4543     0.40575E+00 
  36391.7165     0.40848E+00 
  36423.9786     0.41122E+00 
  36456.2408     0.41395E+00 
  36488.5030     0.41669E+00 
  36520.7651     0.41943E+00 
  36553.0273     0.42217E+00 
  36585.2894     0.42492E+00 
  36617.5516     0.42766E+00 
  36649.8138     0.43041E+00 
  36682.0759     0.43316E+00 
  36714.3381     0.43591E+00 
  36746.6002     0.43867E+00 
  36778.8624     0.44142E+00 
  36811.1246     0.44417E+00 
  36843.3867     0.44693E+00 
  36875.6489     0.44969E+00 
  36907.9110     0.45244E+00 
  36940.1732     0.45520E+00 
  36972.4354     0.45796E+00 
  37004.6975     0.46071E+00 
  37036.9597     0.46347E+00 
  37069.2218     0.46622E+00 
  37101.4840     0.46898E+00 
  37133.7462     0.47173E+00 
  37166.0083     0.47449E+00 
  37198.2705     0.47724E+00 
  37230.5326     0.47999E+00 
  37262.7948     0.48274E+00 
  37295.0570     0.48548E+00 
  37327.3191     0.48823E+00 
  37359.5813     0.49097E+00 
  37391.8434     0.49371E+00 
  37424.1056     0.49645E+00 
  37456.3678     0.49919E+00 
  37488.6299     0.50192E+00 
  37520.8921     0.50465E+00 
  37553.1542     0.50737E+00 
  37585.4164     0.51009E+00 
  37617.6786     0.51281E+00 
  37649.9407     0.51553E+00 
  37682.2029     0.51824E+00 
  37714.4650     0.52095E+00 
  37746.7272     0.52365E+00 
  37778.9894     0.52634E+00 
  37811.2515     0.52904E+00 
  37843.5137     0.53172E+00 
  37875.7758     0.53441E+00 
  37908.0380     0.53708E+00 
  37940.3002     0.53976E+00 
  37972.5623     0.54242E+00 
  38004.8245     0.54508E+00 
  38037.0866     0.54773E+00 
  38069.3488     0.55038E+00 
  38101.6110     0.55302E+00 
  38133.8731     0.55566E+00 
  38166.1353     0.55828E+00 
  38198.3974     0.56090E+00 
  38230.6596     0.56351E+00 
  38262.9218     0.56612E+00 
  38295.1839     0.56872E+00 
  38327.4461     0.57131E+00 
  38359.7082     0.57389E+00 
  38391.9704     0.57646E+00 
  38424.2326     0.57903E+00 
  38456.4947     0.58158E+00 
  38488.7569     0.58413E+00 
  38521.0190     0.58667E+00 
  38553.2812     0.58920E+00 
  38585.5434     0.59172E+00 
  38617.8055     0.59423E+00 
  38650.0677     0.59673E+00 
  38682.3298     0.59922E+00 
  38714.5920     0.60170E+00 
  38746.8542     0.60417E+00 
  38779.1163     0.60663E+00 
  38811.3785     0.60908E+00 
  38843.6406     0.61152E+00 
  38875.9028     0.61394E+00 
  38908.1650     0.61636E+00 
  38940.4271     0.61876E+00 
  38972.6893     0.62116E+00 
  39004.9514     0.62354E+00 
  39037.2136     0.62591E+00 
  39069.4758     0.62827E+00 
  39101.7379     0.63061E+00 
  39134.0001     0.63294E+00 
  39166.2622     0.63526E+00 
  39198.5244     0.63757E+00 
  39230.7866     0.63987E+00 
  39263.0487     0.64215E+00 
  39295.3109     0.64442E+00 
  39327.5730     0.64667E+00 
  39359.8352     0.64891E+00 
  39392.0974     0.65114E+00 
  39424.3595     0.65335E+00 
  39456.6217     0.65555E+00 
  39488.8838     0.65774E+00 
  39521.1460     0.65991E+00 
  39553.4082     0.66207E+00 
  39585.6703     0.66421E+00 
  39617.9325     0.66633E+00 
  39650.1946     0.66844E+00 
  39682.4568     0.67054E+00 
  39714.7190     0.67262E+00 
  39746.9811     0.67469E+00 
  39779.2433     0.67674E+00 
  39811.5054     0.67877E+00 
  39843.7676     0.68079E+00 
  39876.0298     0.68279E+00 
  39908.2919     0.68478E+00 
  39940.5541     0.68675E+00 
  39972.8162     0.68870E+00 
  40005.0784     0.69063E+00 
  40037.3406     0.69255E+00 
  40069.6027     0.69446E+00 
  40101.8649     0.69634E+00 
  40134.1270     0.69821E+00 
  40166.3892     0.70006E+00 
  40198.6514     0.70189E+00 
  40230.9135     0.70371E+00 
  40263.1757     0.70551E+00 
  40295.4378     0.70729E+00 
  40327.7000     0.70905E+00 
  40359.9622     0.71079E+00 
  40392.2243     0.71252E+00 
  40424.4865     0.71422E+00 
  40456.7486     0.71591E+00 
  40489.0108     0.71758E+00 
  40521.2730     0.71923E+00 
  40553.5351     0.72087E+00 
  40585.7973     0.72248E+00 
  40618.0594     0.72407E+00 
  40650.3216     0.72565E+00 
  40682.5838     0.72720E+00 
  40714.8459     0.72874E+00 
  40747.1081     0.73026E+00 
  40779.3702     0.73176E+00 
  40811.6324     0.73323E+00 
  40843.8946     0.73469E+00 
  40876.1567     0.73613E+00 
  40908.4189     0.73755E+00 
  40940.6810     0.73894E+00 
  40972.9432     0.74032E+00 
  41005.2054     0.74168E+00 
  41037.4675     0.74302E+00 
  41069.7297     0.74433E+00 
  41101.9918     0.74563E+00 
  41134.2540     0.74691E+00 
  41166.5162     0.74816E+00 
  41198.7783     0.74940E+00 
  41231.0405     0.75061E+00 
  41263.3026     0.75180E+00 
  41295.5648     0.75297E+00 
  41327.8270     0.75412E+00 
  41360.0891     0.75525E+00 
  41392.3513     0.75636E+00 
  41424.6134     0.75745E+00 
  41456.8756     0.75851E+00 
  41489.1378     0.75956E+00 
  41521.3999     0.76058E+00 
  41553.6621     0.76158E+00 
  41585.9242     0.76256E+00 
  41618.1864     0.76352E+00 
  41650.4486     0.76446E+00 
  41682.7107     0.76537E+00 
  41714.9729     0.76627E+00 
  41747.2350     0.76714E+00 
  41779.4972     0.76799E+00 
  41811.7594     0.76881E+00 
  41844.0215     0.76962E+00 
  41876.2837     0.77040E+00 
  41908.5458     0.77117E+00 
  41940.8080     0.77191E+00 
  41973.0702     0.77262E+00 
  42005.3323     0.77332E+00 
  42037.5945     0.77399E+00 
  42069.8566     0.77465E+00 
  42102.1188     0.77527E+00 
  42134.3810     0.77588E+00 
  42166.6431     0.77647E+00 
  42198.9053     0.77703E+00 
  42231.1674     0.77757E+00 
  42263.4296     0.77809E+00 
  42295.6918     0.77859E+00 
  42327.9539     0.77906E+00 
  42360.2161     0.77951E+00 
  42392.4782     0.77994E+00 
  42424.7404     0.78035E+00 
  42457.0026     0.78073E+00 
  42489.2647     0.78110E+00 
  42521.5269     0.78144E+00 
  42553.7890     0.78175E+00 
  42586.0512     0.78205E+00 
  42618.3134     0.78232E+00 
  42650.5755     0.78257E+00 
  42682.8377     0.78280E+00 
  42715.0998     0.78301E+00 
  42747.3620     0.78319E+00 
  42779.6242     0.78336E+00 
  42811.8863     0.78350E+00 
  42844.1485     0.78362E+00 
  42876.4106     0.78371E+00 
  42908.6728     0.78379E+00 
  42940.9350     0.78384E+00 
  42973.1971     0.78387E+00 
  43005.4593     0.78387E+00 
  43037.7214     0.78386E+00 
  43069.9836     0.78382E+00 
  43102.2458     0.78377E+00 
  43134.5079     0.78369E+00 
  43166.7701     0.78358E+00 
  43199.0322     0.78346E+00 
  43231.2944     0.78332E+00 
  43263.5566     0.78315E+00 
  43295.8187     0.78296E+00 
  43328.0809     0.78275E+00 
  43360.3430     0.78252E+00 
  43392.6052     0.78226E+00 
  43424.8674     0.78199E+00 
  43457.1295     0.78169E+00 
  43489.3917     0.78138E+00 
  43521.6538     0.78104E+00 
  43553.9160     0.78068E+00 
  43586.1782     0.78029E+00 
  43618.4403     0.77989E+00 
  43650.7025     0.77947E+00 
  43682.9646     0.77902E+00 
  43715.2268     0.77856E+00 
  43747.4890     0.77807E+00 
  43779.7511     0.77757E+00 
  43812.0133     0.77704E+00 
  43844.2754     0.77649E+00 
  43876.5376     0.77592E+00 
  43908.7998     0.77533E+00 
  43941.0619     0.77472E+00 
  43973.3241     0.77409E+00 
  44005.5862     0.77344E+00 
  44037.8484     0.77277E+00 
  44070.1106     0.77208E+00 
  44102.3727     0.77137E+00 
  44134.6349     0.77064E+00 
  44166.8970     0.76989E+00 
  44199.1592     0.76912E+00 
  44231.4214     0.76833E+00 
  44263.6835     0.76752E+00 
  44295.9457     0.76669E+00 
  44328.2078     0.76584E+00 
  44360.4700     0.76497E+00 
  44392.7322     0.76409E+00 
  44424.9943     0.76318E+00 
  44457.2565     0.76225E+00 
  44489.5186     0.76131E+00 
  44521.7808     0.76035E+00 
  44554.0430     0.75937E+00 
  44586.3051     0.75837E+00 
  44618.5673     0.75735E+00 
  44650.8294     0.75631E+00 
  44683.0916     0.75526E+00 
  44715.3538     0.75419E+00 
  44747.6159     0.75309E+00 
  44779.8781     0.75199E+00 
  44812.1402     0.75086E+00 
  44844.4024     0.74971E+00 
  44876.6646     0.74855E+00 
  44908.9267     0.74737E+00 
  44941.1889     0.74618E+00 
  44973.4510     0.74496E+00 
  45005.7132     0.74373E+00 
  45037.9754     0.74248E+00 
  45070.2375     0.74122E+00 
  45102.4997     0.73994E+00 
  45134.7618     0.73864E+00 
  45167.0240     0.73732E+00 
  45199.2862     0.73599E+00 
  45231.5483     0.73464E+00 
  45263.8105     0.73328E+00 
  45296.0726     0.73190E+00 
  45328.3348     0.73050E+00 
  45360.5970     0.72909E+00 
  45392.8591     0.72767E+00 
  45425.1213     0.72622E+00 
  45457.3834     0.72476E+00 
  45489.6456     0.72329E+00 
  45521.9078     0.72180E+00 
  45554.1699     0.72030E+00 
  45586.4321     0.71878E+00 
  45618.6942     0.71725E+00 
  45650.9564     0.71570E+00 
  45683.2186     0.71414E+00 
  45715.4807     0.71256E+00 
  45747.7429     0.71097E+00 
  45780.0050     0.70936E+00 
  45812.2672     0.70775E+00 
  45844.5294     0.70611E+00 
  45876.7915     0.70447E+00 
  45909.0537     0.70281E+00 
  45941.3158     0.70113E+00 
  45973.5780     0.69945E+00 
  46005.8402     0.69775E+00 
  46038.1023     0.69604E+00 
  46070.3645     0.69431E+00 
  46102.6266     0.69257E+00 
  46134.8888     0.69082E+00 
  46167.1510     0.68906E+00 
  46199.4131     0.68728E+00 
  46231.6753     0.68549E+00 
  46263.9374     0.68369E+00 
  46296.1996     0.68188E+00 
  46328.4618     0.68006E+00 
  46360.7239     0.67823E+00 
  46392.9861     0.67638E+00 
  46425.2482     0.67452E+00 
  46457.5104     0.67265E+00 
  46489.7726     0.67077E+00 
  46522.0347     0.66888E+00 
  46554.2969     0.66698E+00 
  46586.5590     0.66507E+00 
  46618.8212     0.66315E+00 
  46651.0834     0.66121E+00 
  46683.3455     0.65927E+00 
  46715.6077     0.65732E+00 
  46747.8698     0.65536E+00 
  46780.1320     0.65338E+00 
  46812.3942     0.65140E+00 
  46844.6563     0.64941E+00 
  46876.9185     0.64741E+00 
  46909.1806     0.64540E+00 
  46941.4428     0.64338E+00 
  46973.7050     0.64135E+00 
  47005.9671     0.63931E+00 
  47038.2293     0.63727E+00 
  47070.4914     0.63521E+00 
  47102.7536     0.63315E+00 
  47135.0158     0.63108E+00 
  47167.2779     0.62900E+00 
  47199.5401     0.62692E+00 
  47231.8022     0.62482E+00 
  47264.0644     0.62272E+00 
  47296.3266     0.62061E+00 
  47328.5887     0.61850E+00 
  47360.8509     0.61637E+00 
  47393.1130     0.61424E+00 
  47425.3752     0.61210E+00 
  47457.6374     0.60996E+00 
  47489.8995     0.60781E+00 
  47522.1617     0.60565E+00 
  47554.4238     0.60349E+00 
  47586.6860     0.60132E+00 
  47618.9482     0.59914E+00 
  47651.2103     0.59696E+00 
  47683.4725     0.59477E+00 
  47715.7346     0.59258E+00 
  47747.9968     0.59038E+00 
  47780.2590     0.58817E+00 
  47812.5211     0.58596E+00 
  47844.7833     0.58375E+00 
  47877.0454     0.58153E+00 
  47909.3076     0.57930E+00 
  47941.5698     0.57707E+00 
  47973.8319     0.57484E+00 
  48006.0941     0.57260E+00 
  48038.3562     0.57036E+00 
  48070.6184     0.56811E+00 
  48102.8806     0.56586E+00 
  48135.1427     0.56361E+00 
  48167.4049     0.56135E+00 
  48199.6670     0.55908E+00 
  48231.9292     0.55682E+00 
  48264.1914     0.55455E+00 
  48296.4535     0.55228E+00 
  48328.7157     0.55000E+00 
  48360.9778     0.54772E+00 
  48393.2400     0.54544E+00 
  48425.5022     0.54315E+00 
  48457.7643     0.54087E+00 
  48490.0265     0.53858E+00 
  48522.2886     0.53628E+00 
  48554.5508     0.53399E+00 
  48586.8130     0.53169E+00 
  48619.0751     0.52939E+00 
  48651.3373     0.52709E+00 
  48683.5994     0.52479E+00 
  48715.8616     0.52249E+00 
  48748.1238     0.52018E+00 
  48780.3859     0.51787E+00 
  48812.6481     0.51557E+00 
  48844.9102     0.51326E+00 
  48877.1724     0.51095E+00 
  48909.4346     0.50863E+00 
  48941.6967     0.50632E+00 
  48973.9589     0.50401E+00 
  49006.2210     0.50169E+00 
  49038.4832     0.49938E+00 
  49070.7454     0.49707E+00 
  49103.0075     0.49475E+00 
  49135.2697     0.49244E+00 
  49167.5318     0.49012E+00 
  49199.7940     0.48780E+00 
  49232.0562     0.48549E+00 
  49264.3183     0.48317E+00 
  49296.5805     0.48086E+00 
  49328.8426     0.47855E+00 
  49361.1048     0.47623E+00 
  49393.3670     0.47392E+00 
  49425.6291     0.47161E+00 
  49457.8913     0.46930E+00 
  49490.1534     0.46699E+00 
  49522.4156     0.46468E+00 
  49554.6778     0.46237E+00 
  49586.9399     0.46006E+00 
  49619.2021     0.45776E+00 
  49651.4642     0.45546E+00 
  49683.7264     0.45315E+00 
  49715.9886     0.45085E+00 
  49748.2507     0.44856E+00 
  49780.5129     0.44626E+00 
  49812.7750     0.44396E+00 
  49845.0372     0.44167E+00 
  49877.2994     0.43938E+00 
  49909.5615     0.43709E+00 
  49941.8237     0.43481E+00 
  49974.0858     0.43252E+00 
  50006.3480     0.43024E+00 
  50038.6102     0.42797E+00 
  50070.8723     0.42569E+00 
  50103.1345     0.42342E+00 
  50135.3966     0.42115E+00 
  50167.6588     0.41888E+00 
  50199.9210     0.41662E+00 
  50232.1831     0.41436E+00 
  50264.4453     0.41210E+00 
  50296.7074     0.40985E+00 
  50328.9696     0.40760E+00 
  50361.2318     0.40535E+00 
  50393.4939     0.40310E+00 
  50425.7561     0.40086E+00 
  50458.0182     0.39863E+00 
  50490.2804     0.39640E+00 
  50522.5426     0.39417E+00 
  50554.8047     0.39194E+00 
  50587.0669     0.38972E+00 
  50619.3290     0.38751E+00 
  50651.5912     0.38529E+00 
  50683.8534     0.38308E+00 
  50716.1155     0.38088E+00 
  50748.3777     0.37868E+00 
  50780.6398     0.37649E+00 
  50812.9020     0.37429E+00 
  50845.1642     0.37211E+00 
  50877.4263     0.36993E+00 
  50909.6885     0.36775E+00 
  50941.9506     0.36558E+00 
  50974.2128     0.36341E+00 
  51006.4750     0.36125E+00 
  51038.7371     0.35909E+00 
  51070.9993     0.35694E+00 
  51103.2614     0.35479E+00 
  51135.5236     0.35265E+00 
  51167.7858     0.35051E+00 
  51200.0479     0.34838E+00 
  51232.3101     0.34625E+00 
  51264.5722     0.34413E+00 
  51296.8344     0.34202E+00 
  51329.0966     0.33991E+00 
  51361.3587     0.33780E+00 
  51393.6209     0.33570E+00 
  51425.8830     0.33361E+00 
  51458.1452     0.33152E+00 
  51490.4074     0.32944E+00 
  51522.6695     0.32736E+00 
  51554.9317     0.32529E+00 
  51587.1938     0.32323E+00 
  51619.4560     0.32117E+00 
  51651.7182     0.31912E+00 
  51683.9803     0.31707E+00 
  51716.2425     0.31503E+00 
  51748.5046     0.31300E+00 
  51780.7668     0.31097E+00 
  51813.0290     0.30895E+00 
  51845.2911     0.30693E+00 
  51877.5533     0.30492E+00 
  51909.8154     0.30292E+00 
  51942.0776     0.30092E+00 
  51974.3398     0.29893E+00 
  52006.6019     0.29695E+00 
  52038.8641     0.29497E+00 
  52071.1262     0.29300E+00 
  52103.3884     0.29104E+00 
  52135.6506     0.28908E+00 
  52167.9127     0.28713E+00 
  52200.1749     0.28518E+00 
  52232.4370     0.28324E+00 
  52264.6992     0.28131E+00 
  52296.9614     0.27939E+00 
  52329.2235     0.27747E+00 
  52361.4857     0.27556E+00 
  52393.7478     0.27366E+00 
  52426.0100     0.27176E+00 
  52458.2722     0.26987E+00 
  52490.5343     0.26799E+00 
  52522.7965     0.26611E+00 
  52555.0586     0.26424E+00 
  52587.3208     0.26238E+00 
  52619.5830     0.26053E+00 
  52651.8451     0.25868E+00 
  52684.1073     0.25684E+00 
  52716.3694     0.25500E+00 
  52748.6316     0.25318E+00 
  52780.8938     0.25136E+00 
  52813.1559     0.24954E+00 
  52845.4181     0.24774E+00 
  52877.6802     0.24594E+00 
  52909.9424     0.24415E+00 
  52942.2046     0.24237E+00 
  52974.4667     0.24059E+00 
  53006.7289     0.23882E+00 
  53038.9910     0.23706E+00 
  53071.2532     0.23531E+00 
  53103.5154     0.23356E+00 
  53135.7775     0.23182E+00 
  53168.0397     0.23009E+00 
  53200.3018     0.22836E+00 
  53232.5640     0.22664E+00 
  53264.8262     0.22493E+00 
  53297.0883     0.22323E+00 
  53329.3505     0.22154E+00 
  53361.6126     0.21985E+00 
  53393.8748     0.21817E+00 
  53426.1370     0.21650E+00 
  53458.3991     0.21483E+00 
  53490.6613     0.21317E+00 
  53522.9234     0.21152E+00 
  53555.1856     0.20988E+00 
  53587.4478     0.20824E+00 
  53619.7099     0.20661E+00 
  53651.9721     0.20499E+00 
  53684.2342     0.20338E+00 
  53716.4964     0.20178E+00 
  53748.7586     0.20018E+00 
  53781.0207     0.19859E+00 
  53813.2829     0.19700E+00 
  53845.5450     0.19543E+00 
  53877.8072     0.19386E+00 
  53910.0694     0.19230E+00 
  53942.3315     0.19075E+00 
  53974.5937     0.18920E+00 
  54006.8558     0.18766E+00 
  54039.1180     0.18613E+00 
  54071.3802     0.18461E+00 
  54103.6423     0.18309E+00 
  54135.9045     0.18159E+00 
  54168.1666     0.18009E+00 
  54200.4288     0.17859E+00 
  54232.6910     0.17711E+00 
  54264.9531     0.17563E+00 
  54297.2153     0.17416E+00 
  54329.4774     0.17270E+00 
  54361.7396     0.17124E+00 
  54394.0018     0.16979E+00 
  54426.2639     0.16835E+00 
  54458.5261     0.16692E+00 
  54490.7882     0.16549E+00 
  54523.0504     0.16408E+00 
  54555.3126     0.16267E+00 
  54587.5747     0.16126E+00 
  54619.8369     0.15987E+00 
  54652.0990     0.15848E+00 
  54684.3612     0.15710E+00 
  54716.6234     0.15573E+00 
  54748.8855     0.15436E+00 
  54781.1477     0.15300E+00 
  54813.4098     0.15165E+00 
  54845.6720     0.15031E+00 
  54877.9342     0.14897E+00 
  54910.1963     0.14764E+00 
  54942.4585     0.14632E+00 
  54974.7206     0.14500E+00 
  55006.9828     0.14370E+00 
  55039.2450     0.14240E+00 
  55071.5071     0.14111E+00 
  55103.7693     0.13982E+00 
  55136.0314     0.13854E+00 
  55168.2936     0.13727E+00 
  55200.5558     0.13601E+00 
  55232.8179     0.13475E+00 
  55265.0801     0.13350E+00 
  55297.3422     0.13226E+00 
  55329.6044     0.13103E+00 
  55361.8666     0.12980E+00 
  55394.1287     0.12858E+00 
  55426.3909     0.12737E+00 
  55458.6530     0.12616E+00 
  55490.9152     0.12496E+00 
  55523.1774     0.12377E+00 
  55555.4395     0.12258E+00 
  55587.7017     0.12141E+00 
  55619.9638     0.12024E+00 
  55652.2260     0.11907E+00 
  55684.4882     0.11792E+00 
  55716.7503     0.11677E+00 
  55749.0125     0.11562E+00 
  55781.2746     0.11449E+00 
  55813.5368     0.11336E+00 
  55845.7990     0.11224E+00 
  55878.0611     0.11112E+00 
  55910.3233     0.11001E+00 
  55942.5854     0.10891E+00 
  55974.8476     0.10782E+00 
  56007.1098     0.10673E+00 
  56039.3719     0.10565E+00 
  56071.6341     0.10458E+00 
  56103.8962     0.10351E+00 
  56136.1584     0.10245E+00 
  56168.4206     0.10139E+00 
  56200.6827     0.10035E+00 
  56232.9449     0.99306E-01 
  56265.2070     0.98273E-01 
  56297.4692     0.97246E-01 
  56329.7314     0.96225E-01 
  56361.9935     0.95211E-01 
  56394.2557     0.94204E-01 
  56426.5178     0.93203E-01 
  56458.7800     0.92209E-01 
  56491.0422     0.91221E-01 
  56523.3043     0.90240E-01 
  56555.5665     0.89266E-01 
  56587.8286     0.88297E-01 
  56620.0908     0.87336E-01 
  56652.3530     0.86380E-01 
  56684.6151     0.85431E-01 
  56716.8773     0.84489E-01 
  56749.1394     0.83552E-01 
  56781.4016     0.82622E-01 
  56813.6638     0.81699E-01 
  56845.9259     0.80781E-01 
  56878.1881     0.79870E-01 
  56910.4502     0.78965E-01 
  56942.7124     0.78067E-01 
  56974.9746     0.77174E-01 
  57007.2367     0.76288E-01 
  57039.4989     0.75408E-01 
  57071.7610     0.74534E-01 
  57104.0232     0.73666E-01 
  57136.2854     0.72805E-01 
  57168.5475     0.71949E-01 
  57200.8097     0.71099E-01 
  57233.0718     0.70256E-01 
  57265.3340     0.69418E-01 
  57297.5962     0.68586E-01 
  57329.8583     0.67761E-01 
  57362.1205     0.66941E-01 
  57394.3826     0.66127E-01 
  57426.6448     0.65319E-01 
  57458.9070     0.64517E-01 
  57491.1691     0.63721E-01 
  57523.4313     0.62930E-01 
  57555.6934     0.62146E-01 
  57587.9556     0.61367E-01 
  57620.2178     0.60594E-01 
  57652.4799     0.59827E-01 
  57684.7421     0.59065E-01 
  57717.0042     0.58309E-01 
  57749.2664     0.57559E-01 
  57781.5286     0.56815E-01 
  57813.7907     0.56076E-01 
  57846.0529     0.55342E-01 
  57878.3150     0.54615E-01 
  57910.5772     0.53893E-01 
  57942.8394     0.53176E-01 
  57975.1015     0.52465E-01 
  58007.3637     0.51760E-01 
  58039.6258     0.51060E-01 
  58071.8880     0.50365E-01 
  58104.1502     0.49676E-01 
  58136.4123     0.48992E-01 
  58168.6745     0.48314E-01 
  58200.9366     0.47641E-01 
  58233.1988     0.46974E-01 
  58265.4610     0.46312E-01 
  58297.7231     0.45655E-01 
  58329.9853     0.45003E-01 
  58362.2474     0.44357E-01 
  58394.5096     0.43716E-01 
  58426.7718     0.43081E-01 
  58459.0339     0.42450E-01 
  58491.2961     0.41825E-01 
  58523.5582     0.41205E-01 
  58555.8204     0.40590E-01 
  58588.0826     0.39981E-01 
  58620.3447     0.39376E-01 
  58652.6069     0.38777E-01 
  58684.8690     0.38183E-01 
  58717.1312     0.37594E-01 
  58749.3934     0.37010E-01 
  58781.6555     0.36431E-01 
  58813.9177     0.35857E-01 
  58846.1798     0.35288E-01 
  58878.4420     0.34724E-01 
  58910.7042     0.34165E-01 
  58942.9663     0.33611E-01 
  58975.2285     0.33063E-01 
  59007.4906     0.32519E-01 
  59039.7528     0.31980E-01 
  59072.0150     0.31446E-01 
  59104.2771     0.30916E-01 
  59136.5393     0.30392E-01 
  59168.8014     0.29873E-01 
  59201.0636     0.29358E-01 
  59233.3258     0.28849E-01 
  59265.5879     0.28344E-01 
  59297.8501     0.27844E-01 
  59330.1122     0.27349E-01 
  59362.3744     0.26859E-01 
  59394.6366     0.26373E-01 
  59426.8987     0.25892E-01 
  59459.1609     0.25417E-01 
  59491.4230     0.24945E-01 
  59523.6852     0.24479E-01 
  59555.9474     0.24017E-01 
  59588.2095     0.23560E-01 
  59620.4717     0.23108E-01 
  59652.7338     0.22661E-01 
  59684.9960     0.22218E-01 
  59717.2582     0.21780E-01 
  59749.5203     0.21347E-01 
  59781.7825     0.20918E-01 
  59814.0446     0.20494E-01 
  59846.3068     0.20075E-01 
  59878.5690     0.19660E-01 
  59910.8311     0.19250E-01 
  59943.0933     0.18845E-01 
  59975.3554     0.18444E-01 
  60007.6176     0.18048E-01 
  60039.8798     0.17657E-01 
  60072.1419     0.17270E-01 
  60104.4041     0.16888E-01 
  60136.6662     0.16510E-01 
  60168.9284     0.16138E-01 
  60201.1906     0.15769E-01 
  60233.4527     0.15406E-01 
  60265.7149     0.15047E-01 
  60297.9770     0.14693E-01 
  60330.2392     0.14343E-01 
  60362.5014     0.13998E-01 
  60394.7635     0.13658E-01 
  60427.0257     0.13322E-01 
  60459.2878     0.12991E-01 
  60491.5500     0.12664E-01 
  60523.8122     0.12342E-01 
  60556.0743     0.12025E-01 
  60588.3365     0.11713E-01 
  60620.5986     0.11405E-01 
  60652.8608     0.11102E-01 
  60685.1230     0.10803E-01 
  60717.3851     0.10509E-01 
  60749.6473     0.10220E-01 
  60781.9094     0.99358E-02 
  60814.1716     0.96561E-02 
  60846.4338     0.93811E-02 
  60878.6959     0.91108E-02 
  60910.9581     0.88453E-02 
  60943.2202     0.85845E-02 
  60975.4824     0.83285E-02 
  61007.7446     0.80772E-02 
  61040.0067     0.78308E-02 
  61072.2689     0.75891E-02 
  61104.5310     0.73523E-02 
  61136.7932     0.71203E-02 
  61169.0554     0.68932E-02 
  61201.3175     0.66709E-02 
  61233.5797     0.64536E-02 
  61265.8418     0.62412E-02 
  61298.1040     0.60336E-02 
  61330.3662     0.58311E-02 
  61362.6283     0.56335E-02 
  61394.8905     0.54410E-02 
  61427.1526     0.52534E-02 
  61459.4148     0.50710E-02 
  61491.6770     0.48935E-02 
  61523.9391     0.47212E-02 
  61556.2013     0.45541E-02 
  61588.4634     0.43921E-02 
  61620.7256     0.42353E-02 
  61652.9878     0.40837E-02 
  61685.2499     0.39373E-02 
  61717.5121     0.37963E-02 
  61749.7742     0.36606E-02 
  61782.0364     0.35302E-02 
  61814.2986     0.34052E-02 
  61846.5607     0.32857E-02 
  61878.8229     0.31716E-02 
  61911.0850     0.30630E-02 
  61943.3472     0.29600E-02 
  61975.6094     0.28626E-02 
  62007.8715     0.27708E-02 
  62040.1337     0.26847E-02 
  62072.3958     0.26043E-02 
  62104.6580     0.25296E-02 
  62136.9202     0.24608E-02 
  62169.1823     0.23979E-02 
  62201.4445     0.23409E-02 
  62233.7066     0.22898E-02 
  62265.9688     0.22448E-02 
  62298.2310     0.22059E-02 
  62330.4931     0.21731E-02 
  62362.7553     0.21464E-02 
  62395.0174     0.21261E-02 
  62427.2796     0.21120E-02 
  62459.5418     0.21043E-02 
  62491.8039     0.21031E-02 
  62524.0661     0.21083E-02 
  62556.3282     0.21201E-02 
  62588.5904     0.21386E-02 
  62620.8526     0.21638E-02 
  62653.1147     0.21957E-02 
  62685.3769     0.22345E-02 
  62717.6390     0.22802E-02 
  62749.9012     0.23329E-02 
  62782.1634     0.23927E-02 
  62814.4255     0.24597E-02 
  62846.6877     0.25338E-02 
  62878.9498     0.26153E-02 
  62911.2120     0.27043E-02 
  62943.4742     0.28007E-02 
  62975.7363     0.29047E-02 
  63007.9985     0.30163E-02 
  63040.2606     0.31358E-02 
  63072.5228     0.32631E-02 
  63104.7850     0.33983E-02 
  63137.0471     0.35416E-02 
  63169.3093     0.36931E-02 
  63201.5714     0.38528E-02 
  63233.8336     0.40209E-02 
  63266.0958     0.41974E-02 
  63298.3579     0.43826E-02 
  63330.6201     0.45764E-02 
  63362.8822     0.47790E-02 
  63395.1444     0.49906E-02 
  63427.4066     0.52112E-02 
  63459.6687     0.54409E-02 
  63491.9309     0.56800E-02 
  63524.1930     0.59284E-02 
  63556.4552     0.61864E-02 
  63588.7174     0.64540E-02 
  63620.9795     0.67314E-02 
  63653.2417     0.70188E-02 
  63685.5038     0.73162E-02 
  63717.7660     0.76239E-02 
  63750.0282     0.79419E-02 
  63782.2903     0.82703E-02 
  63814.5525     0.86095E-02 
  63846.8146     0.89594E-02 
  63879.0768     0.93203E-02 
  63911.3390     0.96922E-02 
  63943.6011     0.10075E-01 
  63975.8633     0.10470E-01 
  64008.1254     0.10876E-01 
  64040.3876     0.11294E-01 
  64072.6498     0.11724E-01 
  64104.9119     0.12166E-01 
  64137.1741     0.12621E-01 
  64169.4362     0.13087E-01 
  64201.6984     0.13567E-01 
  64233.9606     0.14059E-01 
  64266.2227     0.14564E-01 
  64298.4849     0.15083E-01 
  64330.7470     0.15615E-01 
  64363.0092     0.16160E-01 
  64395.2714     0.16719E-01 
  64427.5335     0.17293E-01 
  64459.7957     0.17880E-01 
  64492.0578     0.18482E-01 
  64524.3200     0.19099E-01 
  64556.5822     0.19730E-01 
  64588.8443     0.20377E-01 
  64621.1065     0.21039E-01 
  64653.3686     0.21716E-01 
  64685.6308     0.22409E-01 
  64717.8930     0.23118E-01 
  64750.1551     0.23844E-01 
  64782.4173     0.24586E-01 
  64814.6794     0.25345E-01 
  64846.9416     0.26120E-01 
  64879.2038     0.26913E-01 
  64911.4659     0.27724E-01 
  64943.7281     0.28552E-01 
  64975.9902     0.29399E-01 
  65008.2524     0.30263E-01 
  65040.5146     0.31147E-01 
  65072.7767     0.32049E-01 
  65105.0389     0.32971E-01 
  65137.3010     0.33912E-01 
  65169.5632     0.34872E-01 
  65201.8254     0.35853E-01 
  65234.0875     0.36854E-01 
  65266.3497     0.37876E-01 
  65298.6118     0.38919E-01 
  65330.8740     0.39983E-01 
  65363.1362     0.41069E-01 
  65395.3983     0.42176E-01 
  65427.6605     0.43306E-01 
  65459.9226     0.44459E-01 
  65492.1848     0.45635E-01 
  65524.4470     0.46834E-01 
  65556.7091     0.48056E-01 
  65588.9713     0.49303E-01 
  65621.2334     0.50574E-01 
  65653.4956     0.51869E-01 
  65685.7578     0.53190E-01 
  65718.0199     0.54536E-01 
  65750.2821     0.55909E-01 
  65782.5442     0.57307E-01 
  65814.8064     0.58732E-01 
  65847.0686     0.60184E-01 
  65879.3307     0.61664E-01 
  65911.5929     0.63171E-01 
  65943.8550     0.64707E-01 
  65976.1172     0.66271E-01 
  66008.3794     0.67864E-01 
  66040.6415     0.69487E-01 
  66072.9037     0.71140E-01 
  66105.1658     0.72823E-01 
  66137.4280     0.74537E-01 
  66169.6902     0.76282E-01 
  66201.9523     0.78059E-01 
  66234.2145     0.79869E-01 
  66266.4766     0.81711E-01 
  66298.7388     0.83586E-01 
  66331.0010     0.85494E-01 
  66363.2631     0.87437E-01 
  66395.5253     0.89414E-01 
  66427.7874     0.91427E-01 
  66460.0496     0.93475E-01 
  66492.3118     0.95559E-01 
  66524.5739     0.97679E-01 
  66556.8361     0.99837E-01 
  66589.0982     0.10203E+00 
  66621.3604     0.10427E+00 
  66653.6226     0.10654E+00 
  66685.8847     0.10885E+00 
  66718.1469     0.11120E+00 
  66750.4090     0.11359E+00 
  66782.6712     0.11603E+00 
  66814.9334     0.11850E+00 
  66847.1955     0.12102E+00 
  66879.4577     0.12357E+00 
  66911.7198     0.12618E+00 
  66943.9820     0.12882E+00 
  66976.2442     0.13151E+00 
  67008.5063     0.13425E+00 
  67040.7685     0.13703E+00 
  67073.0306     0.13986E+00 
  67105.2928     0.14273E+00 
  67137.5550     0.14565E+00 
  67169.8171     0.14862E+00 
  67202.0793     0.15164E+00 
  67234.3414     0.15471E+00 
  67266.6036     0.15782E+00 
  67298.8658     0.16099E+00 
  67331.1279     0.16421E+00 
  67363.3901     0.16748E+00 
  67395.6522     0.17081E+00 
  67427.9144     0.17419E+00 
  67460.1766     0.17762E+00 
  67492.4387     0.18111E+00 
  67524.7009     0.18465E+00 
  67556.9630     0.18825E+00 
  67589.2252     0.19190E+00 
  67621.4874     0.19562E+00 
  67653.7495     0.19939E+00 
  67686.0117     0.20322E+00 
  67718.2738     0.20711E+00 
  67750.5360     0.21106E+00 
  67782.7982     0.21508E+00 
  67815.0603     0.21915E+00 
  67847.3225     0.22329E+00 
  67879.5846     0.22749E+00 
  67911.8468     0.23176E+00 
  67944.1090     0.23609E+00 
  67976.3711     0.24049E+00 
  68008.6333     0.24495E+00 
  68040.8954     0.24948E+00 
  68073.1576     0.25408E+00 
  68105.4198     0.25875E+00 
  68137.6819     0.26349E+00 
  68169.9441     0.26831E+00 
  68202.2062     0.27319E+00 
  68234.4684     0.27814E+00 
  68266.7306     0.28317E+00 
  68298.9927     0.28828E+00 
  68331.2549     0.29346E+00 
  68363.5170     0.29871E+00 
  68395.7792     0.30404E+00 
  68428.0414     0.30945E+00 
  68460.3035     0.31494E+00 
  68492.5657     0.32051E+00 
  68524.8278     0.32615E+00 
  68557.0900     0.33188E+00 
  68589.3522     0.33770E+00 
  68621.6143     0.34359E+00 
  68653.8765     0.34957E+00 
  68686.1386     0.35563E+00 
  68718.4008     0.36178E+00 
  68750.6630     0.36802E+00 
  68782.9251     0.37435E+00 
  68815.1873     0.38076E+00 
  68847.4494     0.38726E+00 
  68879.7116     0.39386E+00 
  68911.9738     0.40054E+00 
  68944.2359     0.40732E+00 
  68976.4981     0.41419E+00 
  69008.7602     0.42116E+00 
  69041.0224     0.42822E+00 
  69073.2846     0.43537E+00 
  69105.5467     0.44263E+00 
  69137.8089     0.44998E+00 
  69170.0710     0.45744E+00 
  69202.3332     0.46499E+00 
  69234.5954     0.47264E+00 
  69266.8575     0.48040E+00 
  69299.1197     0.48826E+00 
  69331.3818     0.49623E+00 
  69363.6440     0.50430E+00 
  69395.9062     0.51247E+00 
  69428.1683     0.52076E+00 
  69460.4305     0.52915E+00 
  69492.6926     0.53765E+00 
  69524.9548     0.54626E+00 
  69557.2170     0.55499E+00 
  69589.4791     0.56382E+00 
  69621.7413     0.57277E+00 
  69654.0034     0.58184E+00 
  69686.2656     0.59102E+00 
  69718.5278     0.60031E+00 
  69750.7899     0.60973E+00 
  69783.0521     0.61926E+00 
  69815.3142     0.62891E+00 
  69847.5764     0.63869E+00 
  69879.8386     0.64858E+00 
  69912.1007     0.65860E+00 
  69944.3629     0.66874E+00 
  69976.6250     0.67901E+00 
  70008.8872     0.68941E+00 
  70041.1494     0.69993E+00 
  70073.4115     0.71058E+00 
  70105.6737     0.72135E+00 
  70137.9358     0.73226E+00 
  70170.1980     0.74330E+00 
  70202.4602     0.75447E+00 
  70234.7223     0.76578E+00 
  70266.9845     0.77722E+00 
  70299.2466     0.78879E+00 
  70331.5088     0.80051E+00 
  70363.7710     0.81235E+00 
  70396.0331     0.82434E+00 
  70428.2953     0.83647E+00 
  70460.5574     0.84874E+00 
  70492.8196     0.86115E+00 
  70525.0818     0.87370E+00 
  70557.3439     0.88640E+00 
  70589.6061     0.89924E+00 
  70621.8682     0.91223E+00 
  70654.1304     0.92536E+00 
  70686.3926     0.93864E+00 
  70718.6547     0.95207E+00 
  70750.9169     0.96566E+00 
  70783.1790     0.97939E+00 
  70815.4412     0.99327E+00 
  70847.7034     0.10073E+01 
  70879.9655     0.10215E+01 
  70912.2277     0.10358E+01 
  70944.4898     0.10503E+01 
  70976.7520     0.10650E+01 
  71009.0142     0.10798E+01 
  71041.2763     0.10948E+01 
  71073.5385     0.11099E+01 
  71105.8006     0.11252E+01 
  71138.0628     0.11407E+01 
  71170.3250     0.11563E+01 
  71202.5871     0.11721E+01 
  71234.8493     0.11880E+01 
  71267.1114     0.12041E+01 
  71299.3736     0.12204E+01 
  71331.6358     0.12369E+01 
  71363.8979     0.12535E+01 
  71396.1601     0.12703E+01 
  71428.4222     0.12872E+01 
  71460.6844     0.13044E+01 
  71492.9466     0.13217E+01 
  71525.2087     0.13391E+01 
  71557.4709     0.13568E+01 
  71589.7330     0.13746E+01 
  71621.9952     0.13926E+01 
  71654.2574     0.14107E+01 
  71686.5195     0.14291E+01 
  71718.7817     0.14476E+01 
  71751.0438     0.14663E+01 
  71783.3060     0.14852E+01 
  71815.5682     0.15043E+01 
  71847.8303     0.15235E+01 
  71880.0925     0.15429E+01 
  71912.3546     0.15625E+01 
  71944.6168     0.15823E+01 
  71976.8790     0.16023E+01 
  72009.1411     0.16224E+01 
  72041.4033     0.16428E+01 
  72073.6654     0.16633E+01 
  72105.9276     0.16840E+01 
  72138.1898     0.17049E+01 
  72170.4519     0.17260E+01 
  72202.7141     0.17473E+01 
  72234.9762     0.17687E+01 
  72267.2384     0.17904E+01 
  72299.5006     0.18122E+01 
  72331.7627     0.18342E+01 
  72364.0249     0.18565E+01 
  72396.2870     0.18789E+01 
  72428.5492     0.19015E+01 
  72460.8114     0.19243E+01 
  72493.0735     0.19473E+01 
  72525.3357     0.19705E+01 
  72557.5978     0.19938E+01 
  72589.8600     0.20174E+01 
