  32262.1600     0.19588E+02 
  32294.4222     0.19845E+02 
  32326.6843     0.20104E+02 
  32358.9465     0.20366E+02 
  32391.2086     0.20630E+02 
  32423.4708     0.20897E+02 
  32455.7330     0.21166E+02 
  32487.9951     0.21438E+02 
  32520.2573     0.21712E+02 
  32552.5194     0.21988E+02 
  32584.7816     0.22267E+02 
  32617.0438     0.22548E+02 
  32649.3059     0.22832E+02 
  32681.5681     0.23118E+02 
  32713.8302     0.23407E+02 
  32746.0924     0.23698E+02 
  32778.3546     0.23992E+02 
  32810.6167     0.24288E+02 
  32842.8789     0.24586E+02 
  32875.1410     0.24887E+02 
  32907.4032     0.25191E+02 
  32939.6654     0.25497E+02 
  32971.9275     0.25805E+02 
  33004.1897     0.26116E+02 
  33036.4518     0.26429E+02 
  33068.7140     0.26745E+02 
  33100.9762     0.27064E+02 
  33133.2383     0.27384E+02 
  33165.5005     0.27707E+02 
  33197.7626     0.28033E+02 
  33230.0248     0.28361E+02 
  33262.2870     0.28692E+02 
  33294.5491     0.29025E+02 
  33326.8113     0.29360E+02 
  33359.0734     0.29698E+02 
  33391.3356     0.30039E+02 
  33423.5978     0.30382E+02 
  33455.8599     0.30727E+02 
  33488.1221     0.31075E+02 
  33520.3842     0.31425E+02 
  33552.6464     0.31778E+02 
  33584.9086     0.32133E+02 
  33617.1707     0.32490E+02 
  33649.4329     0.32850E+02 
  33681.6950     0.33212E+02 
  33713.9572     0.33577E+02 
  33746.2194     0.33944E+02 
  33778.4815     0.34314E+02 
  33810.7437     0.34685E+02 
  33843.0058     0.35060E+02 
  33875.2680     0.35436E+02 
  33907.5302     0.35815E+02 
  33939.7923     0.36196E+02 
  33972.0545     0.36580E+02 
  34004.3166     0.36966E+02 
  34036.5788     0.37354E+02 
  34068.8410     0.37744E+02 
  34101.1031     0.38137E+02 
  34133.3653     0.38532E+02 
  34165.6274     0.38930E+02 
  34197.8896     0.39329E+02 
  34230.1518     0.39731E+02 
  34262.4139     0.40135E+02 
  34294.6761     0.40541E+02 
  34326.9382     0.40950E+02 
  34359.2004     0.41360E+02 
  34391.4626     0.41773E+02 
  34423.7247     0.42188E+02 
  34455.9869     0.42605E+02 
  34488.2490     0.43024E+02 
  34520.5112     0.43445E+02 
  34552.7734     0.43868E+02 
  34585.0355     0.44294E+02 
  34617.2977     0.44721E+02 
  34649.5598     0.45151E+02 
  34681.8220     0.45582E+02 
  34714.0842     0.46016E+02 
  34746.3463     0.46451E+02 
  34778.6085     0.46888E+02 
  34810.8706     0.47328E+02 
  34843.1328     0.47769E+02 
  34875.3950     0.48212E+02 
  34907.6571     0.48657E+02 
  34939.9193     0.49104E+02 
  34972.1814     0.49553E+02 
  35004.4436     0.50003E+02 
  35036.7058     0.50455E+02 
  35068.9679     0.50909E+02 
  35101.2301     0.51365E+02 
  35133.4922     0.51822E+02 
  35165.7544     0.52282E+02 
  35198.0166     0.52742E+02 
  35230.2787     0.53205E+02 
  35262.5409     0.53669E+02 
  35294.8030     0.54134E+02 
  35327.0652     0.54602E+02 
  35359.3274     0.55070E+02 
  35391.5895     0.55541E+02 
  35423.8517     0.56012E+02 
  35456.1138     0.56485E+02 
  35488.3760     0.56960E+02 
  35520.6382     0.57436E+02 
  35552.9003     0.57913E+02 
  35585.1625     0.58392E+02 
  35617.4246     0.58872E+02 
  35649.6868     0.59353E+02 
  35681.9490     0.59836E+02 
  35714.2111     0.60319E+02 
  35746.4733     0.60804E+02 
  35778.7354     0.61290E+02 
  35810.9976     0.61778E+02 
  35843.2598     0.62266E+02 
  35875.5219     0.62755E+02 
  35907.7841     0.63246E+02 
  35940.0462     0.63737E+02 
  35972.3084     0.64229E+02 
  36004.5706     0.64723E+02 
  36036.8327     0.65217E+02 
  36069.0949     0.65712E+02 
  36101.3570     0.66208E+02 
  36133.6192     0.66705E+02 
  36165.8814     0.67202E+02 
  36198.1435     0.67700E+02 
  36230.4057     0.68199E+02 
  36262.6678     0.68699E+02 
  36294.9300     0.69199E+02 
  36327.1922     0.69700E+02 
  36359.4543     0.70201E+02 
  36391.7165     0.70703E+02 
  36423.9786     0.71205E+02 
  36456.2408     0.71708E+02 
  36488.5030     0.72211E+02 
  36520.7651     0.72715E+02 
  36553.0273     0.73219E+02 
  36585.2894     0.73723E+02 
  36617.5516     0.74228E+02 
  36649.8138     0.74732E+02 
  36682.0759     0.75237E+02 
  36714.3381     0.75742E+02 
  36746.6002     0.76247E+02 
  36778.8624     0.76753E+02 
  36811.1246     0.77258E+02 
  36843.3867     0.77763E+02 
  36875.6489     0.78268E+02 
  36907.9110     0.78774E+02 
  36940.1732     0.79279E+02 
  36972.4354     0.79783E+02 
  37004.6975     0.80288E+02 
  37036.9597     0.80792E+02 
  37069.2218     0.81297E+02 
  37101.4840     0.81800E+02 
  37133.7462     0.82304E+02 
  37166.0083     0.82807E+02 
  37198.2705     0.83310E+02 
  37230.5326     0.83812E+02 
  37262.7948     0.84313E+02 
  37295.0570     0.84815E+02 
  37327.3191     0.85315E+02 
  37359.5813     0.85815E+02 
  37391.8434     0.86314E+02 
  37424.1056     0.86813E+02 
  37456.3678     0.87310E+02 
  37488.6299     0.87807E+02 
  37520.8921     0.88303E+02 
  37553.1542     0.88798E+02 
  37585.4164     0.89293E+02 
  37617.6786     0.89786E+02 
  37649.9407     0.90278E+02 
  37682.2029     0.90770E+02 
  37714.4650     0.91260E+02 
  37746.7272     0.91749E+02 
  37778.9894     0.92237E+02 
  37811.2515     0.92723E+02 
  37843.5137     0.93209E+02 
  37875.7758     0.93693E+02 
  37908.0380     0.94176E+02 
  37940.3002     0.94657E+02 
  37972.5623     0.95137E+02 
  38004.8245     0.95616E+02 
  38037.0866     0.96093E+02 
  38069.3488     0.96569E+02 
  38101.6110     0.97043E+02 
  38133.8731     0.97515E+02 
  38166.1353     0.97986E+02 
  38198.3974     0.98455E+02 
  38230.6596     0.98922E+02 
  38262.9218     0.99388E+02 
  38295.1839     0.99852E+02 
  38327.4461     0.10031E+03 
  38359.7082     0.10077E+03 
  38391.9704     0.10123E+03 
  38424.2326     0.10169E+03 
  38456.4947     0.10214E+03 
  38488.7569     0.10259E+03 
  38521.0190     0.10304E+03 
  38553.2812     0.10349E+03 
  38585.5434     0.10394E+03 
  38617.8055     0.10438E+03 
  38650.0677     0.10482E+03 
  38682.3298     0.10526E+03 
  38714.5920     0.10570E+03 
  38746.8542     0.10613E+03 
  38779.1163     0.10657E+03 
  38811.3785     0.10700E+03 
  38843.6406     0.10742E+03 
  38875.9028     0.10785E+03 
  38908.1650     0.10827E+03 
  38940.4271     0.10869E+03 
  38972.6893     0.10911E+03 
  39004.9514     0.10952E+03 
  39037.2136     0.10993E+03 
  39069.4758     0.11034E+03 
  39101.7379     0.11075E+03 
  39134.0001     0.11115E+03 
  39166.2622     0.11155E+03 
  39198.5244     0.11195E+03 
  39230.7866     0.11235E+03 
  39263.0487     0.11274E+03 
  39295.3109     0.11313E+03 
  39327.5730     0.11351E+03 
  39359.8352     0.11390E+03 
  39392.0974     0.11428E+03 
  39424.3595     0.11465E+03 
  39456.6217     0.11503E+03 
  39488.8838     0.11540E+03 
  39521.1460     0.11577E+03 
  39553.4082     0.11613E+03 
  39585.6703     0.11649E+03 
  39617.9325     0.11685E+03 
  39650.1946     0.11721E+03 
  39682.4568     0.11756E+03 
  39714.7190     0.11791E+03 
  39746.9811     0.11825E+03 
  39779.2433     0.11859E+03 
  39811.5054     0.11893E+03 
  39843.7676     0.11927E+03 
  39876.0298     0.11960E+03 
  39908.2919     0.11993E+03 
  39940.5541     0.12025E+03 
  39972.8162     0.12057E+03 
  40005.0784     0.12089E+03 
  40037.3406     0.12120E+03 
  40069.6027     0.12151E+03 
  40101.8649     0.12182E+03 
  40134.1270     0.12212E+03 
  40166.3892     0.12242E+03 
  40198.6514     0.12272E+03 
  40230.9135     0.12301E+03 
  40263.1757     0.12329E+03 
  40295.4378     0.12358E+03 
  40327.7000     0.12386E+03 
  40359.9622     0.12414E+03 
  40392.2243     0.12441E+03 
  40424.4865     0.12468E+03 
  40456.7486     0.12494E+03 
  40489.0108     0.12520E+03 
  40521.2730     0.12546E+03 
  40553.5351     0.12571E+03 
  40585.7973     0.12596E+03 
  40618.0594     0.12621E+03 
  40650.3216     0.12645E+03 
  40682.5838     0.12669E+03 
  40714.8459     0.12692E+03 
  40747.1081     0.12715E+03 
  40779.3702     0.12737E+03 
  40811.6324     0.12759E+03 
  40843.8946     0.12781E+03 
  40876.1567     0.12802E+03 
  40908.4189     0.12823E+03 
  40940.6810     0.12844E+03 
  40972.9432     0.12864E+03 
  41005.2054     0.12883E+03 
  41037.4675     0.12903E+03 
  41069.7297     0.12922E+03 
  41101.9918     0.12940E+03 
  41134.2540     0.12958E+03 
  41166.5162     0.12975E+03 
  41198.7783     0.12993E+03 
  41231.0405     0.13009E+03 
  41263.3026     0.13026E+03 
  41295.5648     0.13041E+03 
  41327.8270     0.13057E+03 
  41360.0891     0.13072E+03 
  41392.3513     0.13086E+03 
  41424.6134     0.13101E+03 
  41456.8756     0.13114E+03 
  41489.1378     0.13128E+03 
  41521.3999     0.13141E+03 
  41553.6621     0.13153E+03 
  41585.9242     0.13165E+03 
  41618.1864     0.13177E+03 
  41650.4486     0.13188E+03 
  41682.7107     0.13199E+03 
  41714.9729     0.13209E+03 
  41747.2350     0.13219E+03 
  41779.4972     0.13228E+03 
  41811.7594     0.13237E+03 
  41844.0215     0.13246E+03 
  41876.2837     0.13254E+03 
  41908.5458     0.13262E+03 
  41940.8080     0.13269E+03 
  41973.0702     0.13276E+03 
  42005.3323     0.13282E+03 
  42037.5945     0.13288E+03 
  42069.8566     0.13294E+03 
  42102.1188     0.13299E+03 
  42134.3810     0.13304E+03 
  42166.6431     0.13308E+03 
  42198.9053     0.13312E+03 
  42231.1674     0.13315E+03 
  42263.4296     0.13318E+03 
  42295.6918     0.13321E+03 
  42327.9539     0.13323E+03 
  42360.2161     0.13325E+03 
  42392.4782     0.13326E+03 
  42424.7404     0.13327E+03 
  42457.0026     0.13327E+03 
  42489.2647     0.13327E+03 
  42521.5269     0.13327E+03 
  42553.7890     0.13326E+03 
  42586.0512     0.13325E+03 
  42618.3134     0.13323E+03 
  42650.5755     0.13321E+03 
  42682.8377     0.13319E+03 
  42715.0998     0.13316E+03 
  42747.3620     0.13313E+03 
  42779.6242     0.13309E+03 
  42811.8863     0.13305E+03 
  42844.1485     0.13300E+03 
  42876.4106     0.13295E+03 
  42908.6728     0.13290E+03 
  42940.9350     0.13284E+03 
  42973.1971     0.13278E+03 
  43005.4593     0.13271E+03 
  43037.7214     0.13264E+03 
  43069.9836     0.13257E+03 
  43102.2458     0.13249E+03 
  43134.5079     0.13241E+03 
  43166.7701     0.13232E+03 
  43199.0322     0.13223E+03 
  43231.2944     0.13214E+03 
  43263.5566     0.13204E+03 
  43295.8187     0.13194E+03 
  43328.0809     0.13183E+03 
  43360.3430     0.13172E+03 
  43392.6052     0.13161E+03 
  43424.8674     0.13149E+03 
  43457.1295     0.13137E+03 
  43489.3917     0.13124E+03 
  43521.6538     0.13111E+03 
  43553.9160     0.13098E+03 
  43586.1782     0.13085E+03 
  43618.4403     0.13071E+03 
  43650.7025     0.13056E+03 
  43682.9646     0.13041E+03 
  43715.2268     0.13026E+03 
  43747.4890     0.13011E+03 
  43779.7511     0.12995E+03 
  43812.0133     0.12979E+03 
  43844.2754     0.12962E+03 
  43876.5376     0.12945E+03 
  43908.7998     0.12928E+03 
  43941.0619     0.12910E+03 
  43973.3241     0.12892E+03 
  44005.5862     0.12874E+03 
  44037.8484     0.12855E+03 
  44070.1106     0.12836E+03 
  44102.3727     0.12817E+03 
  44134.6349     0.12797E+03 
  44166.8970     0.12777E+03 
  44199.1592     0.12757E+03 
  44231.4214     0.12736E+03 
  44263.6835     0.12715E+03 
  44295.9457     0.12693E+03 
  44328.2078     0.12672E+03 
  44360.4700     0.12650E+03 
  44392.7322     0.12627E+03 
  44424.9943     0.12605E+03 
  44457.2565     0.12582E+03 
  44489.5186     0.12558E+03 
  44521.7808     0.12535E+03 
  44554.0430     0.12511E+03 
  44586.3051     0.12487E+03 
  44618.5673     0.12462E+03 
  44650.8294     0.12437E+03 
  44683.0916     0.12412E+03 
  44715.3538     0.12387E+03 
  44747.6159     0.12361E+03 
  44779.8781     0.12335E+03 
  44812.1402     0.12309E+03 
  44844.4024     0.12282E+03 
  44876.6646     0.12255E+03 
  44908.9267     0.12228E+03 
  44941.1889     0.12201E+03 
  44973.4510     0.12173E+03 
  45005.7132     0.12145E+03 
  45037.9754     0.12117E+03 
  45070.2375     0.12089E+03 
  45102.4997     0.12060E+03 
  45134.7618     0.12031E+03 
  45167.0240     0.12002E+03 
  45199.2862     0.11972E+03 
  45231.5483     0.11942E+03 
  45263.8105     0.11912E+03 
  45296.0726     0.11882E+03 
  45328.3348     0.11852E+03 
  45360.5970     0.11821E+03 
  45392.8591     0.11790E+03 
  45425.1213     0.11759E+03 
  45457.3834     0.11727E+03 
  45489.6456     0.11696E+03 
  45521.9078     0.11664E+03 
  45554.1699     0.11632E+03 
  45586.4321     0.11599E+03 
  45618.6942     0.11567E+03 
  45650.9564     0.11534E+03 
  45683.2186     0.11501E+03 
  45715.4807     0.11468E+03 
  45747.7429     0.11434E+03 
  45780.0050     0.11401E+03 
  45812.2672     0.11367E+03 
  45844.5294     0.11333E+03 
  45876.7915     0.11299E+03 
  45909.0537     0.11265E+03 
  45941.3158     0.11230E+03 
  45973.5780     0.11195E+03 
  46005.8402     0.11160E+03 
  46038.1023     0.11125E+03 
  46070.3645     0.11090E+03 
  46102.6266     0.11055E+03 
  46134.8888     0.11019E+03 
  46167.1510     0.10983E+03 
  46199.4131     0.10947E+03 
  46231.6753     0.10911E+03 
  46263.9374     0.10875E+03 
  46296.1996     0.10838E+03 
  46328.4618     0.10802E+03 
  46360.7239     0.10765E+03 
  46392.9861     0.10728E+03 
  46425.2482     0.10691E+03 
  46457.5104     0.10654E+03 
  46489.7726     0.10617E+03 
  46522.0347     0.10579E+03 
  46554.2969     0.10542E+03 
  46586.5590     0.10504E+03 
  46618.8212     0.10466E+03 
  46651.0834     0.10428E+03 
  46683.3455     0.10390E+03 
  46715.6077     0.10352E+03 
  46747.8698     0.10314E+03 
  46780.1320     0.10275E+03 
  46812.3942     0.10237E+03 
  46844.6563     0.10198E+03 
  46876.9185     0.10159E+03 
  46909.1806     0.10120E+03 
  46941.4428     0.10081E+03 
  46973.7050     0.10042E+03 
  47005.9671     0.10003E+03 
  47038.2293     0.99639E+02 
  47070.4914     0.99246E+02 
  47102.7536     0.98851E+02 
  47135.0158     0.98456E+02 
  47167.2779     0.98061E+02 
  47199.5401     0.97664E+02 
  47231.8022     0.97267E+02 
  47264.0644     0.96868E+02 
  47296.3266     0.96470E+02 
  47328.5887     0.96070E+02 
  47360.8509     0.95670E+02 
  47393.1130     0.95269E+02 
  47425.3752     0.94868E+02 
  47457.6374     0.94466E+02 
  47489.8995     0.94063E+02 
  47522.1617     0.93660E+02 
  47554.4238     0.93256E+02 
  47586.6860     0.92852E+02 
  47618.9482     0.92448E+02 
  47651.2103     0.92043E+02 
  47683.4725     0.91637E+02 
  47715.7346     0.91232E+02 
  47747.9968     0.90826E+02 
  47780.2590     0.90419E+02 
  47812.5211     0.90012E+02 
  47844.7833     0.89605E+02 
  47877.0454     0.89198E+02 
  47909.3076     0.88790E+02 
  47941.5698     0.88383E+02 
  47973.8319     0.87975E+02 
  48006.0941     0.87567E+02 
  48038.3562     0.87158E+02 
  48070.6184     0.86750E+02 
  48102.8806     0.86341E+02 
  48135.1427     0.85933E+02 
  48167.4049     0.85524E+02 
  48199.6670     0.85115E+02 
  48231.9292     0.84707E+02 
  48264.1914     0.84298E+02 
  48296.4535     0.83889E+02 
  48328.7157     0.83481E+02 
  48360.9778     0.83072E+02 
  48393.2400     0.82664E+02 
  48425.5022     0.82255E+02 
  48457.7643     0.81847E+02 
  48490.0265     0.81439E+02 
  48522.2886     0.81031E+02 
  48554.5508     0.80624E+02 
  48586.8130     0.80216E+02 
  48619.0751     0.79809E+02 
  48651.3373     0.79402E+02 
  48683.5994     0.78995E+02 
  48715.8616     0.78589E+02 
  48748.1238     0.78183E+02 
  48780.3859     0.77777E+02 
  48812.6481     0.77372E+02 
  48844.9102     0.76967E+02 
  48877.1724     0.76562E+02 
  48909.4346     0.76158E+02 
  48941.6967     0.75754E+02 
  48973.9589     0.75350E+02 
  49006.2210     0.74947E+02 
  49038.4832     0.74545E+02 
  49070.7454     0.74143E+02 
  49103.0075     0.73742E+02 
  49135.2697     0.73341E+02 
  49167.5318     0.72940E+02 
  49199.7940     0.72541E+02 
  49232.0562     0.72141E+02 
  49264.3183     0.71743E+02 
  49296.5805     0.71345E+02 
  49328.8426     0.70947E+02 
  49361.1048     0.70550E+02 
  49393.3670     0.70154E+02 
  49425.6291     0.69759E+02 
  49457.8913     0.69364E+02 
  49490.1534     0.68970E+02 
  49522.4156     0.68577E+02 
  49554.6778     0.68184E+02 
  49586.9399     0.67792E+02 
  49619.2021     0.67401E+02 
  49651.4642     0.67011E+02 
  49683.7264     0.66621E+02 
  49715.9886     0.66233E+02 
  49748.2507     0.65845E+02 
  49780.5129     0.65458E+02 
  49812.7750     0.65072E+02 
  49845.0372     0.64686E+02 
  49877.2994     0.64302E+02 
  49909.5615     0.63918E+02 
  49941.8237     0.63535E+02 
  49974.0858     0.63154E+02 
  50006.3480     0.62773E+02 
  50038.6102     0.62393E+02 
  50070.8723     0.62014E+02 
  50103.1345     0.61636E+02 
  50135.3966     0.61259E+02 
  50167.6588     0.60882E+02 
  50199.9210     0.60507E+02 
  50232.1831     0.60133E+02 
  50264.4453     0.59760E+02 
  50296.7074     0.59388E+02 
  50328.9696     0.59017E+02 
  50361.2318     0.58647E+02 
  50393.4939     0.58278E+02 
  50425.7561     0.57910E+02 
  50458.0182     0.57543E+02 
  50490.2804     0.57177E+02 
  50522.5426     0.56813E+02 
  50554.8047     0.56449E+02 
  50587.0669     0.56087E+02 
  50619.3290     0.55725E+02 
  50651.5912     0.55365E+02 
  50683.8534     0.55006E+02 
  50716.1155     0.54648E+02 
  50748.3777     0.54291E+02 
  50780.6398     0.53936E+02 
  50812.9020     0.53581E+02 
  50845.1642     0.53228E+02 
  50877.4263     0.52876E+02 
  50909.6885     0.52525E+02 
  50941.9506     0.52175E+02 
  50974.2128     0.51827E+02 
  51006.4750     0.51479E+02 
  51038.7371     0.51133E+02 
  51070.9993     0.50788E+02 
  51103.2614     0.50445E+02 
  51135.5236     0.50102E+02 
  51167.7858     0.49761E+02 
  51200.0479     0.49421E+02 
  51232.3101     0.49083E+02 
  51264.5722     0.48745E+02 
  51296.8344     0.48409E+02 
  51329.0966     0.48074E+02 
  51361.3587     0.47741E+02 
  51393.6209     0.47408E+02 
  51425.8830     0.47077E+02 
  51458.1452     0.46748E+02 
  51490.4074     0.46419E+02 
  51522.6695     0.46092E+02 
  51554.9317     0.45766E+02 
  51587.1938     0.45442E+02 
  51619.4560     0.45119E+02 
  51651.7182     0.44797E+02 
  51683.9803     0.44476E+02 
  51716.2425     0.44157E+02 
  51748.5046     0.43839E+02 
  51780.7668     0.43523E+02 
  51813.0290     0.43208E+02 
  51845.2911     0.42894E+02 
  51877.5533     0.42581E+02 
  51909.8154     0.42270E+02 
  51942.0776     0.41960E+02 
  51974.3398     0.41652E+02 
  52006.6019     0.41345E+02 
  52038.8641     0.41039E+02 
  52071.1262     0.40735E+02 
  52103.3884     0.40432E+02 
  52135.6506     0.40130E+02 
  52167.9127     0.39830E+02 
  52200.1749     0.39531E+02 
  52232.4370     0.39234E+02 
  52264.6992     0.38937E+02 
  52296.9614     0.38643E+02 
  52329.2235     0.38349E+02 
  52361.4857     0.38057E+02 
  52393.7478     0.37767E+02 
  52426.0100     0.37477E+02 
  52458.2722     0.37189E+02 
  52490.5343     0.36903E+02 
  52522.7965     0.36618E+02 
  52555.0586     0.36334E+02 
  52587.3208     0.36052E+02 
  52619.5830     0.35771E+02 
  52651.8451     0.35491E+02 
  52684.1073     0.35213E+02 
  52716.3694     0.34936E+02 
  52748.6316     0.34661E+02 
  52780.8938     0.34387E+02 
  52813.1559     0.34114E+02 
  52845.4181     0.33843E+02 
  52877.6802     0.33573E+02 
  52909.9424     0.33305E+02 
  52942.2046     0.33037E+02 
  52974.4667     0.32772E+02 
  53006.7289     0.32507E+02 
  53038.9910     0.32244E+02 
  53071.2532     0.31983E+02 
  53103.5154     0.31723E+02 
  53135.7775     0.31464E+02 
  53168.0397     0.31206E+02 
  53200.3018     0.30950E+02 
  53232.5640     0.30696E+02 
  53264.8262     0.30442E+02 
  53297.0883     0.30190E+02 
  53329.3505     0.29940E+02 
  53361.6126     0.29691E+02 
  53393.8748     0.29443E+02 
  53426.1370     0.29196E+02 
  53458.3991     0.28951E+02 
  53490.6613     0.28707E+02 
  53522.9234     0.28465E+02 
  53555.1856     0.28224E+02 
  53587.4478     0.27984E+02 
  53619.7099     0.27746E+02 
  53651.9721     0.27509E+02 
  53684.2342     0.27273E+02 
  53716.4964     0.27039E+02 
  53748.7586     0.26806E+02 
  53781.0207     0.26575E+02 
  53813.2829     0.26344E+02 
  53845.5450     0.26116E+02 
  53877.8072     0.25888E+02 
  53910.0694     0.25662E+02 
  53942.3315     0.25437E+02 
  53974.5937     0.25213E+02 
  54006.8558     0.24991E+02 
  54039.1180     0.24770E+02 
  54071.3802     0.24550E+02 
  54103.6423     0.24332E+02 
  54135.9045     0.24115E+02 
  54168.1666     0.23900E+02 
  54200.4288     0.23685E+02 
  54232.6910     0.23472E+02 
  54264.9531     0.23260E+02 
  54297.2153     0.23050E+02 
  54329.4774     0.22841E+02 
  54361.7396     0.22633E+02 
  54394.0018     0.22426E+02 
  54426.2639     0.22221E+02 
  54458.5261     0.22017E+02 
  54490.7882     0.21814E+02 
  54523.0504     0.21612E+02 
  54555.3126     0.21412E+02 
  54587.5747     0.21213E+02 
  54619.8369     0.21015E+02 
  54652.0990     0.20819E+02 
  54684.3612     0.20624E+02 
  54716.6234     0.20430E+02 
  54748.8855     0.20237E+02 
  54781.1477     0.20045E+02 
  54813.4098     0.19855E+02 
  54845.6720     0.19666E+02 
  54877.9342     0.19478E+02 
  54910.1963     0.19292E+02 
  54942.4585     0.19106E+02 
  54974.7206     0.18922E+02 
  55006.9828     0.18739E+02 
  55039.2450     0.18558E+02 
  55071.5071     0.18377E+02 
  55103.7693     0.18198E+02 
  55136.0314     0.18019E+02 
  55168.2936     0.17842E+02 
  55200.5558     0.17667E+02 
  55232.8179     0.17492E+02 
  55265.0801     0.17319E+02 
  55297.3422     0.17146E+02 
  55329.6044     0.16975E+02 
  55361.8666     0.16805E+02 
  55394.1287     0.16637E+02 
  55426.3909     0.16469E+02 
  55458.6530     0.16302E+02 
  55490.9152     0.16137E+02 
  55523.1774     0.15973E+02 
  55555.4395     0.15810E+02 
  55587.7017     0.15648E+02 
  55619.9638     0.15487E+02 
  55652.2260     0.15327E+02 
  55684.4882     0.15169E+02 
  55716.7503     0.15011E+02 
  55749.0125     0.14855E+02 
  55781.2746     0.14700E+02 
  55813.5368     0.14545E+02 
  55845.7990     0.14392E+02 
  55878.0611     0.14240E+02 
  55910.3233     0.14090E+02 
  55942.5854     0.13940E+02 
  55974.8476     0.13791E+02 
  56007.1098     0.13643E+02 
  56039.3719     0.13497E+02 
  56071.6341     0.13351E+02 
  56103.8962     0.13206E+02 
  56136.1584     0.13063E+02 
  56168.4206     0.12921E+02 
  56200.6827     0.12779E+02 
  56232.9449     0.12639E+02 
  56265.2070     0.12499E+02 
  56297.4692     0.12361E+02 
  56329.7314     0.12224E+02 
  56361.9935     0.12088E+02 
  56394.2557     0.11952E+02 
  56426.5178     0.11818E+02 
  56458.7800     0.11685E+02 
  56491.0422     0.11553E+02 
  56523.3043     0.11421E+02 
  56555.5665     0.11291E+02 
  56587.8286     0.11162E+02 
  56620.0908     0.11033E+02 
  56652.3530     0.10906E+02 
  56684.6151     0.10780E+02 
  56716.8773     0.10654E+02 
  56749.1394     0.10530E+02 
  56781.4016     0.10406E+02 
  56813.6638     0.10284E+02 
  56845.9259     0.10162E+02 
  56878.1881     0.10041E+02 
  56910.4502     0.99216E+01 
  56942.7124     0.98028E+01 
  56974.9746     0.96849E+01 
  57007.2367     0.95679E+01 
  57039.4989     0.94518E+01 
  57071.7610     0.93367E+01 
  57104.0232     0.92224E+01 
  57136.2854     0.91091E+01 
  57168.5475     0.89966E+01 
  57200.8097     0.88851E+01 
  57233.0718     0.87744E+01 
  57265.3340     0.86646E+01 
  57297.5962     0.85557E+01 
  57329.8583     0.84477E+01 
  57362.1205     0.83405E+01 
  57394.3826     0.82342E+01 
  57426.6448     0.81288E+01 
  57458.9070     0.80242E+01 
  57491.1691     0.79205E+01 
  57523.4313     0.78176E+01 
  57555.6934     0.77156E+01 
  57587.9556     0.76144E+01 
  57620.2178     0.75140E+01 
  57652.4799     0.74145E+01 
  57684.7421     0.73157E+01 
  57717.0042     0.72178E+01 
  57749.2664     0.71208E+01 
  57781.5286     0.70245E+01 
  57813.7907     0.69291E+01 
  57846.0529     0.68344E+01 
  57878.3150     0.67406E+01 
  57910.5772     0.66475E+01 
  57942.8394     0.65552E+01 
  57975.1015     0.64638E+01 
  58007.3637     0.63731E+01 
  58039.6258     0.62832E+01 
  58071.8880     0.61940E+01 
  58104.1502     0.61057E+01 
  58136.4123     0.60181E+01 
  58168.6745     0.59312E+01 
  58200.9366     0.58452E+01 
  58233.1988     0.57599E+01 
  58265.4610     0.56753E+01 
  58297.7231     0.55915E+01 
  58329.9853     0.55084E+01 
  58362.2474     0.54261E+01 
  58394.5096     0.53445E+01 
  58426.7718     0.52636E+01 
  58459.0339     0.51835E+01 
  58491.2961     0.51041E+01 
  58523.5582     0.50254E+01 
  58555.8204     0.49474E+01 
  58588.0826     0.48702E+01 
  58620.3447     0.47936E+01 
  58652.6069     0.47178E+01 
  58684.8690     0.46427E+01 
  58717.1312     0.45683E+01 
  58749.3934     0.44945E+01 
  58781.6555     0.44215E+01 
  58813.9177     0.43491E+01 
  58846.1798     0.42775E+01 
  58878.4420     0.42065E+01 
  58910.7042     0.41362E+01 
  58942.9663     0.40666E+01 
  58975.2285     0.39977E+01 
  59007.4906     0.39294E+01 
  59039.7528     0.38618E+01 
  59072.0150     0.37949E+01 
  59104.2771     0.37287E+01 
  59136.5393     0.36630E+01 
  59168.8014     0.35981E+01 
  59201.0636     0.35338E+01 
  59233.3258     0.34702E+01 
  59265.5879     0.34072E+01 
  59297.8501     0.33448E+01 
  59330.1122     0.32831E+01 
  59362.3744     0.32221E+01 
  59394.6366     0.31617E+01 
  59426.8987     0.31019E+01 
  59459.1609     0.30427E+01 
  59491.4230     0.29842E+01 
  59523.6852     0.29263E+01 
  59555.9474     0.28690E+01 
  59588.2095     0.28124E+01 
  59620.4717     0.27564E+01 
  59652.7338     0.27010E+01 
  59684.9960     0.26462E+01 
  59717.2582     0.25920E+01 
  59749.5203     0.25385E+01 
  59781.7825     0.24855E+01 
  59814.0446     0.24332E+01 
  59846.3068     0.23815E+01 
  59878.5690     0.23303E+01 
  59910.8311     0.22798E+01 
  59943.0933     0.22299E+01 
  59975.3554     0.21806E+01 
  60007.6176     0.21319E+01 
  60039.8798     0.20837E+01 
  60072.1419     0.20362E+01 
  60104.4041     0.19893E+01 
  60136.6662     0.19429E+01 
  60168.9284     0.18972E+01 
  60201.1906     0.18520E+01 
  60233.4527     0.18075E+01 
  60265.7149     0.17635E+01 
  60297.9770     0.17201E+01 
  60330.2392     0.16773E+01 
  60362.5014     0.16351E+01 
  60394.7635     0.15934E+01 
  60427.0257     0.15524E+01 
  60459.2878     0.15119E+01 
  60491.5500     0.14720E+01 
  60523.8122     0.14327E+01 
  60556.0743     0.13939E+01 
  60588.3365     0.13558E+01 
  60620.5986     0.13182E+01 
  60652.8608     0.12812E+01 
  60685.1230     0.12448E+01 
  60717.3851     0.12090E+01 
  60749.6473     0.11737E+01 
  60781.9094     0.11390E+01 
  60814.1716     0.11049E+01 
  60846.4338     0.10714E+01 
  60878.6959     0.10384E+01 
  60910.9581     0.10061E+01 
  60943.2202     0.97427E+00 
  60975.4824     0.94306E+00 
  61007.7446     0.91243E+00 
  61040.0067     0.88238E+00 
  61072.2689     0.85291E+00 
  61104.5310     0.82402E+00 
  61136.7932     0.79572E+00 
  61169.0554     0.76800E+00 
  61201.3175     0.74086E+00 
  61233.5797     0.71431E+00 
  61265.8418     0.68835E+00 
  61298.1040     0.66297E+00 
  61330.3662     0.63819E+00 
  61362.6283     0.61400E+00 
  61394.8905     0.59040E+00 
  61427.1526     0.56739E+00 
  61459.4148     0.54498E+00 
  61491.6770     0.52317E+00 
  61523.9391     0.50196E+00 
  61556.2013     0.48135E+00 
  61588.4634     0.46135E+00 
  61620.7256     0.44196E+00 
  61652.9878     0.42317E+00 
  61685.2499     0.40500E+00 
  61717.5121     0.38744E+00 
  61749.7742     0.37050E+00 
  61782.0364     0.35418E+00 
  61814.2986     0.33848E+00 
  61846.5607     0.32341E+00 
  61878.8229     0.30897E+00 
  61911.0850     0.29517E+00 
  61943.3472     0.28200E+00 
  61975.6094     0.26947E+00 
  62007.8715     0.25759E+00 
  62040.1337     0.24636E+00 
  62072.3958     0.23578E+00 
  62104.6580     0.22586E+00 
  62136.9202     0.21659E+00 
  62169.1823     0.20800E+00 
  62201.4445     0.20007E+00 
  62233.7066     0.19283E+00 
  62265.9688     0.18626E+00 
  62298.2310     0.18038E+00 
  62330.4931     0.17518E+00 
  62362.7553     0.17069E+00 
  62395.0174     0.16690E+00 
  62427.2796     0.16381E+00 
  62459.5418     0.16144E+00 
  62491.8039     0.15979E+00 
  62524.0661     0.15887E+00 
  62556.3282     0.15868E+00 
  62588.5904     0.15923E+00 
  62620.8526     0.16053E+00 
  62653.1147     0.16258E+00 
  62685.3769     0.16539E+00 
  62717.6390     0.16897E+00 
  62749.9012     0.17333E+00 
  62782.1634     0.17847E+00 
  62814.4255     0.18440E+00 
  62846.6877     0.19113E+00 
  62878.9498     0.19868E+00 
  62911.2120     0.20704E+00 
  62943.4742     0.21622E+00 
  62975.7363     0.22624E+00 
  63007.9985     0.23711E+00 
  63040.2606     0.24883E+00 
  63072.5228     0.26142E+00 
  63104.7850     0.27488E+00 
  63137.0471     0.28922E+00 
  63169.3093     0.30447E+00 
  63201.5714     0.32061E+00 
  63233.8336     0.33768E+00 
  63266.0958     0.35567E+00 
  63298.3579     0.37460E+00 
  63330.6201     0.39449E+00 
  63362.8822     0.41534E+00 
  63395.1444     0.43717E+00 
  63427.4066     0.45998E+00 
  63459.6687     0.48380E+00 
  63491.9309     0.50864E+00 
  63524.1930     0.53450E+00 
  63556.4552     0.56141E+00 
  63588.7174     0.58937E+00 
  63620.9795     0.61841E+00 
  63653.2417     0.64853E+00 
  63685.5038     0.67976E+00 
  63717.7660     0.71210E+00 
  63750.0282     0.74558E+00 
  63782.2903     0.78020E+00 
  63814.5525     0.81600E+00 
  63846.8146     0.85297E+00 
  63879.0768     0.89115E+00 
  63911.3390     0.93054E+00 
  63943.6011     0.97117E+00 
  63975.8633     0.10130E+01 
  64008.1254     0.10562E+01 
  64040.3876     0.11007E+01 
  64072.6498     0.11464E+01 
  64104.9119     0.11935E+01 
  64137.1741     0.12419E+01 
  64169.4362     0.12918E+01 
  64201.6984     0.13430E+01 
  64233.9606     0.13956E+01 
  64266.2227     0.14496E+01 
  64298.4849     0.15052E+01 
  64330.7470     0.15622E+01 
  64363.0092     0.16207E+01 
  64395.2714     0.16807E+01 
  64427.5335     0.17423E+01 
  64459.7957     0.18054E+01 
  64492.0578     0.18702E+01 
  64524.3200     0.19366E+01 
  64556.5822     0.20047E+01 
  64588.8443     0.20744E+01 
  64621.1065     0.21459E+01 
  64653.3686     0.22190E+01 
  64685.6308     0.22940E+01 
  64717.8930     0.23707E+01 
  64750.1551     0.24493E+01 
  64782.4173     0.25297E+01 
  64814.6794     0.26120E+01 
  64846.9416     0.26963E+01 
  64879.2038     0.27824E+01 
  64911.4659     0.28706E+01 
  64943.7281     0.29608E+01 
  64975.9902     0.30530E+01 
  65008.2524     0.31473E+01 
  65040.5146     0.32437E+01 
  65072.7767     0.33422E+01 
  65105.0389     0.34430E+01 
  65137.3010     0.35459E+01 
  65169.5632     0.36511E+01 
  65201.8254     0.37587E+01 
  65234.0875     0.38685E+01 
  65266.3497     0.39808E+01 
  65298.6118     0.40954E+01 
  65330.8740     0.42125E+01 
  65363.1362     0.43321E+01 
  65395.3983     0.44543E+01 
  65427.6605     0.45790E+01 
  65459.9226     0.47064E+01 
  65492.1848     0.48364E+01 
  65524.4470     0.49691E+01 
  65556.7091     0.51047E+01 
  65588.9713     0.52430E+01 
  65621.2334     0.53842E+01 
  65653.4956     0.55282E+01 
  65685.7578     0.56753E+01 
  65718.0199     0.58253E+01 
  65750.2821     0.59784E+01 
  65782.5442     0.61346E+01 
  65814.8064     0.62940E+01 
  65847.0686     0.64566E+01 
  65879.3307     0.66224E+01 
  65911.5929     0.67916E+01 
  65943.8550     0.69642E+01 
  65976.1172     0.71402E+01 
  66008.3794     0.73196E+01 
  66040.6415     0.75027E+01 
  66072.9037     0.76893E+01 
  66105.1658     0.78797E+01 
  66137.4280     0.80737E+01 
  66169.6902     0.82716E+01 
  66201.9523     0.84733E+01 
  66234.2145     0.86790E+01 
  66266.4766     0.88886E+01 
  66298.7388     0.91023E+01 
  66331.0010     0.93202E+01 
  66363.2631     0.95422E+01 
  66395.5253     0.97685E+01 
  66427.7874     0.99992E+01 
  66460.0496     0.10234E+02 
  66492.3118     0.10474E+02 
  66524.5739     0.10718E+02 
  66556.8361     0.10967E+02 
  66589.0982     0.11220E+02 
  66621.3604     0.11478E+02 
  66653.6226     0.11741E+02 
  66685.8847     0.12009E+02 
  66718.1469     0.12282E+02 
  66750.4090     0.12561E+02 
  66782.6712     0.12844E+02 
  66814.9334     0.13133E+02 
  66847.1955     0.13427E+02 
  66879.4577     0.13726E+02 
  66911.7198     0.14031E+02 
  66943.9820     0.14342E+02 
  66976.2442     0.14658E+02 
  67008.5063     0.14980E+02 
  67040.7685     0.15308E+02 
  67073.0306     0.15642E+02 
  67105.2928     0.15983E+02 
  67137.5550     0.16329E+02 
  67169.8171     0.16682E+02 
  67202.0793     0.17041E+02 
  67234.3414     0.17406E+02 
  67266.6036     0.17778E+02 
  67298.8658     0.18157E+02 
  67331.1279     0.18543E+02 
  67363.3901     0.18935E+02 
  67395.6522     0.19335E+02 
  67427.9144     0.19742E+02 
  67460.1766     0.20156E+02 
  67492.4387     0.20577E+02 
  67524.7009     0.21006E+02 
  67556.9630     0.21442E+02 
  67589.2252     0.21886E+02 
  67621.4874     0.22338E+02 
  67653.7495     0.22798E+02 
  67686.0117     0.23266E+02 
  67718.2738     0.23742E+02 
  67750.5360     0.24226E+02 
  67782.7982     0.24719E+02 
  67815.0603     0.25220E+02 
  67847.3225     0.25730E+02 
  67879.5846     0.26249E+02 
  67911.8468     0.26777E+02 
  67944.1090     0.27314E+02 
  67976.3711     0.27860E+02 
  68008.6333     0.28415E+02 
  68040.8954     0.28980E+02 
  68073.1576     0.29554E+02 
  68105.4198     0.30139E+02 
  68137.6819     0.30733E+02 
  68169.9441     0.31337E+02 
  68202.2062     0.31951E+02 
  68234.4684     0.32576E+02 
  68266.7306     0.33211E+02 
  68298.9927     0.33857E+02 
  68331.2549     0.34514E+02 
  68363.5170     0.35182E+02 
  68395.7792     0.35860E+02 
  68428.0414     0.36550E+02 
  68460.3035     0.37251E+02 
  68492.5657     0.37964E+02 
  68524.8278     0.38689E+02 
  68557.0900     0.39425E+02 
  68589.3522     0.40174E+02 
  68621.6143     0.40935E+02 
  68653.8765     0.41708E+02 
  68686.1386     0.42494E+02 
  68718.4008     0.43292E+02 
  68750.6630     0.44103E+02 
  68782.9251     0.44928E+02 
  68815.1873     0.45765E+02 
  68847.4494     0.46616E+02 
  68879.7116     0.47481E+02 
  68911.9738     0.48359E+02 
  68944.2359     0.49251E+02 
  68976.4981     0.50158E+02 
  69008.7602     0.51078E+02 
  69041.0224     0.52014E+02 
  69073.2846     0.52963E+02 
  69105.5467     0.53928E+02 
  69137.8089     0.54908E+02 
  69170.0710     0.55903E+02 
  69202.3332     0.56913E+02 
  69234.5954     0.57939E+02 
  69266.8575     0.58981E+02 
  69299.1197     0.60039E+02 
  69331.3818     0.61113E+02 
  69363.6440     0.62204E+02 
  69395.9062     0.63311E+02 
  69428.1683     0.64435E+02 
  69460.4305     0.65576E+02 
  69492.6926     0.66734E+02 
  69524.9548     0.67910E+02 
  69557.2170     0.69103E+02 
  69589.4791     0.70314E+02 
  69621.7413     0.71543E+02 
  69654.0034     0.72790E+02 
  69686.2656     0.74056E+02 
  69718.5278     0.75341E+02 
  69750.7899     0.76644E+02 
  69783.0521     0.77967E+02 
  69815.3142     0.79308E+02 
  69847.5764     0.80670E+02 
  69879.8386     0.82051E+02 
  69912.1007     0.83452E+02 
  69944.3629     0.84873E+02 
  69976.6250     0.86314E+02 
  70008.8872     0.87777E+02 
  70041.1494     0.89260E+02 
  70073.4115     0.90764E+02 
  70105.6737     0.92289E+02 
  70137.9358     0.93836E+02 
  70170.1980     0.95405E+02 
  70202.4602     0.96996E+02 
  70234.7223     0.98609E+02 
  70266.9845     0.10024E+03 
  70299.2466     0.10190E+03 
  70331.5088     0.10358E+03 
  70363.7710     0.10529E+03 
  70396.0331     0.10701E+03 
  70428.2953     0.10877E+03 
  70460.5574     0.11054E+03 
  70492.8196     0.11234E+03 
  70525.0818     0.11416E+03 
  70557.3439     0.11601E+03 
  70589.6061     0.11788E+03 
  70621.8682     0.11978E+03 
  70654.1304     0.12170E+03 
  70686.3926     0.12365E+03 
  70718.6547     0.12562E+03 
  70750.9169     0.12762E+03 
  70783.1790     0.12965E+03 
  70815.4412     0.13170E+03 
  70847.7034     0.13378E+03 
  70879.9655     0.13588E+03 
  70912.2277     0.13802E+03 
  70944.4898     0.14018E+03 
  70976.7520     0.14236E+03 
  71009.0142     0.14458E+03 
  71041.2763     0.14682E+03 
  71073.5385     0.14909E+03 
  71105.8006     0.15139E+03 
  71138.0628     0.15372E+03 
  71170.3250     0.15608E+03 
  71202.5871     0.15846E+03 
  71234.8493     0.16088E+03 
  71267.1114     0.16333E+03 
  71299.3736     0.16580E+03 
  71331.6358     0.16831E+03 
  71363.8979     0.17084E+03 
  71396.1601     0.17341E+03 
  71428.4222     0.17601E+03 
  71460.6844     0.17863E+03 
  71492.9466     0.18129E+03 
  71525.2087     0.18398E+03 
  71557.4709     0.18671E+03 
  71589.7330     0.18946E+03 
  71621.9952     0.19225E+03 
  71654.2574     0.19507E+03 
  71686.5195     0.19792E+03 
  71718.7817     0.20080E+03 
  71751.0438     0.20372E+03 
  71783.3060     0.20667E+03 
  71815.5682     0.20965E+03 
  71847.8303     0.21267E+03 
  71880.0925     0.21572E+03 
  71912.3546     0.21881E+03 
  71944.6168     0.22193E+03 
  71976.8790     0.22508E+03 
  72009.1411     0.22827E+03 
  72041.4033     0.23149E+03 
  72073.6654     0.23475E+03 
  72105.9276     0.23804E+03 
  72138.1898     0.24137E+03 
  72170.4519     0.24473E+03 
  72202.7141     0.24813E+03 
  72234.9762     0.25157E+03 
  72267.2384     0.25504E+03 
  72299.5006     0.25855E+03 
  72331.7627     0.26210E+03 
  72364.0249     0.26568E+03 
  72396.2870     0.26930E+03 
  72428.5492     0.27295E+03 
  72460.8114     0.27664E+03 
  72493.0735     0.28037E+03 
  72525.3357     0.28414E+03 
  72557.5978     0.28795E+03 
  72589.8600     0.29179E+03 
