  32262.1600     0.13474E+02 
  32294.4222     0.13654E+02 
  32326.6843     0.13835E+02 
  32358.9465     0.14018E+02 
  32391.2086     0.14203E+02 
  32423.4708     0.14389E+02 
  32455.7330     0.14578E+02 
  32487.9951     0.14768E+02 
  32520.2573     0.14959E+02 
  32552.5194     0.15152E+02 
  32584.7816     0.15347E+02 
  32617.0438     0.15544E+02 
  32649.3059     0.15743E+02 
  32681.5681     0.15943E+02 
  32713.8302     0.16144E+02 
  32746.0924     0.16348E+02 
  32778.3546     0.16553E+02 
  32810.6167     0.16760E+02 
  32842.8789     0.16969E+02 
  32875.1410     0.17179E+02 
  32907.4032     0.17391E+02 
  32939.6654     0.17605E+02 
  32971.9275     0.17821E+02 
  33004.1897     0.18038E+02 
  33036.4518     0.18257E+02 
  33068.7140     0.18477E+02 
  33100.9762     0.18700E+02 
  33133.2383     0.18924E+02 
  33165.5005     0.19150E+02 
  33197.7626     0.19377E+02 
  33230.0248     0.19606E+02 
  33262.2870     0.19837E+02 
  33294.5491     0.20070E+02 
  33326.8113     0.20304E+02 
  33359.0734     0.20540E+02 
  33391.3356     0.20778E+02 
  33423.5978     0.21017E+02 
  33455.8599     0.21258E+02 
  33488.1221     0.21501E+02 
  33520.3842     0.21745E+02 
  33552.6464     0.21991E+02 
  33584.9086     0.22239E+02 
  33617.1707     0.22488E+02 
  33649.4329     0.22739E+02 
  33681.6950     0.22992E+02 
  33713.9572     0.23246E+02 
  33746.2194     0.23502E+02 
  33778.4815     0.23759E+02 
  33810.7437     0.24018E+02 
  33843.0058     0.24279E+02 
  33875.2680     0.24541E+02 
  33907.5302     0.24805E+02 
  33939.7923     0.25071E+02 
  33972.0545     0.25338E+02 
  34004.3166     0.25606E+02 
  34036.5788     0.25877E+02 
  34068.8410     0.26148E+02 
  34101.1031     0.26422E+02 
  34133.3653     0.26696E+02 
  34165.6274     0.26973E+02 
  34197.8896     0.27250E+02 
  34230.1518     0.27530E+02 
  34262.4139     0.27811E+02 
  34294.6761     0.28093E+02 
  34326.9382     0.28377E+02 
  34359.2004     0.28662E+02 
  34391.4626     0.28948E+02 
  34423.7247     0.29236E+02 
  34455.9869     0.29526E+02 
  34488.2490     0.29817E+02 
  34520.5112     0.30109E+02 
  34552.7734     0.30403E+02 
  34585.0355     0.30698E+02 
  34617.2977     0.30994E+02 
  34649.5598     0.31292E+02 
  34681.8220     0.31591E+02 
  34714.0842     0.31891E+02 
  34746.3463     0.32192E+02 
  34778.6085     0.32495E+02 
  34810.8706     0.32799E+02 
  34843.1328     0.33105E+02 
  34875.3950     0.33411E+02 
  34907.6571     0.33719E+02 
  34939.9193     0.34028E+02 
  34972.1814     0.34338E+02 
  35004.4436     0.34649E+02 
  35036.7058     0.34962E+02 
  35068.9679     0.35275E+02 
  35101.2301     0.35590E+02 
  35133.4922     0.35906E+02 
  35165.7544     0.36223E+02 
  35198.0166     0.36540E+02 
  35230.2787     0.36859E+02 
  35262.5409     0.37179E+02 
  35294.8030     0.37500E+02 
  35327.0652     0.37822E+02 
  35359.3274     0.38145E+02 
  35391.5895     0.38468E+02 
  35423.8517     0.38793E+02 
  35456.1138     0.39119E+02 
  35488.3760     0.39445E+02 
  35520.6382     0.39772E+02 
  35552.9003     0.40100E+02 
  35585.1625     0.40429E+02 
  35617.4246     0.40759E+02 
  35649.6868     0.41090E+02 
  35681.9490     0.41421E+02 
  35714.2111     0.41753E+02 
  35746.4733     0.42085E+02 
  35778.7354     0.42419E+02 
  35810.9976     0.42752E+02 
  35843.2598     0.43087E+02 
  35875.5219     0.43422E+02 
  35907.7841     0.43758E+02 
  35940.0462     0.44094E+02 
  35972.3084     0.44431E+02 
  36004.5706     0.44768E+02 
  36036.8327     0.45106E+02 
  36069.0949     0.45445E+02 
  36101.3570     0.45783E+02 
  36133.6192     0.46122E+02 
  36165.8814     0.46462E+02 
  36198.1435     0.46802E+02 
  36230.4057     0.47142E+02 
  36262.6678     0.47483E+02 
  36294.9300     0.47823E+02 
  36327.1922     0.48165E+02 
  36359.4543     0.48506E+02 
  36391.7165     0.48847E+02 
  36423.9786     0.49189E+02 
  36456.2408     0.49531E+02 
  36488.5030     0.49873E+02 
  36520.7651     0.50215E+02 
  36553.0273     0.50557E+02 
  36585.2894     0.50900E+02 
  36617.5516     0.51242E+02 
  36649.8138     0.51584E+02 
  36682.0759     0.51926E+02 
  36714.3381     0.52268E+02 
  36746.6002     0.52611E+02 
  36778.8624     0.52952E+02 
  36811.1246     0.53294E+02 
  36843.3867     0.53636E+02 
  36875.6489     0.53977E+02 
  36907.9110     0.54319E+02 
  36940.1732     0.54660E+02 
  36972.4354     0.55000E+02 
  37004.6975     0.55341E+02 
  37036.9597     0.55681E+02 
  37069.2218     0.56021E+02 
  37101.4840     0.56360E+02 
  37133.7462     0.56699E+02 
  37166.0083     0.57038E+02 
  37198.2705     0.57376E+02 
  37230.5326     0.57713E+02 
  37262.7948     0.58050E+02 
  37295.0570     0.58387E+02 
  37327.3191     0.58723E+02 
  37359.5813     0.59058E+02 
  37391.8434     0.59392E+02 
  37424.1056     0.59726E+02 
  37456.3678     0.60060E+02 
  37488.6299     0.60392E+02 
  37520.8921     0.60724E+02 
  37553.1542     0.61055E+02 
  37585.4164     0.61385E+02 
  37617.6786     0.61715E+02 
  37649.9407     0.62043E+02 
  37682.2029     0.62371E+02 
  37714.4650     0.62698E+02 
  37746.7272     0.63023E+02 
  37778.9894     0.63348E+02 
  37811.2515     0.63672E+02 
  37843.5137     0.63995E+02 
  37875.7758     0.64317E+02 
  37908.0380     0.64637E+02 
  37940.3002     0.64957E+02 
  37972.5623     0.65275E+02 
  38004.8245     0.65592E+02 
  38037.0866     0.65908E+02 
  38069.3488     0.66223E+02 
  38101.6110     0.66537E+02 
  38133.8731     0.66849E+02 
  38166.1353     0.67160E+02 
  38198.3974     0.67470E+02 
  38230.6596     0.67778E+02 
  38262.9218     0.68085E+02 
  38295.1839     0.68391E+02 
  38327.4461     0.68695E+02 
  38359.7082     0.68998E+02 
  38391.9704     0.69299E+02 
  38424.2326     0.69598E+02 
  38456.4947     0.69897E+02 
  38488.7569     0.70193E+02 
  38521.0190     0.70488E+02 
  38553.2812     0.70782E+02 
  38585.5434     0.71073E+02 
  38617.8055     0.71364E+02 
  38650.0677     0.71652E+02 
  38682.3298     0.71939E+02 
  38714.5920     0.72224E+02 
  38746.8542     0.72507E+02 
  38779.1163     0.72788E+02 
  38811.3785     0.73068E+02 
  38843.6406     0.73346E+02 
  38875.9028     0.73622E+02 
  38908.1650     0.73896E+02 
  38940.4271     0.74168E+02 
  38972.6893     0.74438E+02 
  39004.9514     0.74707E+02 
  39037.2136     0.74973E+02 
  39069.4758     0.75238E+02 
  39101.7379     0.75500E+02 
  39134.0001     0.75760E+02 
  39166.2622     0.76019E+02 
  39198.5244     0.76275E+02 
  39230.7866     0.76529E+02 
  39263.0487     0.76781E+02 
  39295.3109     0.77031E+02 
  39327.5730     0.77278E+02 
  39359.8352     0.77524E+02 
  39392.0974     0.77767E+02 
  39424.3595     0.78008E+02 
  39456.6217     0.78247E+02 
  39488.8838     0.78484E+02 
  39521.1460     0.78718E+02 
  39553.4082     0.78950E+02 
  39585.6703     0.79180E+02 
  39617.9325     0.79407E+02 
  39650.1946     0.79632E+02 
  39682.4568     0.79855E+02 
  39714.7190     0.80075E+02 
  39746.9811     0.80293E+02 
  39779.2433     0.80509E+02 
  39811.5054     0.80722E+02 
  39843.7676     0.80932E+02 
  39876.0298     0.81140E+02 
  39908.2919     0.81346E+02 
  39940.5541     0.81549E+02 
  39972.8162     0.81749E+02 
  40005.0784     0.81948E+02 
  40037.3406     0.82143E+02 
  40069.6027     0.82336E+02 
  40101.8649     0.82526E+02 
  40134.1270     0.82714E+02 
  40166.3892     0.82899E+02 
  40198.6514     0.83082E+02 
  40230.9135     0.83262E+02 
  40263.1757     0.83439E+02 
  40295.4378     0.83614E+02 
  40327.7000     0.83786E+02 
  40359.9622     0.83955E+02 
  40392.2243     0.84122E+02 
  40424.4865     0.84285E+02 
  40456.7486     0.84447E+02 
  40489.0108     0.84605E+02 
  40521.2730     0.84761E+02 
  40553.5351     0.84914E+02 
  40585.7973     0.85064E+02 
  40618.0594     0.85211E+02 
  40650.3216     0.85356E+02 
  40682.5838     0.85498E+02 
  40714.8459     0.85637E+02 
  40747.1081     0.85773E+02 
  40779.3702     0.85907E+02 
  40811.6324     0.86038E+02 
  40843.8946     0.86165E+02 
  40876.1567     0.86290E+02 
  40908.4189     0.86413E+02 
  40940.6810     0.86532E+02 
  40972.9432     0.86648E+02 
  41005.2054     0.86762E+02 
  41037.4675     0.86873E+02 
  41069.7297     0.86981E+02 
  41101.9918     0.87086E+02 
  41134.2540     0.87188E+02 
  41166.5162     0.87287E+02 
  41198.7783     0.87384E+02 
  41231.0405     0.87477E+02 
  41263.3026     0.87568E+02 
  41295.5648     0.87655E+02 
  41327.8270     0.87740E+02 
  41360.0891     0.87822E+02 
  41392.3513     0.87901E+02 
  41424.6134     0.87977E+02 
  41456.8756     0.88050E+02 
  41489.1378     0.88121E+02 
  41521.3999     0.88188E+02 
  41553.6621     0.88252E+02 
  41585.9242     0.88314E+02 
  41618.1864     0.88373E+02 
  41650.4486     0.88428E+02 
  41682.7107     0.88481E+02 
  41714.9729     0.88531E+02 
  41747.2350     0.88578E+02 
  41779.4972     0.88622E+02 
  41811.7594     0.88663E+02 
  41844.0215     0.88702E+02 
  41876.2837     0.88737E+02 
  41908.5458     0.88769E+02 
  41940.8080     0.88799E+02 
  41973.0702     0.88826E+02 
  42005.3323     0.88849E+02 
  42037.5945     0.88870E+02 
  42069.8566     0.88888E+02 
  42102.1188     0.88904E+02 
  42134.3810     0.88916E+02 
  42166.6431     0.88925E+02 
  42198.9053     0.88932E+02 
  42231.1674     0.88935E+02 
  42263.4296     0.88936E+02 
  42295.6918     0.88934E+02 
  42327.9539     0.88929E+02 
  42360.2161     0.88921E+02 
  42392.4782     0.88911E+02 
  42424.7404     0.88897E+02 
  42457.0026     0.88881E+02 
  42489.2647     0.88862E+02 
  42521.5269     0.88840E+02 
  42553.7890     0.88816E+02 
  42586.0512     0.88788E+02 
  42618.3134     0.88758E+02 
  42650.5755     0.88725E+02 
  42682.8377     0.88689E+02 
  42715.0998     0.88651E+02 
  42747.3620     0.88609E+02 
  42779.6242     0.88565E+02 
  42811.8863     0.88519E+02 
  42844.1485     0.88469E+02 
  42876.4106     0.88417E+02 
  42908.6728     0.88362E+02 
  42940.9350     0.88305E+02 
  42973.1971     0.88245E+02 
  43005.4593     0.88182E+02 
  43037.7214     0.88116E+02 
  43069.9836     0.88048E+02 
  43102.2458     0.87977E+02 
  43134.5079     0.87904E+02 
  43166.7701     0.87828E+02 
  43199.0322     0.87749E+02 
  43231.2944     0.87668E+02 
  43263.5566     0.87584E+02 
  43295.8187     0.87498E+02 
  43328.0809     0.87409E+02 
  43360.3430     0.87318E+02 
  43392.6052     0.87224E+02 
  43424.8674     0.87127E+02 
  43457.1295     0.87028E+02 
  43489.3917     0.86927E+02 
  43521.6538     0.86823E+02 
  43553.9160     0.86717E+02 
  43586.1782     0.86608E+02 
  43618.4403     0.86497E+02 
  43650.7025     0.86383E+02 
  43682.9646     0.86267E+02 
  43715.2268     0.86149E+02 
  43747.4890     0.86028E+02 
  43779.7511     0.85905E+02 
  43812.0133     0.85780E+02 
  43844.2754     0.85652E+02 
  43876.5376     0.85522E+02 
  43908.7998     0.85390E+02 
  43941.0619     0.85255E+02 
  43973.3241     0.85118E+02 
  44005.5862     0.84979E+02 
  44037.8484     0.84838E+02 
  44070.1106     0.84695E+02 
  44102.3727     0.84549E+02 
  44134.6349     0.84401E+02 
  44166.8970     0.84251E+02 
  44199.1592     0.84099E+02 
  44231.4214     0.83945E+02 
  44263.6835     0.83789E+02 
  44295.9457     0.83630E+02 
  44328.2078     0.83470E+02 
  44360.4700     0.83307E+02 
  44392.7322     0.83143E+02 
  44424.9943     0.82976E+02 
  44457.2565     0.82808E+02 
  44489.5186     0.82637E+02 
  44521.7808     0.82465E+02 
  44554.0430     0.82291E+02 
  44586.3051     0.82114E+02 
  44618.5673     0.81936E+02 
  44650.8294     0.81756E+02 
  44683.0916     0.81574E+02 
  44715.3538     0.81390E+02 
  44747.6159     0.81205E+02 
  44779.8781     0.81017E+02 
  44812.1402     0.80828E+02 
  44844.4024     0.80637E+02 
  44876.6646     0.80444E+02 
  44908.9267     0.80250E+02 
  44941.1889     0.80053E+02 
  44973.4510     0.79855E+02 
  45005.7132     0.79656E+02 
  45037.9754     0.79455E+02 
  45070.2375     0.79252E+02 
  45102.4997     0.79047E+02 
  45134.7618     0.78841E+02 
  45167.0240     0.78633E+02 
  45199.2862     0.78424E+02 
  45231.5483     0.78213E+02 
  45263.8105     0.78001E+02 
  45296.0726     0.77787E+02 
  45328.3348     0.77572E+02 
  45360.5970     0.77355E+02 
  45392.8591     0.77137E+02 
  45425.1213     0.76917E+02 
  45457.3834     0.76696E+02 
  45489.6456     0.76474E+02 
  45521.9078     0.76250E+02 
  45554.1699     0.76025E+02 
  45586.4321     0.75798E+02 
  45618.6942     0.75570E+02 
  45650.9564     0.75341E+02 
  45683.2186     0.75111E+02 
  45715.4807     0.74879E+02 
  45747.7429     0.74647E+02 
  45780.0050     0.74412E+02 
  45812.2672     0.74177E+02 
  45844.5294     0.73941E+02 
  45876.7915     0.73703E+02 
  45909.0537     0.73465E+02 
  45941.3158     0.73225E+02 
  45973.5780     0.72984E+02 
  46005.8402     0.72742E+02 
  46038.1023     0.72499E+02 
  46070.3645     0.72255E+02 
  46102.6266     0.72010E+02 
  46134.8888     0.71764E+02 
  46167.1510     0.71516E+02 
  46199.4131     0.71268E+02 
  46231.6753     0.71019E+02 
  46263.9374     0.70770E+02 
  46296.1996     0.70519E+02 
  46328.4618     0.70267E+02 
  46360.7239     0.70014E+02 
  46392.9861     0.69761E+02 
  46425.2482     0.69507E+02 
  46457.5104     0.69252E+02 
  46489.7726     0.68996E+02 
  46522.0347     0.68739E+02 
  46554.2969     0.68482E+02 
  46586.5590     0.68224E+02 
  46618.8212     0.67965E+02 
  46651.0834     0.67706E+02 
  46683.3455     0.67445E+02 
  46715.6077     0.67185E+02 
  46747.8698     0.66923E+02 
  46780.1320     0.66661E+02 
  46812.3942     0.66398E+02 
  46844.6563     0.66135E+02 
  46876.9185     0.65871E+02 
  46909.1806     0.65607E+02 
  46941.4428     0.65342E+02 
  46973.7050     0.65076E+02 
  47005.9671     0.64810E+02 
  47038.2293     0.64544E+02 
  47070.4914     0.64277E+02 
  47102.7536     0.64010E+02 
  47135.0158     0.63742E+02 
  47167.2779     0.63474E+02 
  47199.5401     0.63205E+02 
  47231.8022     0.62936E+02 
  47264.0644     0.62667E+02 
  47296.3266     0.62397E+02 
  47328.5887     0.62127E+02 
  47360.8509     0.61857E+02 
  47393.1130     0.61586E+02 
  47425.3752     0.61315E+02 
  47457.6374     0.61044E+02 
  47489.8995     0.60773E+02 
  47522.1617     0.60501E+02 
  47554.4238     0.60229E+02 
  47586.6860     0.59957E+02 
  47618.9482     0.59685E+02 
  47651.2103     0.59413E+02 
  47683.4725     0.59140E+02 
  47715.7346     0.58868E+02 
  47747.9968     0.58595E+02 
  47780.2590     0.58322E+02 
  47812.5211     0.58049E+02 
  47844.7833     0.57776E+02 
  47877.0454     0.57503E+02 
  47909.3076     0.57230E+02 
  47941.5698     0.56957E+02 
  47973.8319     0.56683E+02 
  48006.0941     0.56410E+02 
  48038.3562     0.56137E+02 
  48070.6184     0.55864E+02 
  48102.8806     0.55591E+02 
  48135.1427     0.55318E+02 
  48167.4049     0.55045E+02 
  48199.6670     0.54772E+02 
  48231.9292     0.54499E+02 
  48264.1914     0.54227E+02 
  48296.4535     0.53954E+02 
  48328.7157     0.53682E+02 
  48360.9778     0.53410E+02 
  48393.2400     0.53138E+02 
  48425.5022     0.52866E+02 
  48457.7643     0.52594E+02 
  48490.0265     0.52323E+02 
  48522.2886     0.52051E+02 
  48554.5508     0.51780E+02 
  48586.8130     0.51510E+02 
  48619.0751     0.51239E+02 
  48651.3373     0.50969E+02 
  48683.5994     0.50699E+02 
  48715.8616     0.50429E+02 
  48748.1238     0.50160E+02 
  48780.3859     0.49891E+02 
  48812.6481     0.49622E+02 
  48844.9102     0.49354E+02 
  48877.1724     0.49086E+02 
  48909.4346     0.48818E+02 
  48941.6967     0.48551E+02 
  48973.9589     0.48284E+02 
  49006.2210     0.48018E+02 
  49038.4832     0.47752E+02 
  49070.7454     0.47486E+02 
  49103.0075     0.47221E+02 
  49135.2697     0.46956E+02 
  49167.5318     0.46692E+02 
  49199.7940     0.46428E+02 
  49232.0562     0.46164E+02 
  49264.3183     0.45901E+02 
  49296.5805     0.45639E+02 
  49328.8426     0.45377E+02 
  49361.1048     0.45116E+02 
  49393.3670     0.44855E+02 
  49425.6291     0.44594E+02 
  49457.8913     0.44335E+02 
  49490.1534     0.44075E+02 
  49522.4156     0.43817E+02 
  49554.6778     0.43558E+02 
  49586.9399     0.43301E+02 
  49619.2021     0.43044E+02 
  49651.4642     0.42787E+02 
  49683.7264     0.42532E+02 
  49715.9886     0.42276E+02 
  49748.2507     0.42022E+02 
  49780.5129     0.41768E+02 
  49812.7750     0.41515E+02 
  49845.0372     0.41262E+02 
  49877.2994     0.41010E+02 
  49909.5615     0.40759E+02 
  49941.8237     0.40508E+02 
  49974.0858     0.40258E+02 
  50006.3480     0.40008E+02 
  50038.6102     0.39760E+02 
  50070.8723     0.39512E+02 
  50103.1345     0.39264E+02 
  50135.3966     0.39018E+02 
  50167.6588     0.38772E+02 
  50199.9210     0.38527E+02 
  50232.1831     0.38282E+02 
  50264.4453     0.38039E+02 
  50296.7074     0.37796E+02 
  50328.9696     0.37554E+02 
  50361.2318     0.37312E+02 
  50393.4939     0.37071E+02 
  50425.7561     0.36831E+02 
  50458.0182     0.36592E+02 
  50490.2804     0.36354E+02 
  50522.5426     0.36116E+02 
  50554.8047     0.35879E+02 
  50587.0669     0.35643E+02 
  50619.3290     0.35408E+02 
  50651.5912     0.35174E+02 
  50683.8534     0.34940E+02 
  50716.1155     0.34707E+02 
  50748.3777     0.34475E+02 
  50780.6398     0.34244E+02 
  50812.9020     0.34013E+02 
  50845.1642     0.33784E+02 
  50877.4263     0.33555E+02 
  50909.6885     0.33327E+02 
  50941.9506     0.33100E+02 
  50974.2128     0.32874E+02 
  51006.4750     0.32648E+02 
  51038.7371     0.32424E+02 
  51070.9993     0.32200E+02 
  51103.2614     0.31977E+02 
  51135.5236     0.31756E+02 
  51167.7858     0.31534E+02 
  51200.0479     0.31314E+02 
  51232.3101     0.31095E+02 
  51264.5722     0.30876E+02 
  51296.8344     0.30659E+02 
  51329.0966     0.30442E+02 
  51361.3587     0.30226E+02 
  51393.6209     0.30011E+02 
  51425.8830     0.29797E+02 
  51458.1452     0.29584E+02 
  51490.4074     0.29372E+02 
  51522.6695     0.29160E+02 
  51554.9317     0.28950E+02 
  51587.1938     0.28740E+02 
  51619.4560     0.28532E+02 
  51651.7182     0.28324E+02 
  51683.9803     0.28117E+02 
  51716.2425     0.27911E+02 
  51748.5046     0.27706E+02 
  51780.7668     0.27502E+02 
  51813.0290     0.27299E+02 
  51845.2911     0.27096E+02 
  51877.5533     0.26895E+02 
  51909.8154     0.26694E+02 
  51942.0776     0.26495E+02 
  51974.3398     0.26296E+02 
  52006.6019     0.26098E+02 
  52038.8641     0.25902E+02 
  52071.1262     0.25706E+02 
  52103.3884     0.25511E+02 
  52135.6506     0.25317E+02 
  52167.9127     0.25124E+02 
  52200.1749     0.24931E+02 
  52232.4370     0.24740E+02 
  52264.6992     0.24550E+02 
  52296.9614     0.24360E+02 
  52329.2235     0.24172E+02 
  52361.4857     0.23984E+02 
  52393.7478     0.23798E+02 
  52426.0100     0.23612E+02 
  52458.2722     0.23427E+02 
  52490.5343     0.23244E+02 
  52522.7965     0.23061E+02 
  52555.0586     0.22879E+02 
  52587.3208     0.22698E+02 
  52619.5830     0.22518E+02 
  52651.8451     0.22338E+02 
  52684.1073     0.22160E+02 
  52716.3694     0.21983E+02 
  52748.6316     0.21806E+02 
  52780.8938     0.21631E+02 
  52813.1559     0.21456E+02 
  52845.4181     0.21283E+02 
  52877.6802     0.21110E+02 
  52909.9424     0.20938E+02 
  52942.2046     0.20767E+02 
  52974.4667     0.20597E+02 
  53006.7289     0.20428E+02 
  53038.9910     0.20260E+02 
  53071.2532     0.20093E+02 
  53103.5154     0.19927E+02 
  53135.7775     0.19762E+02 
  53168.0397     0.19597E+02 
  53200.3018     0.19434E+02 
  53232.5640     0.19271E+02 
  53264.8262     0.19109E+02 
  53297.0883     0.18949E+02 
  53329.3505     0.18789E+02 
  53361.6126     0.18630E+02 
  53393.8748     0.18472E+02 
  53426.1370     0.18315E+02 
  53458.3991     0.18158E+02 
  53490.6613     0.18003E+02 
  53522.9234     0.17849E+02 
  53555.1856     0.17695E+02 
  53587.4478     0.17542E+02 
  53619.7099     0.17391E+02 
  53651.9721     0.17240E+02 
  53684.2342     0.17090E+02 
  53716.4964     0.16941E+02 
  53748.7586     0.16793E+02 
  53781.0207     0.16645E+02 
  53813.2829     0.16499E+02 
  53845.5450     0.16353E+02 
  53877.8072     0.16209E+02 
  53910.0694     0.16065E+02 
  53942.3315     0.15922E+02 
  53974.5937     0.15780E+02 
  54006.8558     0.15639E+02 
  54039.1180     0.15498E+02 
  54071.3802     0.15359E+02 
  54103.6423     0.15220E+02 
  54135.9045     0.15082E+02 
  54168.1666     0.14946E+02 
  54200.4288     0.14810E+02 
  54232.6910     0.14674E+02 
  54264.9531     0.14540E+02 
  54297.2153     0.14407E+02 
  54329.4774     0.14274E+02 
  54361.7396     0.14142E+02 
  54394.0018     0.14011E+02 
  54426.2639     0.13881E+02 
  54458.5261     0.13752E+02 
  54490.7882     0.13623E+02 
  54523.0504     0.13496E+02 
  54555.3126     0.13369E+02 
  54587.5747     0.13243E+02 
  54619.8369     0.13118E+02 
  54652.0990     0.12993E+02 
  54684.3612     0.12870E+02 
  54716.6234     0.12747E+02 
  54748.8855     0.12625E+02 
  54781.1477     0.12504E+02 
  54813.4098     0.12384E+02 
  54845.6720     0.12264E+02 
  54877.9342     0.12146E+02 
  54910.1963     0.12028E+02 
  54942.4585     0.11911E+02 
  54974.7206     0.11794E+02 
  55006.9828     0.11679E+02 
  55039.2450     0.11564E+02 
  55071.5071     0.11450E+02 
  55103.7693     0.11337E+02 
  55136.0314     0.11224E+02 
  55168.2936     0.11113E+02 
  55200.5558     0.11002E+02 
  55232.8179     0.10892E+02 
  55265.0801     0.10782E+02 
  55297.3422     0.10674E+02 
  55329.6044     0.10566E+02 
  55361.8666     0.10459E+02 
  55394.1287     0.10352E+02 
  55426.3909     0.10247E+02 
  55458.6530     0.10142E+02 
  55490.9152     0.10038E+02 
  55523.1774     0.99343E+01 
  55555.4395     0.98316E+01 
  55587.7017     0.97297E+01 
  55619.9638     0.96284E+01 
  55652.2260     0.95279E+01 
  55684.4882     0.94282E+01 
  55716.7503     0.93291E+01 
  55749.0125     0.92307E+01 
  55781.2746     0.91331E+01 
  55813.5368     0.90361E+01 
  55845.7990     0.89399E+01 
  55878.0611     0.88444E+01 
  55910.3233     0.87495E+01 
  55942.5854     0.86554E+01 
  55974.8476     0.85619E+01 
  56007.1098     0.84691E+01 
  56039.3719     0.83770E+01 
  56071.6341     0.82856E+01 
  56103.8962     0.81949E+01 
  56136.1584     0.81048E+01 
  56168.4206     0.80154E+01 
  56200.6827     0.79267E+01 
  56232.9449     0.78386E+01 
  56265.2070     0.77512E+01 
  56297.4692     0.76645E+01 
  56329.7314     0.75784E+01 
  56361.9935     0.74930E+01 
  56394.2557     0.74082E+01 
  56426.5178     0.73240E+01 
  56458.7800     0.72405E+01 
  56491.0422     0.71576E+01 
  56523.3043     0.70754E+01 
  56555.5665     0.69938E+01 
  56587.8286     0.69128E+01 
  56620.0908     0.68324E+01 
  56652.3530     0.67527E+01 
  56684.6151     0.66736E+01 
  56716.8773     0.65951E+01 
  56749.1394     0.65172E+01 
  56781.4016     0.64399E+01 
  56813.6638     0.63632E+01 
  56845.9259     0.62872E+01 
  56878.1881     0.62117E+01 
  56910.4502     0.61368E+01 
  56942.7124     0.60625E+01 
  56974.9746     0.59888E+01 
  57007.2367     0.59157E+01 
  57039.4989     0.58432E+01 
  57071.7610     0.57712E+01 
  57104.0232     0.56999E+01 
  57136.2854     0.56291E+01 
  57168.5475     0.55589E+01 
  57200.8097     0.54892E+01 
  57233.0718     0.54201E+01 
  57265.3340     0.53516E+01 
  57297.5962     0.52836E+01 
  57329.8583     0.52162E+01 
  57362.1205     0.51493E+01 
  57394.3826     0.50830E+01 
  57426.6448     0.50173E+01 
  57458.9070     0.49520E+01 
  57491.1691     0.48874E+01 
  57523.4313     0.48232E+01 
  57555.6934     0.47596E+01 
  57587.9556     0.46965E+01 
  57620.2178     0.46340E+01 
  57652.4799     0.45720E+01 
  57684.7421     0.45105E+01 
  57717.0042     0.44495E+01 
  57749.2664     0.43891E+01 
  57781.5286     0.43291E+01 
  57813.7907     0.42697E+01 
  57846.0529     0.42108E+01 
  57878.3150     0.41524E+01 
  57910.5772     0.40945E+01 
  57942.8394     0.40371E+01 
  57975.1015     0.39801E+01 
  58007.3637     0.39237E+01 
  58039.6258     0.38678E+01 
  58071.8880     0.38124E+01 
  58104.1502     0.37575E+01 
  58136.4123     0.37030E+01 
  58168.6745     0.36490E+01 
  58200.9366     0.35955E+01 
  58233.1988     0.35425E+01 
  58265.4610     0.34900E+01 
  58297.7231     0.34379E+01 
  58329.9853     0.33863E+01 
  58362.2474     0.33352E+01 
  58394.5096     0.32846E+01 
  58426.7718     0.32344E+01 
  58459.0339     0.31846E+01 
  58491.2961     0.31353E+01 
  58523.5582     0.30865E+01 
  58555.8204     0.30382E+01 
  58588.0826     0.29902E+01 
  58620.3447     0.29428E+01 
  58652.6069     0.28957E+01 
  58684.8690     0.28492E+01 
  58717.1312     0.28030E+01 
  58749.3934     0.27573E+01 
  58781.6555     0.27121E+01 
  58813.9177     0.26672E+01 
  58846.1798     0.26228E+01 
  58878.4420     0.25789E+01 
  58910.7042     0.25354E+01 
  58942.9663     0.24923E+01 
  58975.2285     0.24496E+01 
  59007.4906     0.24073E+01 
  59039.7528     0.23655E+01 
  59072.0150     0.23241E+01 
  59104.2771     0.22831E+01 
  59136.5393     0.22425E+01 
  59168.8014     0.22023E+01 
  59201.0636     0.21625E+01 
  59233.3258     0.21232E+01 
  59265.5879     0.20842E+01 
  59297.8501     0.20457E+01 
  59330.1122     0.20076E+01 
  59362.3744     0.19698E+01 
  59394.6366     0.19325E+01 
  59426.8987     0.18956E+01 
  59459.1609     0.18590E+01 
  59491.4230     0.18229E+01 
  59523.6852     0.17871E+01 
  59555.9474     0.17518E+01 
  59588.2095     0.17168E+01 
  59620.4717     0.16822E+01 
  59652.7338     0.16480E+01 
  59684.9960     0.16142E+01 
  59717.2582     0.15808E+01 
  59749.5203     0.15478E+01 
  59781.7825     0.15152E+01 
  59814.0446     0.14829E+01 
  59846.3068     0.14510E+01 
  59878.5690     0.14195E+01 
  59910.8311     0.13884E+01 
  59943.0933     0.13576E+01 
  59975.3554     0.13272E+01 
  60007.6176     0.12972E+01 
  60039.8798     0.12676E+01 
  60072.1419     0.12383E+01 
  60104.4041     0.12094E+01 
  60136.6662     0.11809E+01 
  60168.9284     0.11527E+01 
  60201.1906     0.11250E+01 
  60233.4527     0.10975E+01 
  60265.7149     0.10705E+01 
  60297.9770     0.10438E+01 
  60330.2392     0.10175E+01 
  60362.5014     0.99152E+00 
  60394.7635     0.96593E+00 
  60427.0257     0.94069E+00 
  60459.2878     0.91583E+00 
  60491.5500     0.89132E+00 
  60523.8122     0.86717E+00 
  60556.0743     0.84339E+00 
  60588.3365     0.81996E+00 
  60620.5986     0.79690E+00 
  60652.8608     0.77420E+00 
  60685.1230     0.75185E+00 
  60717.3851     0.72986E+00 
  60749.6473     0.70824E+00 
  60781.9094     0.68697E+00 
  60814.1716     0.66606E+00 
  60846.4338     0.64551E+00 
  60878.6959     0.62532E+00 
  60910.9581     0.60548E+00 
  60943.2202     0.58601E+00 
  60975.4824     0.56689E+00 
  61007.7446     0.54814E+00 
  61040.0067     0.52974E+00 
  61072.2689     0.51170E+00 
  61104.5310     0.49402E+00 
  61136.7932     0.47671E+00 
  61169.0554     0.45975E+00 
  61201.3175     0.44316E+00 
  61233.5797     0.42692E+00 
  61265.8418     0.41106E+00 
  61298.1040     0.39555E+00 
  61330.3662     0.38041E+00 
  61362.6283     0.36563E+00 
  61394.8905     0.35122E+00 
  61427.1526     0.33717E+00 
  61459.4148     0.32350E+00 
  61491.6770     0.31019E+00 
  61523.9391     0.29725E+00 
  61556.2013     0.28468E+00 
  61588.4634     0.27249E+00 
  61620.7256     0.26067E+00 
  61652.9878     0.24922E+00 
  61685.2499     0.23815E+00 
  61717.5121     0.22746E+00 
  61749.7742     0.21715E+00 
  61782.0364     0.20721E+00 
  61814.2986     0.19767E+00 
  61846.5607     0.18850E+00 
  61878.8229     0.17973E+00 
  61911.0850     0.17134E+00 
  61943.3472     0.16334E+00 
  61975.6094     0.15574E+00 
  62007.8715     0.14853E+00 
  62040.1337     0.14172E+00 
  62072.3958     0.13531E+00 
  62104.6580     0.12930E+00 
  62136.9202     0.12369E+00 
  62169.1823     0.11849E+00 
  62201.4445     0.11371E+00 
  62233.7066     0.10933E+00 
  62265.9688     0.10537E+00 
  62298.2310     0.10184E+00 
  62330.4931     0.98718E-01 
  62362.7553     0.96026E-01 
  62395.0174     0.93763E-01 
  62427.2796     0.91932E-01 
  62459.5418     0.90537E-01 
  62491.8039     0.89580E-01 
  62524.0661     0.89067E-01 
  62556.3282     0.89001E-01 
  62588.5904     0.89385E-01 
  62620.8526     0.90224E-01 
  62653.1147     0.91522E-01 
  62685.3769     0.93283E-01 
  62717.6390     0.95513E-01 
  62749.9012     0.98214E-01 
  62782.1634     0.10139E+00 
  62814.4255     0.10505E+00 
  62846.6877     0.10920E+00 
  62878.9498     0.11384E+00 
  62911.2120     0.11897E+00 
  62943.4742     0.12461E+00 
  62975.7363     0.13076E+00 
  63007.9985     0.13742E+00 
  63040.2606     0.14459E+00 
  63072.5228     0.15230E+00 
  63104.7850     0.16053E+00 
  63137.0471     0.16930E+00 
  63169.3093     0.17862E+00 
  63201.5714     0.18848E+00 
  63233.8336     0.19891E+00 
  63266.0958     0.20989E+00 
  63298.3579     0.22145E+00 
  63330.6201     0.23358E+00 
  63362.8822     0.24630E+00 
  63395.1444     0.25962E+00 
  63427.4066     0.27353E+00 
  63459.6687     0.28805E+00 
  63491.9309     0.30319E+00 
  63524.1930     0.31895E+00 
  63556.4552     0.33535E+00 
  63588.7174     0.35238E+00 
  63620.9795     0.37007E+00 
  63653.2417     0.38842E+00 
  63685.5038     0.40744E+00 
  63717.7660     0.42713E+00 
  63750.0282     0.44752E+00 
  63782.2903     0.46860E+00 
  63814.5525     0.49039E+00 
  63846.8146     0.51289E+00 
  63879.0768     0.53613E+00 
  63911.3390     0.56011E+00 
  63943.6011     0.58484E+00 
  63975.8633     0.61033E+00 
  64008.1254     0.63659E+00 
  64040.3876     0.66364E+00 
  64072.6498     0.69149E+00 
  64104.9119     0.72014E+00 
  64137.1741     0.74962E+00 
  64169.4362     0.77994E+00 
  64201.6984     0.81110E+00 
  64233.9606     0.84312E+00 
  64266.2227     0.87603E+00 
  64298.4849     0.90982E+00 
  64330.7470     0.94451E+00 
  64363.0092     0.98012E+00 
  64395.2714     0.10167E+01 
  64427.5335     0.10542E+01 
  64459.7957     0.10926E+01 
  64492.0578     0.11321E+01 
  64524.3200     0.11725E+01 
  64556.5822     0.12139E+01 
  64588.8443     0.12564E+01 
  64621.1065     0.12999E+01 
  64653.3686     0.13445E+01 
  64685.6308     0.13902E+01 
  64717.8930     0.14370E+01 
  64750.1551     0.14849E+01 
  64782.4173     0.15339E+01 
  64814.6794     0.15841E+01 
  64846.9416     0.16354E+01 
  64879.2038     0.16880E+01 
  64911.4659     0.17417E+01 
  64943.7281     0.17968E+01 
  64975.9902     0.18530E+01 
  65008.2524     0.19106E+01 
  65040.5146     0.19694E+01 
  65072.7767     0.20296E+01 
  65105.0389     0.20912E+01 
  65137.3010     0.21541E+01 
  65169.5632     0.22184E+01 
  65201.8254     0.22841E+01 
  65234.0875     0.23513E+01 
  65266.3497     0.24199E+01 
  65298.6118     0.24900E+01 
  65330.8740     0.25617E+01 
  65363.1362     0.26349E+01 
  65395.3983     0.27097E+01 
  65427.6605     0.27861E+01 
  65459.9226     0.28641E+01 
  65492.1848     0.29438E+01 
  65524.4470     0.30252E+01 
  65556.7091     0.31083E+01 
  65588.9713     0.31932E+01 
  65621.2334     0.32798E+01 
  65653.4956     0.33683E+01 
  65685.7578     0.34586E+01 
  65718.0199     0.35508E+01 
  65750.2821     0.36449E+01 
  65782.5442     0.37409E+01 
  65814.8064     0.38390E+01 
  65847.0686     0.39390E+01 
  65879.3307     0.40411E+01 
  65911.5929     0.41453E+01 
  65943.8550     0.42516E+01 
  65976.1172     0.43601E+01 
  66008.3794     0.44708E+01 
  66040.6415     0.45837E+01 
  66072.9037     0.46990E+01 
  66105.1658     0.48165E+01 
  66137.4280     0.49364E+01 
  66169.6902     0.50587E+01 
  66201.9523     0.51835E+01 
  66234.2145     0.53107E+01 
  66266.4766     0.54405E+01 
  66298.7388     0.55728E+01 
  66331.0010     0.57078E+01 
  66363.2631     0.58455E+01 
  66395.5253     0.59859E+01 
  66427.7874     0.61290E+01 
  66460.0496     0.62750E+01 
  66492.3118     0.64238E+01 
  66524.5739     0.65755E+01 
  66556.8361     0.67302E+01 
  66589.0982     0.68880E+01 
  66621.3604     0.70488E+01 
  66653.6226     0.72127E+01 
  66685.8847     0.73798E+01 
  66718.1469     0.75501E+01 
  66750.4090     0.77237E+01 
  66782.6712     0.79007E+01 
  66814.9334     0.80810E+01 
  66847.1955     0.82649E+01 
  66879.4577     0.84522E+01 
  66911.7198     0.86431E+01 
  66943.9820     0.88377E+01 
  66976.2442     0.90360E+01 
  67008.5063     0.92380E+01 
  67040.7685     0.94439E+01 
  67073.0306     0.96537E+01 
  67105.2928     0.98675E+01 
  67137.5550     0.10085E+02 
  67169.8171     0.10307E+02 
  67202.0793     0.10533E+02 
  67234.3414     0.10763E+02 
  67266.6036     0.10998E+02 
  67298.8658     0.11237E+02 
  67331.1279     0.11480E+02 
  67363.3901     0.11728E+02 
  67395.6522     0.11981E+02 
  67427.9144     0.12238E+02 
  67460.1766     0.12500E+02 
  67492.4387     0.12767E+02 
  67524.7009     0.13039E+02 
  67556.9630     0.13315E+02 
  67589.2252     0.13597E+02 
  67621.4874     0.13884E+02 
  67653.7495     0.14176E+02 
  67686.0117     0.14474E+02 
  67718.2738     0.14777E+02 
  67750.5360     0.15085E+02 
  67782.7982     0.15399E+02 
  67815.0603     0.15719E+02 
  67847.3225     0.16045E+02 
  67879.5846     0.16376E+02 
  67911.8468     0.16713E+02 
  67944.1090     0.17057E+02 
  67976.3711     0.17406E+02 
  68008.6333     0.17762E+02 
  68040.8954     0.18124E+02 
  68073.1576     0.18492E+02 
  68105.4198     0.18867E+02 
  68137.6819     0.19249E+02 
  68169.9441     0.19637E+02 
  68202.2062     0.20032E+02 
  68234.4684     0.20434E+02 
  68266.7306     0.20844E+02 
  68298.9927     0.21260E+02 
  68331.2549     0.21683E+02 
  68363.5170     0.22114E+02 
  68395.7792     0.22553E+02 
  68428.0414     0.22999E+02 
  68460.3035     0.23452E+02 
  68492.5657     0.23914E+02 
  68524.8278     0.24383E+02 
  68557.0900     0.24861E+02 
  68589.3522     0.25346E+02 
  68621.6143     0.25840E+02 
  68653.8765     0.26343E+02 
  68686.1386     0.26853E+02 
  68718.4008     0.27373E+02 
  68750.6630     0.27901E+02 
  68782.9251     0.28438E+02 
  68815.1873     0.28984E+02 
  68847.4494     0.29540E+02 
  68879.7116     0.30104E+02 
  68911.9738     0.30678E+02 
  68944.2359     0.31262E+02 
  68976.4981     0.31855E+02 
  69008.7602     0.32458E+02 
  69041.0224     0.33070E+02 
  69073.2846     0.33693E+02 
  69105.5467     0.34326E+02 
  69137.8089     0.34970E+02 
  69170.0710     0.35623E+02 
  69202.3332     0.36288E+02 
  69234.5954     0.36963E+02 
  69266.8575     0.37649E+02 
  69299.1197     0.38346E+02 
  69331.3818     0.39055E+02 
  69363.6440     0.39774E+02 
  69395.9062     0.40505E+02 
  69428.1683     0.41248E+02 
  69460.4305     0.42002E+02 
  69492.6926     0.42769E+02 
  69524.9548     0.43547E+02 
  69557.2170     0.44337E+02 
  69589.4791     0.45140E+02 
  69621.7413     0.45956E+02 
  69654.0034     0.46784E+02 
  69686.2656     0.47625E+02 
  69718.5278     0.48479E+02 
  69750.7899     0.49345E+02 
  69783.0521     0.50226E+02 
  69815.3142     0.51119E+02 
  69847.5764     0.52027E+02 
  69879.8386     0.52948E+02 
  69912.1007     0.53883E+02 
  69944.3629     0.54832E+02 
  69976.6250     0.55795E+02 
  70008.8872     0.56773E+02 
  70041.1494     0.57765E+02 
  70073.4115     0.58772E+02 
  70105.6737     0.59794E+02 
  70137.9358     0.60830E+02 
  70170.1980     0.61883E+02 
  70202.4602     0.62950E+02 
  70234.7223     0.64033E+02 
  70266.9845     0.65132E+02 
  70299.2466     0.66247E+02 
  70331.5088     0.67377E+02 
  70363.7710     0.68524E+02 
  70396.0331     0.69688E+02 
  70428.2953     0.70867E+02 
  70460.5574     0.72064E+02 
  70492.8196     0.73278E+02 
  70525.0818     0.74508E+02 
  70557.3439     0.75756E+02 
  70589.6061     0.77021E+02 
  70621.8682     0.78304E+02 
  70654.1304     0.79605E+02 
  70686.3926     0.80923E+02 
  70718.6547     0.82260E+02 
  70750.9169     0.83615E+02 
  70783.1790     0.84988E+02 
  70815.4412     0.86380E+02 
  70847.7034     0.87791E+02 
  70879.9655     0.89221E+02 
  70912.2277     0.90670E+02 
  70944.4898     0.92138E+02 
  70976.7520     0.93626E+02 
  71009.0142     0.95133E+02 
  71041.2763     0.96660E+02 
  71073.5385     0.98208E+02 
  71105.8006     0.99775E+02 
  71138.0628     0.10136E+03 
  71170.3250     0.10297E+03 
  71202.5871     0.10460E+03 
  71234.8493     0.10625E+03 
  71267.1114     0.10792E+03 
  71299.3736     0.10961E+03 
  71331.6358     0.11133E+03 
  71363.8979     0.11306E+03 
  71396.1601     0.11482E+03 
  71428.4222     0.11660E+03 
  71460.6844     0.11840E+03 
  71492.9466     0.12022E+03 
  71525.2087     0.12206E+03 
  71557.4709     0.12393E+03 
  71589.7330     0.12582E+03 
  71621.9952     0.12773E+03 
  71654.2574     0.12967E+03 
  71686.5195     0.13163E+03 
  71718.7817     0.13361E+03 
  71751.0438     0.13562E+03 
  71783.3060     0.13765E+03 
  71815.5682     0.13970E+03 
  71847.8303     0.14178E+03 
  71880.0925     0.14388E+03 
  71912.3546     0.14600E+03 
  71944.6168     0.14815E+03 
  71976.8790     0.15033E+03 
  72009.1411     0.15253E+03 
  72041.4033     0.15475E+03 
  72073.6654     0.15700E+03 
  72105.9276     0.15927E+03 
  72138.1898     0.16157E+03 
  72170.4519     0.16389E+03 
  72202.7141     0.16624E+03 
  72234.9762     0.16862E+03 
  72267.2384     0.17102E+03 
  72299.5006     0.17345E+03 
  72331.7627     0.17590E+03 
  72364.0249     0.17838E+03 
  72396.2870     0.18089E+03 
  72428.5492     0.18342E+03 
  72460.8114     0.18598E+03 
  72493.0735     0.18856E+03 
  72525.3357     0.19117E+03 
  72557.5978     0.19381E+03 
  72589.8600     0.19648E+03 
