  32262.1600     0.61632E+02 
  32294.4222     0.62424E+02 
  32326.6843     0.63224E+02 
  32358.9465     0.64030E+02 
  32391.2086     0.64843E+02 
  32423.4708     0.65663E+02 
  32455.7330     0.66491E+02 
  32487.9951     0.67325E+02 
  32520.2573     0.68166E+02 
  32552.5194     0.69015E+02 
  32584.7816     0.69870E+02 
  32617.0438     0.70733E+02 
  32649.3059     0.71603E+02 
  32681.5681     0.72479E+02 
  32713.8302     0.73363E+02 
  32746.0924     0.74254E+02 
  32778.3546     0.75152E+02 
  32810.6167     0.76057E+02 
  32842.8789     0.76969E+02 
  32875.1410     0.77888E+02 
  32907.4032     0.78815E+02 
  32939.6654     0.79748E+02 
  32971.9275     0.80688E+02 
  33004.1897     0.81636E+02 
  33036.4518     0.82590E+02 
  33068.7140     0.83552E+02 
  33100.9762     0.84520E+02 
  33133.2383     0.85496E+02 
  33165.5005     0.86478E+02 
  33197.7626     0.87468E+02 
  33230.0248     0.88464E+02 
  33262.2870     0.89467E+02 
  33294.5491     0.90478E+02 
  33326.8113     0.91495E+02 
  33359.0734     0.92519E+02 
  33391.3356     0.93550E+02 
  33423.5978     0.94588E+02 
  33455.8599     0.95633E+02 
  33488.1221     0.96685E+02 
  33520.3842     0.97743E+02 
  33552.6464     0.98808E+02 
  33584.9086     0.99880E+02 
  33617.1707     0.10096E+03 
  33649.4329     0.10204E+03 
  33681.6950     0.10314E+03 
  33713.9572     0.10423E+03 
  33746.2194     0.10534E+03 
  33778.4815     0.10645E+03 
  33810.7437     0.10757E+03 
  33843.0058     0.10869E+03 
  33875.2680     0.10983E+03 
  33907.5302     0.11096E+03 
  33939.7923     0.11211E+03 
  33972.0545     0.11326E+03 
  34004.3166     0.11442E+03 
  34036.5788     0.11558E+03 
  34068.8410     0.11675E+03 
  34101.1031     0.11792E+03 
  34133.3653     0.11911E+03 
  34165.6274     0.12029E+03 
  34197.8896     0.12149E+03 
  34230.1518     0.12269E+03 
  34262.4139     0.12389E+03 
  34294.6761     0.12510E+03 
  34326.9382     0.12632E+03 
  34359.2004     0.12755E+03 
  34391.4626     0.12877E+03 
  34423.7247     0.13001E+03 
  34455.9869     0.13125E+03 
  34488.2490     0.13250E+03 
  34520.5112     0.13375E+03 
  34552.7734     0.13500E+03 
  34585.0355     0.13627E+03 
  34617.2977     0.13754E+03 
  34649.5598     0.13881E+03 
  34681.8220     0.14009E+03 
  34714.0842     0.14137E+03 
  34746.3463     0.14266E+03 
  34778.6085     0.14395E+03 
  34810.8706     0.14525E+03 
  34843.1328     0.14656E+03 
  34875.3950     0.14786E+03 
  34907.6571     0.14918E+03 
  34939.9193     0.15050E+03 
  34972.1814     0.15182E+03 
  35004.4436     0.15315E+03 
  35036.7058     0.15448E+03 
  35068.9679     0.15581E+03 
  35101.2301     0.15715E+03 
  35133.4922     0.15850E+03 
  35165.7544     0.15985E+03 
  35198.0166     0.16120E+03 
  35230.2787     0.16256E+03 
  35262.5409     0.16392E+03 
  35294.8030     0.16528E+03 
  35327.0652     0.16665E+03 
  35359.3274     0.16802E+03 
  35391.5895     0.16940E+03 
  35423.8517     0.17078E+03 
  35456.1138     0.17216E+03 
  35488.3760     0.17355E+03 
  35520.6382     0.17494E+03 
  35552.9003     0.17633E+03 
  35585.1625     0.17773E+03 
  35617.4246     0.17913E+03 
  35649.6868     0.18053E+03 
  35681.9490     0.18193E+03 
  35714.2111     0.18334E+03 
  35746.4733     0.18475E+03 
  35778.7354     0.18616E+03 
  35810.9976     0.18758E+03 
  35843.2598     0.18900E+03 
  35875.5219     0.19042E+03 
  35907.7841     0.19184E+03 
  35940.0462     0.19326E+03 
  35972.3084     0.19469E+03 
  36004.5706     0.19612E+03 
  36036.8327     0.19755E+03 
  36069.0949     0.19898E+03 
  36101.3570     0.20041E+03 
  36133.6192     0.20185E+03 
  36165.8814     0.20328E+03 
  36198.1435     0.20472E+03 
  36230.4057     0.20616E+03 
  36262.6678     0.20760E+03 
  36294.9300     0.20904E+03 
  36327.1922     0.21048E+03 
  36359.4543     0.21192E+03 
  36391.7165     0.21337E+03 
  36423.9786     0.21481E+03 
  36456.2408     0.21625E+03 
  36488.5030     0.21770E+03 
  36520.7651     0.21914E+03 
  36553.0273     0.22059E+03 
  36585.2894     0.22203E+03 
  36617.5516     0.22348E+03 
  36649.8138     0.22492E+03 
  36682.0759     0.22636E+03 
  36714.3381     0.22781E+03 
  36746.6002     0.22925E+03 
  36778.8624     0.23069E+03 
  36811.1246     0.23214E+03 
  36843.3867     0.23358E+03 
  36875.6489     0.23502E+03 
  36907.9110     0.23646E+03 
  36940.1732     0.23789E+03 
  36972.4354     0.23933E+03 
  37004.6975     0.24077E+03 
  37036.9597     0.24220E+03 
  37069.2218     0.24363E+03 
  37101.4840     0.24506E+03 
  37133.7462     0.24649E+03 
  37166.0083     0.24792E+03 
  37198.2705     0.24934E+03 
  37230.5326     0.25077E+03 
  37262.7948     0.25219E+03 
  37295.0570     0.25360E+03 
  37327.3191     0.25502E+03 
  37359.5813     0.25643E+03 
  37391.8434     0.25784E+03 
  37424.1056     0.25925E+03 
  37456.3678     0.26065E+03 
  37488.6299     0.26205E+03 
  37520.8921     0.26345E+03 
  37553.1542     0.26485E+03 
  37585.4164     0.26624E+03 
  37617.6786     0.26763E+03 
  37649.9407     0.26901E+03 
  37682.2029     0.27039E+03 
  37714.4650     0.27177E+03 
  37746.7272     0.27314E+03 
  37778.9894     0.27451E+03 
  37811.2515     0.27587E+03 
  37843.5137     0.27723E+03 
  37875.7758     0.27859E+03 
  37908.0380     0.27994E+03 
  37940.3002     0.28129E+03 
  37972.5623     0.28263E+03 
  38004.8245     0.28397E+03 
  38037.0866     0.28530E+03 
  38069.3488     0.28663E+03 
  38101.6110     0.28795E+03 
  38133.8731     0.28926E+03 
  38166.1353     0.29058E+03 
  38198.3974     0.29188E+03 
  38230.6596     0.29318E+03 
  38262.9218     0.29448E+03 
  38295.1839     0.29577E+03 
  38327.4461     0.29705E+03 
  38359.7082     0.29833E+03 
  38391.9704     0.29960E+03 
  38424.2326     0.30086E+03 
  38456.4947     0.30212E+03 
  38488.7569     0.30337E+03 
  38521.0190     0.30462E+03 
  38553.2812     0.30586E+03 
  38585.5434     0.30709E+03 
  38617.8055     0.30832E+03 
  38650.0677     0.30953E+03 
  38682.3298     0.31075E+03 
  38714.5920     0.31195E+03 
  38746.8542     0.31315E+03 
  38779.1163     0.31434E+03 
  38811.3785     0.31552E+03 
  38843.6406     0.31670E+03 
  38875.9028     0.31786E+03 
  38908.1650     0.31902E+03 
  38940.4271     0.32018E+03 
  38972.6893     0.32132E+03 
  39004.9514     0.32246E+03 
  39037.2136     0.32359E+03 
  39069.4758     0.32471E+03 
  39101.7379     0.32582E+03 
  39134.0001     0.32692E+03 
  39166.2622     0.32802E+03 
  39198.5244     0.32911E+03 
  39230.7866     0.33019E+03 
  39263.0487     0.33126E+03 
  39295.3109     0.33232E+03 
  39327.5730     0.33337E+03 
  39359.8352     0.33441E+03 
  39392.0974     0.33545E+03 
  39424.3595     0.33647E+03 
  39456.6217     0.33749E+03 
  39488.8838     0.33850E+03 
  39521.1460     0.33950E+03 
  39553.4082     0.34049E+03 
  39585.6703     0.34146E+03 
  39617.9325     0.34243E+03 
  39650.1946     0.34340E+03 
  39682.4568     0.34435E+03 
  39714.7190     0.34529E+03 
  39746.9811     0.34622E+03 
  39779.2433     0.34714E+03 
  39811.5054     0.34805E+03 
  39843.7676     0.34895E+03 
  39876.0298     0.34985E+03 
  39908.2919     0.35073E+03 
  39940.5541     0.35160E+03 
  39972.8162     0.35246E+03 
  40005.0784     0.35331E+03 
  40037.3406     0.35415E+03 
  40069.6027     0.35498E+03 
  40101.8649     0.35580E+03 
  40134.1270     0.35661E+03 
  40166.3892     0.35741E+03 
  40198.6514     0.35820E+03 
  40230.9135     0.35898E+03 
  40263.1757     0.35974E+03 
  40295.4378     0.36050E+03 
  40327.7000     0.36124E+03 
  40359.9622     0.36198E+03 
  40392.2243     0.36270E+03 
  40424.4865     0.36341E+03 
  40456.7486     0.36411E+03 
  40489.0108     0.36480E+03 
  40521.2730     0.36548E+03 
  40553.5351     0.36615E+03 
  40585.7973     0.36681E+03 
  40618.0594     0.36745E+03 
  40650.3216     0.36809E+03 
  40682.5838     0.36871E+03 
  40714.8459     0.36932E+03 
  40747.1081     0.36992E+03 
  40779.3702     0.37051E+03 
  40811.6324     0.37109E+03 
  40843.8946     0.37165E+03 
  40876.1567     0.37221E+03 
  40908.4189     0.37275E+03 
  40940.6810     0.37328E+03 
  40972.9432     0.37380E+03 
  41005.2054     0.37431E+03 
  41037.4675     0.37481E+03 
  41069.7297     0.37529E+03 
  41101.9918     0.37577E+03 
  41134.2540     0.37623E+03 
  41166.5162     0.37668E+03 
  41198.7783     0.37711E+03 
  41231.0405     0.37754E+03 
  41263.3026     0.37795E+03 
  41295.5648     0.37836E+03 
  41327.8270     0.37875E+03 
  41360.0891     0.37913E+03 
  41392.3513     0.37949E+03 
  41424.6134     0.37985E+03 
  41456.8756     0.38019E+03 
  41489.1378     0.38052E+03 
  41521.3999     0.38084E+03 
  41553.6621     0.38115E+03 
  41585.9242     0.38145E+03 
  41618.1864     0.38173E+03 
  41650.4486     0.38200E+03 
  41682.7107     0.38226E+03 
  41714.9729     0.38251E+03 
  41747.2350     0.38275E+03 
  41779.4972     0.38297E+03 
  41811.7594     0.38319E+03 
  41844.0215     0.38339E+03 
  41876.2837     0.38358E+03 
  41908.5458     0.38375E+03 
  41940.8080     0.38392E+03 
  41973.0702     0.38407E+03 
  42005.3323     0.38421E+03 
  42037.5945     0.38434E+03 
  42069.8566     0.38446E+03 
  42102.1188     0.38457E+03 
  42134.3810     0.38466E+03 
  42166.6431     0.38474E+03 
  42198.9053     0.38481E+03 
  42231.1674     0.38487E+03 
  42263.4296     0.38492E+03 
  42295.6918     0.38496E+03 
  42327.9539     0.38498E+03 
  42360.2161     0.38499E+03 
  42392.4782     0.38499E+03 
  42424.7404     0.38498E+03 
  42457.0026     0.38496E+03 
  42489.2647     0.38492E+03 
  42521.5269     0.38488E+03 
  42553.7890     0.38482E+03 
  42586.0512     0.38475E+03 
  42618.3134     0.38467E+03 
  42650.5755     0.38458E+03 
  42682.8377     0.38448E+03 
  42715.0998     0.38436E+03 
  42747.3620     0.38424E+03 
  42779.6242     0.38410E+03 
  42811.8863     0.38395E+03 
  42844.1485     0.38379E+03 
  42876.4106     0.38362E+03 
  42908.6728     0.38344E+03 
  42940.9350     0.38325E+03 
  42973.1971     0.38304E+03 
  43005.4593     0.38283E+03 
  43037.7214     0.38260E+03 
  43069.9836     0.38236E+03 
  43102.2458     0.38211E+03 
  43134.5079     0.38185E+03 
  43166.7701     0.38158E+03 
  43199.0322     0.38130E+03 
  43231.2944     0.38101E+03 
  43263.5566     0.38071E+03 
  43295.8187     0.38040E+03 
  43328.0809     0.38007E+03 
  43360.3430     0.37974E+03 
  43392.6052     0.37940E+03 
  43424.8674     0.37904E+03 
  43457.1295     0.37867E+03 
  43489.3917     0.37830E+03 
  43521.6538     0.37791E+03 
  43553.9160     0.37752E+03 
  43586.1782     0.37711E+03 
  43618.4403     0.37669E+03 
  43650.7025     0.37627E+03 
  43682.9646     0.37583E+03 
  43715.2268     0.37538E+03 
  43747.4890     0.37493E+03 
  43779.7511     0.37446E+03 
  43812.0133     0.37398E+03 
  43844.2754     0.37350E+03 
  43876.5376     0.37300E+03 
  43908.7998     0.37250E+03 
  43941.0619     0.37198E+03 
  43973.3241     0.37146E+03 
  44005.5862     0.37092E+03 
  44037.8484     0.37038E+03 
  44070.1106     0.36983E+03 
  44102.3727     0.36927E+03 
  44134.6349     0.36870E+03 
  44166.8970     0.36811E+03 
  44199.1592     0.36753E+03 
  44231.4214     0.36693E+03 
  44263.6835     0.36632E+03 
  44295.9457     0.36570E+03 
  44328.2078     0.36508E+03 
  44360.4700     0.36445E+03 
  44392.7322     0.36380E+03 
  44424.9943     0.36315E+03 
  44457.2565     0.36249E+03 
  44489.5186     0.36183E+03 
  44521.7808     0.36115E+03 
  44554.0430     0.36047E+03 
  44586.3051     0.35977E+03 
  44618.5673     0.35907E+03 
  44650.8294     0.35836E+03 
  44683.0916     0.35765E+03 
  44715.3538     0.35692E+03 
  44747.6159     0.35619E+03 
  44779.8781     0.35545E+03 
  44812.1402     0.35470E+03 
  44844.4024     0.35394E+03 
  44876.6646     0.35318E+03 
  44908.9267     0.35241E+03 
  44941.1889     0.35163E+03 
  44973.4510     0.35084E+03 
  45005.7132     0.35005E+03 
  45037.9754     0.34925E+03 
  45070.2375     0.34844E+03 
  45102.4997     0.34763E+03 
  45134.7618     0.34681E+03 
  45167.0240     0.34598E+03 
  45199.2862     0.34514E+03 
  45231.5483     0.34430E+03 
  45263.8105     0.34345E+03 
  45296.0726     0.34259E+03 
  45328.3348     0.34173E+03 
  45360.5970     0.34086E+03 
  45392.8591     0.33999E+03 
  45425.1213     0.33911E+03 
  45457.3834     0.33822E+03 
  45489.6456     0.33732E+03 
  45521.9078     0.33642E+03 
  45554.1699     0.33552E+03 
  45586.4321     0.33461E+03 
  45618.6942     0.33369E+03 
  45650.9564     0.33276E+03 
  45683.2186     0.33183E+03 
  45715.4807     0.33090E+03 
  45747.7429     0.32996E+03 
  45780.0050     0.32901E+03 
  45812.2672     0.32806E+03 
  45844.5294     0.32710E+03 
  45876.7915     0.32614E+03 
  45909.0537     0.32518E+03 
  45941.3158     0.32420E+03 
  45973.5780     0.32323E+03 
  46005.8402     0.32224E+03 
  46038.1023     0.32126E+03 
  46070.3645     0.32026E+03 
  46102.6266     0.31927E+03 
  46134.8888     0.31827E+03 
  46167.1510     0.31726E+03 
  46199.4131     0.31625E+03 
  46231.6753     0.31523E+03 
  46263.9374     0.31422E+03 
  46296.1996     0.31319E+03 
  46328.4618     0.31216E+03 
  46360.7239     0.31113E+03 
  46392.9861     0.31010E+03 
  46425.2482     0.30906E+03 
  46457.5104     0.30801E+03 
  46489.7726     0.30697E+03 
  46522.0347     0.30591E+03 
  46554.2969     0.30486E+03 
  46586.5590     0.30380E+03 
  46618.8212     0.30274E+03 
  46651.0834     0.30167E+03 
  46683.3455     0.30060E+03 
  46715.6077     0.29953E+03 
  46747.8698     0.29846E+03 
  46780.1320     0.29738E+03 
  46812.3942     0.29630E+03 
  46844.6563     0.29521E+03 
  46876.9185     0.29413E+03 
  46909.1806     0.29304E+03 
  46941.4428     0.29194E+03 
  46973.7050     0.29085E+03 
  47005.9671     0.28975E+03 
  47038.2293     0.28865E+03 
  47070.4914     0.28754E+03 
  47102.7536     0.28644E+03 
  47135.0158     0.28533E+03 
  47167.2779     0.28422E+03 
  47199.5401     0.28311E+03 
  47231.8022     0.28199E+03 
  47264.0644     0.28088E+03 
  47296.3266     0.27976E+03 
  47328.5887     0.27864E+03 
  47360.8509     0.27751E+03 
  47393.1130     0.27639E+03 
  47425.3752     0.27526E+03 
  47457.6374     0.27413E+03 
  47489.8995     0.27300E+03 
  47522.1617     0.27187E+03 
  47554.4238     0.27074E+03 
  47586.6860     0.26961E+03 
  47618.9482     0.26847E+03 
  47651.2103     0.26734E+03 
  47683.4725     0.26620E+03 
  47715.7346     0.26506E+03 
  47747.9968     0.26392E+03 
  47780.2590     0.26278E+03 
  47812.5211     0.26164E+03 
  47844.7833     0.26049E+03 
  47877.0454     0.25935E+03 
  47909.3076     0.25821E+03 
  47941.5698     0.25706E+03 
  47973.8319     0.25592E+03 
  48006.0941     0.25477E+03 
  48038.3562     0.25362E+03 
  48070.6184     0.25248E+03 
  48102.8806     0.25133E+03 
  48135.1427     0.25018E+03 
  48167.4049     0.24903E+03 
  48199.6670     0.24788E+03 
  48231.9292     0.24674E+03 
  48264.1914     0.24559E+03 
  48296.4535     0.24444E+03 
  48328.7157     0.24329E+03 
  48360.9778     0.24214E+03 
  48393.2400     0.24099E+03 
  48425.5022     0.23984E+03 
  48457.7643     0.23870E+03 
  48490.0265     0.23755E+03 
  48522.2886     0.23640E+03 
  48554.5508     0.23526E+03 
  48586.8130     0.23411E+03 
  48619.0751     0.23296E+03 
  48651.3373     0.23182E+03 
  48683.5994     0.23067E+03 
  48715.8616     0.22953E+03 
  48748.1238     0.22839E+03 
  48780.3859     0.22724E+03 
  48812.6481     0.22610E+03 
  48844.9102     0.22496E+03 
  48877.1724     0.22382E+03 
  48909.4346     0.22268E+03 
  48941.6967     0.22154E+03 
  48973.9589     0.22041E+03 
  49006.2210     0.21927E+03 
  49038.4832     0.21814E+03 
  49070.7454     0.21700E+03 
  49103.0075     0.21587E+03 
  49135.2697     0.21474E+03 
  49167.5318     0.21361E+03 
  49199.7940     0.21248E+03 
  49232.0562     0.21136E+03 
  49264.3183     0.21023E+03 
  49296.5805     0.20911E+03 
  49328.8426     0.20799E+03 
  49361.1048     0.20687E+03 
  49393.3670     0.20575E+03 
  49425.6291     0.20463E+03 
  49457.8913     0.20352E+03 
  49490.1534     0.20240E+03 
  49522.4156     0.20129E+03 
  49554.6778     0.20018E+03 
  49586.9399     0.19907E+03 
  49619.2021     0.19797E+03 
  49651.4642     0.19686E+03 
  49683.7264     0.19576E+03 
  49715.9886     0.19466E+03 
  49748.2507     0.19356E+03 
  49780.5129     0.19247E+03 
  49812.7750     0.19138E+03 
  49845.0372     0.19028E+03 
  49877.2994     0.18920E+03 
  49909.5615     0.18811E+03 
  49941.8237     0.18702E+03 
  49974.0858     0.18594E+03 
  50006.3480     0.18486E+03 
  50038.6102     0.18379E+03 
  50070.8723     0.18271E+03 
  50103.1345     0.18164E+03 
  50135.3966     0.18057E+03 
  50167.6588     0.17950E+03 
  50199.9210     0.17844E+03 
  50232.1831     0.17737E+03 
  50264.4453     0.17632E+03 
  50296.7074     0.17526E+03 
  50328.9696     0.17420E+03 
  50361.2318     0.17315E+03 
  50393.4939     0.17210E+03 
  50425.7561     0.17106E+03 
  50458.0182     0.17002E+03 
  50490.2804     0.16898E+03 
  50522.5426     0.16794E+03 
  50554.8047     0.16690E+03 
  50587.0669     0.16587E+03 
  50619.3290     0.16484E+03 
  50651.5912     0.16382E+03 
  50683.8534     0.16279E+03 
  50716.1155     0.16177E+03 
  50748.3777     0.16076E+03 
  50780.6398     0.15974E+03 
  50812.9020     0.15873E+03 
  50845.1642     0.15773E+03 
  50877.4263     0.15672E+03 
  50909.6885     0.15572E+03 
  50941.9506     0.15472E+03 
  50974.2128     0.15373E+03 
  51006.4750     0.15274E+03 
  51038.7371     0.15175E+03 
  51070.9993     0.15076E+03 
  51103.2614     0.14978E+03 
  51135.5236     0.14880E+03 
  51167.7858     0.14783E+03 
  51200.0479     0.14685E+03 
  51232.3101     0.14589E+03 
  51264.5722     0.14492E+03 
  51296.8344     0.14396E+03 
  51329.0966     0.14300E+03 
  51361.3587     0.14204E+03 
  51393.6209     0.14109E+03 
  51425.8830     0.14014E+03 
  51458.1452     0.13920E+03 
  51490.4074     0.13826E+03 
  51522.6695     0.13732E+03 
  51554.9317     0.13639E+03 
  51587.1938     0.13545E+03 
  51619.4560     0.13453E+03 
  51651.7182     0.13360E+03 
  51683.9803     0.13268E+03 
  51716.2425     0.13177E+03 
  51748.5046     0.13085E+03 
  51780.7668     0.12994E+03 
  51813.0290     0.12904E+03 
  51845.2911     0.12813E+03 
  51877.5533     0.12724E+03 
  51909.8154     0.12634E+03 
  51942.0776     0.12545E+03 
  51974.3398     0.12456E+03 
  52006.6019     0.12368E+03 
  52038.8641     0.12279E+03 
  52071.1262     0.12192E+03 
  52103.3884     0.12104E+03 
  52135.6506     0.12017E+03 
  52167.9127     0.11931E+03 
  52200.1749     0.11845E+03 
  52232.4370     0.11759E+03 
  52264.6992     0.11673E+03 
  52296.9614     0.11588E+03 
  52329.2235     0.11503E+03 
  52361.4857     0.11419E+03 
  52393.7478     0.11335E+03 
  52426.0100     0.11251E+03 
  52458.2722     0.11168E+03 
  52490.5343     0.11085E+03 
  52522.7965     0.11003E+03 
  52555.0586     0.10920E+03 
  52587.3208     0.10839E+03 
  52619.5830     0.10757E+03 
  52651.8451     0.10676E+03 
  52684.1073     0.10596E+03 
  52716.3694     0.10515E+03 
  52748.6316     0.10435E+03 
  52780.8938     0.10356E+03 
  52813.1559     0.10277E+03 
  52845.4181     0.10198E+03 
  52877.6802     0.10119E+03 
  52909.9424     0.10041E+03 
  52942.2046     0.99638E+02 
  52974.4667     0.98866E+02 
  53006.7289     0.98097E+02 
  53038.9910     0.97332E+02 
  53071.2532     0.96570E+02 
  53103.5154     0.95813E+02 
  53135.7775     0.95059E+02 
  53168.0397     0.94309E+02 
  53200.3018     0.93563E+02 
  53232.5640     0.92820E+02 
  53264.8262     0.92081E+02 
  53297.0883     0.91346E+02 
  53329.3505     0.90615E+02 
  53361.6126     0.89887E+02 
  53393.8748     0.89163E+02 
  53426.1370     0.88443E+02 
  53458.3991     0.87727E+02 
  53490.6613     0.87015E+02 
  53522.9234     0.86306E+02 
  53555.1856     0.85601E+02 
  53587.4478     0.84899E+02 
  53619.7099     0.84201E+02 
  53651.9721     0.83508E+02 
  53684.2342     0.82817E+02 
  53716.4964     0.82131E+02 
  53748.7586     0.81448E+02 
  53781.0207     0.80769E+02 
  53813.2829     0.80093E+02 
  53845.5450     0.79421E+02 
  53877.8072     0.78753E+02 
  53910.0694     0.78089E+02 
  53942.3315     0.77428E+02 
  53974.5937     0.76771E+02 
  54006.8558     0.76118E+02 
  54039.1180     0.75468E+02 
  54071.3802     0.74822E+02 
  54103.6423     0.74179E+02 
  54135.9045     0.73540E+02 
  54168.1666     0.72905E+02 
  54200.4288     0.72273E+02 
  54232.6910     0.71645E+02 
  54264.9531     0.71021E+02 
  54297.2153     0.70400E+02 
  54329.4774     0.69783E+02 
  54361.7396     0.69169E+02 
  54394.0018     0.68559E+02 
  54426.2639     0.67952E+02 
  54458.5261     0.67349E+02 
  54490.7882     0.66750E+02 
  54523.0504     0.66154E+02 
  54555.3126     0.65561E+02 
  54587.5747     0.64973E+02 
  54619.8369     0.64387E+02 
  54652.0990     0.63805E+02 
  54684.3612     0.63227E+02 
  54716.6234     0.62652E+02 
  54748.8855     0.62080E+02 
  54781.1477     0.61512E+02 
  54813.4098     0.60948E+02 
  54845.6720     0.60387E+02 
  54877.9342     0.59829E+02 
  54910.1963     0.59275E+02 
  54942.4585     0.58724E+02 
  54974.7206     0.58176E+02 
  55006.9828     0.57632E+02 
  55039.2450     0.57091E+02 
  55071.5071     0.56554E+02 
  55103.7693     0.56020E+02 
  55136.0314     0.55489E+02 
  55168.2936     0.54962E+02 
  55200.5558     0.54438E+02 
  55232.8179     0.53917E+02 
  55265.0801     0.53400E+02 
  55297.3422     0.52886E+02 
  55329.6044     0.52375E+02 
  55361.8666     0.51868E+02 
  55394.1287     0.51363E+02 
  55426.3909     0.50862E+02 
  55458.6530     0.50365E+02 
  55490.9152     0.49870E+02 
  55523.1774     0.49379E+02 
  55555.4395     0.48891E+02 
  55587.7017     0.48406E+02 
  55619.9638     0.47924E+02 
  55652.2260     0.47445E+02 
  55684.4882     0.46970E+02 
  55716.7503     0.46497E+02 
  55749.0125     0.46028E+02 
  55781.2746     0.45562E+02 
  55813.5368     0.45099E+02 
  55845.7990     0.44639E+02 
  55878.0611     0.44183E+02 
  55910.3233     0.43729E+02 
  55942.5854     0.43278E+02 
  55974.8476     0.42831E+02 
  56007.1098     0.42386E+02 
  56039.3719     0.41945E+02 
  56071.6341     0.41506E+02 
  56103.8962     0.41071E+02 
  56136.1584     0.40638E+02 
  56168.4206     0.40209E+02 
  56200.6827     0.39782E+02 
  56232.9449     0.39359E+02 
  56265.2070     0.38938E+02 
  56297.4692     0.38520E+02 
  56329.7314     0.38105E+02 
  56361.9935     0.37693E+02 
  56394.2557     0.37284E+02 
  56426.5178     0.36878E+02 
  56458.7800     0.36475E+02 
  56491.0422     0.36074E+02 
  56523.3043     0.35677E+02 
  56555.5665     0.35282E+02 
  56587.8286     0.34890E+02 
  56620.0908     0.34501E+02 
  56652.3530     0.34115E+02 
  56684.6151     0.33731E+02 
  56716.8773     0.33350E+02 
  56749.1394     0.32972E+02 
  56781.4016     0.32597E+02 
  56813.6638     0.32224E+02 
  56845.9259     0.31855E+02 
  56878.1881     0.31487E+02 
  56910.4502     0.31123E+02 
  56942.7124     0.30761E+02 
  56974.9746     0.30402E+02 
  57007.2367     0.30046E+02 
  57039.4989     0.29692E+02 
  57071.7610     0.29341E+02 
  57104.0232     0.28992E+02 
  57136.2854     0.28646E+02 
  57168.5475     0.28303E+02 
  57200.8097     0.27962E+02 
  57233.0718     0.27624E+02 
  57265.3340     0.27289E+02 
  57297.5962     0.26956E+02 
  57329.8583     0.26625E+02 
  57362.1205     0.26297E+02 
  57394.3826     0.25972E+02 
  57426.6448     0.25649E+02 
  57458.9070     0.25328E+02 
  57491.1691     0.25010E+02 
  57523.4313     0.24695E+02 
  57555.6934     0.24382E+02 
  57587.9556     0.24071E+02 
  57620.2178     0.23763E+02 
  57652.4799     0.23457E+02 
  57684.7421     0.23154E+02 
  57717.0042     0.22853E+02 
  57749.2664     0.22555E+02 
  57781.5286     0.22259E+02 
  57813.7907     0.21965E+02 
  57846.0529     0.21673E+02 
  57878.3150     0.21384E+02 
  57910.5772     0.21098E+02 
  57942.8394     0.20813E+02 
  57975.1015     0.20531E+02 
  58007.3637     0.20251E+02 
  58039.6258     0.19974E+02 
  58071.8880     0.19699E+02 
  58104.1502     0.19426E+02 
  58136.4123     0.19155E+02 
  58168.6745     0.18887E+02 
  58200.9366     0.18620E+02 
  58233.1988     0.18356E+02 
  58265.4610     0.18095E+02 
  58297.7231     0.17835E+02 
  58329.9853     0.17578E+02 
  58362.2474     0.17323E+02 
  58394.5096     0.17070E+02 
  58426.7718     0.16819E+02 
  58459.0339     0.16570E+02 
  58491.2961     0.16324E+02 
  58523.5582     0.16079E+02 
  58555.8204     0.15837E+02 
  58588.0826     0.15597E+02 
  58620.3447     0.15359E+02 
  58652.6069     0.15123E+02 
  58684.8690     0.14890E+02 
  58717.1312     0.14658E+02 
  58749.3934     0.14428E+02 
  58781.6555     0.14201E+02 
  58813.9177     0.13975E+02 
  58846.1798     0.13752E+02 
  58878.4420     0.13530E+02 
  58910.7042     0.13311E+02 
  58942.9663     0.13094E+02 
  58975.2285     0.12879E+02 
  59007.4906     0.12665E+02 
  59039.7528     0.12454E+02 
  59072.0150     0.12245E+02 
  59104.2771     0.12037E+02 
  59136.5393     0.11832E+02 
  59168.8014     0.11629E+02 
  59201.0636     0.11427E+02 
  59233.3258     0.11228E+02 
  59265.5879     0.11030E+02 
  59297.8501     0.10835E+02 
  59330.1122     0.10641E+02 
  59362.3744     0.10449E+02 
  59394.6366     0.10260E+02 
  59426.8987     0.10072E+02 
  59459.1609     0.98859E+01 
  59491.4230     0.97018E+01 
  59523.6852     0.95197E+01 
  59555.9474     0.93394E+01 
  59588.2095     0.91610E+01 
  59620.4717     0.89845E+01 
  59652.7338     0.88099E+01 
  59684.9960     0.86372E+01 
  59717.2582     0.84663E+01 
  59749.5203     0.82972E+01 
  59781.7825     0.81300E+01 
  59814.0446     0.79647E+01 
  59846.3068     0.78012E+01 
  59878.5690     0.76395E+01 
  59910.8311     0.74797E+01 
  59943.0933     0.73217E+01 
  59975.3554     0.71655E+01 
  60007.6176     0.70111E+01 
  60039.8798     0.68586E+01 
  60072.1419     0.67078E+01 
  60104.4041     0.65589E+01 
  60136.6662     0.64118E+01 
  60168.9284     0.62665E+01 
  60201.1906     0.61229E+01 
  60233.4527     0.59812E+01 
  60265.7149     0.58413E+01 
  60297.9770     0.57031E+01 
  60330.2392     0.55668E+01 
  60362.5014     0.54322E+01 
  60394.7635     0.52994E+01 
  60427.0257     0.51684E+01 
  60459.2878     0.50392E+01 
  60491.5500     0.49117E+01 
  60523.8122     0.47861E+01 
  60556.0743     0.46622E+01 
  60588.3365     0.45401E+01 
  60620.5986     0.44198E+01 
  60652.8608     0.43012E+01 
  60685.1230     0.41844E+01 
  60717.3851     0.40694E+01 
  60749.6473     0.39562E+01 
  60781.9094     0.38448E+01 
  60814.1716     0.37351E+01 
  60846.4338     0.36272E+01 
  60878.6959     0.35211E+01 
  60910.9581     0.34168E+01 
  60943.2202     0.33142E+01 
  60975.4824     0.32135E+01 
  61007.7446     0.31145E+01 
  61040.0067     0.30173E+01 
  61072.2689     0.29219E+01 
  61104.5310     0.28283E+01 
  61136.7932     0.27366E+01 
  61169.0554     0.26466E+01 
  61201.3175     0.25584E+01 
  61233.5797     0.24720E+01 
  61265.8418     0.23875E+01 
  61298.1040     0.23048E+01 
  61330.3662     0.22238E+01 
  61362.6283     0.21448E+01 
  61394.8905     0.20675E+01 
  61427.1526     0.19921E+01 
  61459.4148     0.19186E+01 
  61491.6770     0.18469E+01 
  61523.9391     0.17771E+01 
  61556.2013     0.17091E+01 
  61588.4634     0.16431E+01 
  61620.7256     0.15789E+01 
  61652.9878     0.15166E+01 
  61685.2499     0.14562E+01 
  61717.5121     0.13977E+01 
  61749.7742     0.13411E+01 
  61782.0364     0.12865E+01 
  61814.2986     0.12338E+01 
  61846.5607     0.11830E+01 
  61878.8229     0.11343E+01 
  61911.0850     0.10875E+01 
  61943.3472     0.10426E+01 
  61975.6094     0.99980E+00 
  62007.8715     0.95898E+00 
  62040.1337     0.92019E+00 
  62072.3958     0.88343E+00 
  62104.6580     0.84872E+00 
  62136.9202     0.81607E+00 
  62169.1823     0.78551E+00 
  62201.4445     0.75703E+00 
  62233.7066     0.73067E+00 
  62265.9688     0.70643E+00 
  62298.2310     0.68434E+00 
  62330.4931     0.66440E+00 
  62362.7553     0.64665E+00 
  62395.0174     0.63109E+00 
  62427.2796     0.61774E+00 
  62459.5418     0.60663E+00 
  62491.8039     0.59777E+00 
  62524.0661     0.59119E+00 
  62556.3282     0.58690E+00 
  62588.5904     0.58492E+00 
  62620.8526     0.58529E+00 
  62653.1147     0.58802E+00 
  62685.3769     0.59313E+00 
  62717.6390     0.60065E+00 
  62749.9012     0.61061E+00 
  62782.1634     0.62302E+00 
  62814.4255     0.63792E+00 
  62846.6877     0.65533E+00 
  62878.9498     0.67527E+00 
  62911.2120     0.69779E+00 
  62943.4742     0.72290E+00 
  62975.7363     0.75063E+00 
  63007.9985     0.78102E+00 
  63040.2606     0.81409E+00 
  63072.5228     0.84988E+00 
  63104.7850     0.88842E+00 
  63137.0471     0.92974E+00 
  63169.3093     0.97388E+00 
  63201.5714     0.10209E+01 
  63233.8336     0.10707E+01 
  63266.0958     0.11235E+01 
  63298.3579     0.11793E+01 
  63330.6201     0.12381E+01 
  63362.8822     0.12998E+01 
  63395.1444     0.13647E+01 
  63427.4066     0.14327E+01 
  63459.6687     0.15039E+01 
  63491.9309     0.15782E+01 
  63524.1930     0.16558E+01 
  63556.4552     0.17367E+01 
  63588.7174     0.18209E+01 
  63620.9795     0.19085E+01 
  63653.2417     0.19996E+01 
  63685.5038     0.20941E+01 
  63717.7660     0.21921E+01 
  63750.0282     0.22938E+01 
  63782.2903     0.23990E+01 
  63814.5525     0.25080E+01 
  63846.8146     0.26206E+01 
  63879.0768     0.27371E+01 
  63911.3390     0.28575E+01 
  63943.6011     0.29817E+01 
  63975.8633     0.31099E+01 
  64008.1254     0.32421E+01 
  64040.3876     0.33785E+01 
  64072.6498     0.35190E+01 
  64104.9119     0.36637E+01 
  64137.1741     0.38126E+01 
  64169.4362     0.39660E+01 
  64201.6984     0.41237E+01 
  64233.9606     0.42860E+01 
  64266.2227     0.44528E+01 
  64298.4849     0.46242E+01 
  64330.7470     0.48003E+01 
  64363.0092     0.49812E+01 
  64395.2714     0.51670E+01 
  64427.5335     0.53577E+01 
  64459.7957     0.55534E+01 
  64492.0578     0.57543E+01 
  64524.3200     0.59603E+01 
  64556.5822     0.61715E+01 
  64588.8443     0.63882E+01 
  64621.1065     0.66102E+01 
  64653.3686     0.68378E+01 
  64685.6308     0.70710E+01 
  64717.8930     0.73100E+01 
  64750.1551     0.75547E+01 
  64782.4173     0.78054E+01 
  64814.6794     0.80620E+01 
  64846.9416     0.83248E+01 
  64879.2038     0.85938E+01 
  64911.4659     0.88691E+01 
  64943.7281     0.91508E+01 
  64975.9902     0.94390E+01 
  65008.2524     0.97339E+01 
  65040.5146     0.10036E+02 
  65072.7767     0.10344E+02 
  65105.0389     0.10660E+02 
  65137.3010     0.10982E+02 
  65169.5632     0.11312E+02 
  65201.8254     0.11649E+02 
  65234.0875     0.11994E+02 
  65266.3497     0.12346E+02 
  65298.6118     0.12706E+02 
  65330.8740     0.13074E+02 
  65363.1362     0.13450E+02 
  65395.3983     0.13834E+02 
  65427.6605     0.14226E+02 
  65459.9226     0.14627E+02 
  65492.1848     0.15036E+02 
  65524.4470     0.15454E+02 
  65556.7091     0.15881E+02 
  65588.9713     0.16317E+02 
  65621.2334     0.16762E+02 
  65653.4956     0.17216E+02 
  65685.7578     0.17680E+02 
  65718.0199     0.18153E+02 
  65750.2821     0.18637E+02 
  65782.5442     0.19130E+02 
  65814.8064     0.19634E+02 
  65847.0686     0.20147E+02 
  65879.3307     0.20672E+02 
  65911.5929     0.21207E+02 
  65943.8550     0.21753E+02 
  65976.1172     0.22309E+02 
  66008.3794     0.22878E+02 
  66040.6415     0.23457E+02 
  66072.9037     0.24048E+02 
  66105.1658     0.24652E+02 
  66137.4280     0.25267E+02 
  66169.6902     0.25894E+02 
  66201.9523     0.26534E+02 
  66234.2145     0.27186E+02 
  66266.4766     0.27852E+02 
  66298.7388     0.28530E+02 
  66331.0010     0.29222E+02 
  66363.2631     0.29927E+02 
  66395.5253     0.30646E+02 
  66427.7874     0.31379E+02 
  66460.0496     0.32127E+02 
  66492.3118     0.32888E+02 
  66524.5739     0.33665E+02 
  66556.8361     0.34456E+02 
  66589.0982     0.35263E+02 
  66621.3604     0.36085E+02 
  66653.6226     0.36923E+02 
  66685.8847     0.37777E+02 
  66718.1469     0.38647E+02 
  66750.4090     0.39533E+02 
  66782.6712     0.40437E+02 
  66814.9334     0.41357E+02 
  66847.1955     0.42295E+02 
  66879.4577     0.43251E+02 
  66911.7198     0.44224E+02 
  66943.9820     0.45216E+02 
  66976.2442     0.46226E+02 
  67008.5063     0.47255E+02 
  67040.7685     0.48303E+02 
  67073.0306     0.49370E+02 
  67105.2928     0.50457E+02 
  67137.5550     0.51564E+02 
  67169.8171     0.52692E+02 
  67202.0793     0.53840E+02 
  67234.3414     0.55010E+02 
  67266.6036     0.56200E+02 
  67298.8658     0.57413E+02 
  67331.1279     0.58647E+02 
  67363.3901     0.59904E+02 
  67395.6522     0.61184E+02 
  67427.9144     0.62486E+02 
  67460.1766     0.63812E+02 
  67492.4387     0.65162E+02 
  67524.7009     0.66536E+02 
  67556.9630     0.67935E+02 
  67589.2252     0.69359E+02 
  67621.4874     0.70808E+02 
  67653.7495     0.72282E+02 
  67686.0117     0.73783E+02 
  67718.2738     0.75310E+02 
  67750.5360     0.76865E+02 
  67782.7982     0.78446E+02 
  67815.0603     0.80055E+02 
  67847.3225     0.81693E+02 
  67879.5846     0.83358E+02 
  67911.8468     0.85053E+02 
  67944.1090     0.86778E+02 
  67976.3711     0.88532E+02 
  68008.6333     0.90316E+02 
  68040.8954     0.92131E+02 
  68073.1576     0.93977E+02 
  68105.4198     0.95855E+02 
  68137.6819     0.97765E+02 
  68169.9441     0.99708E+02 
  68202.2062     0.10168E+03 
  68234.4684     0.10369E+03 
  68266.7306     0.10574E+03 
  68298.9927     0.10781E+03 
  68331.2549     0.10993E+03 
  68363.5170     0.11207E+03 
  68395.7792     0.11426E+03 
  68428.0414     0.11648E+03 
  68460.3035     0.11873E+03 
  68492.5657     0.12103E+03 
  68524.8278     0.12336E+03 
  68557.0900     0.12573E+03 
  68589.3522     0.12814E+03 
  68621.6143     0.13059E+03 
  68653.8765     0.13308E+03 
  68686.1386     0.13561E+03 
  68718.4008     0.13818E+03 
  68750.6630     0.14079E+03 
  68782.9251     0.14345E+03 
  68815.1873     0.14614E+03 
  68847.4494     0.14889E+03 
  68879.7116     0.15167E+03 
  68911.9738     0.15450E+03 
  68944.2359     0.15737E+03 
  68976.4981     0.16029E+03 
  69008.7602     0.16326E+03 
  69041.0224     0.16627E+03 
  69073.2846     0.16933E+03 
  69105.5467     0.17244E+03 
  69137.8089     0.17560E+03 
  69170.0710     0.17880E+03 
  69202.3332     0.18206E+03 
  69234.5954     0.18536E+03 
  69266.8575     0.18872E+03 
  69299.1197     0.19213E+03 
  69331.3818     0.19559E+03 
  69363.6440     0.19910E+03 
  69395.9062     0.20267E+03 
  69428.1683     0.20629E+03 
  69460.4305     0.20996E+03 
  69492.6926     0.21369E+03 
  69524.9548     0.21748E+03 
  69557.2170     0.22132E+03 
  69589.4791     0.22522E+03 
  69621.7413     0.22918E+03 
  69654.0034     0.23320E+03 
  69686.2656     0.23728E+03 
  69718.5278     0.24141E+03 
  69750.7899     0.24561E+03 
  69783.0521     0.24987E+03 
  69815.3142     0.25419E+03 
  69847.5764     0.25857E+03 
  69879.8386     0.26302E+03 
  69912.1007     0.26753E+03 
  69944.3629     0.27210E+03 
  69976.6250     0.27674E+03 
  70008.8872     0.28144E+03 
  70041.1494     0.28622E+03 
  70073.4115     0.29106E+03 
  70105.6737     0.29596E+03 
  70137.9358     0.30094E+03 
  70170.1980     0.30598E+03 
  70202.4602     0.31110E+03 
  70234.7223     0.31629E+03 
  70266.9845     0.32154E+03 
  70299.2466     0.32687E+03 
  70331.5088     0.33228E+03 
  70363.7710     0.33775E+03 
  70396.0331     0.34330E+03 
  70428.2953     0.34893E+03 
  70460.5574     0.35463E+03 
  70492.8196     0.36041E+03 
  70525.0818     0.36626E+03 
  70557.3439     0.37219E+03 
  70589.6061     0.37820E+03 
  70621.8682     0.38429E+03 
  70654.1304     0.39046E+03 
  70686.3926     0.39671E+03 
  70718.6547     0.40304E+03 
  70750.9169     0.40946E+03 
  70783.1790     0.41595E+03 
  70815.4412     0.42253E+03 
  70847.7034     0.42920E+03 
  70879.9655     0.43594E+03 
  70912.2277     0.44278E+03 
  70944.4898     0.44970E+03 
  70976.7520     0.45670E+03 
  71009.0142     0.46379E+03 
  71041.2763     0.47098E+03 
  71073.5385     0.47825E+03 
  71105.8006     0.48561E+03 
  71138.0628     0.49306E+03 
  71170.3250     0.50060E+03 
  71202.5871     0.50823E+03 
  71234.8493     0.51595E+03 
  71267.1114     0.52377E+03 
  71299.3736     0.53168E+03 
  71331.6358     0.53969E+03 
  71363.8979     0.54779E+03 
  71396.1601     0.55598E+03 
  71428.4222     0.56427E+03 
  71460.6844     0.57266E+03 
  71492.9466     0.58114E+03 
  71525.2087     0.58973E+03 
  71557.4709     0.59841E+03 
  71589.7330     0.60719E+03 
  71621.9952     0.61607E+03 
  71654.2574     0.62505E+03 
  71686.5195     0.63413E+03 
  71718.7817     0.64332E+03 
  71751.0438     0.65260E+03 
  71783.3060     0.66199E+03 
  71815.5682     0.67148E+03 
  71847.8303     0.68108E+03 
  71880.0925     0.69078E+03 
  71912.3546     0.70058E+03 
  71944.6168     0.71049E+03 
  71976.8790     0.72051E+03 
  72009.1411     0.73063E+03 
  72041.4033     0.74086E+03 
  72073.6654     0.75120E+03 
  72105.9276     0.76165E+03 
  72138.1898     0.77220E+03 
  72170.4519     0.78287E+03 
  72202.7141     0.79364E+03 
  72234.9762     0.80453E+03 
  72267.2384     0.81552E+03 
  72299.5006     0.82663E+03 
  72331.7627     0.83784E+03 
  72364.0249     0.84917E+03 
  72396.2870     0.86061E+03 
  72428.5492     0.87217E+03 
  72460.8114     0.88383E+03 
  72493.0735     0.89562E+03 
  72525.3357     0.90751E+03 
  72557.5978     0.91952E+03 
  72589.8600     0.93164E+03 
