  32262.1600     0.21820E+03 
  32294.4222     0.22083E+03 
  32326.6843     0.22347E+03 
  32358.9465     0.22614E+03 
  32391.2086     0.22883E+03 
  32423.4708     0.23154E+03 
  32455.7330     0.23428E+03 
  32487.9951     0.23703E+03 
  32520.2573     0.23980E+03 
  32552.5194     0.24260E+03 
  32584.7816     0.24541E+03 
  32617.0438     0.24825E+03 
  32649.3059     0.25111E+03 
  32681.5681     0.25399E+03 
  32713.8302     0.25689E+03 
  32746.0924     0.25982E+03 
  32778.3546     0.26276E+03 
  32810.6167     0.26572E+03 
  32842.8789     0.26871E+03 
  32875.1410     0.27172E+03 
  32907.4032     0.27474E+03 
  32939.6654     0.27779E+03 
  32971.9275     0.28086E+03 
  33004.1897     0.28395E+03 
  33036.4518     0.28706E+03 
  33068.7140     0.29020E+03 
  33100.9762     0.29335E+03 
  33133.2383     0.29652E+03 
  33165.5005     0.29972E+03 
  33197.7626     0.30293E+03 
  33230.0248     0.30617E+03 
  33262.2870     0.30943E+03 
  33294.5491     0.31270E+03 
  33326.8113     0.31600E+03 
  33359.0734     0.31932E+03 
  33391.3356     0.32266E+03 
  33423.5978     0.32601E+03 
  33455.8599     0.32939E+03 
  33488.1221     0.33279E+03 
  33520.3842     0.33621E+03 
  33552.6464     0.33965E+03 
  33584.9086     0.34311E+03 
  33617.1707     0.34658E+03 
  33649.4329     0.35008E+03 
  33681.6950     0.35360E+03 
  33713.9572     0.35713E+03 
  33746.2194     0.36069E+03 
  33778.4815     0.36426E+03 
  33810.7437     0.36786E+03 
  33843.0058     0.37147E+03 
  33875.2680     0.37510E+03 
  33907.5302     0.37875E+03 
  33939.7923     0.38242E+03 
  33972.0545     0.38611E+03 
  34004.3166     0.38982E+03 
  34036.5788     0.39354E+03 
  34068.8410     0.39728E+03 
  34101.1031     0.40104E+03 
  34133.3653     0.40482E+03 
  34165.6274     0.40862E+03 
  34197.8896     0.41243E+03 
  34230.1518     0.41627E+03 
  34262.4139     0.42011E+03 
  34294.6761     0.42398E+03 
  34326.9382     0.42786E+03 
  34359.2004     0.43176E+03 
  34391.4626     0.43568E+03 
  34423.7247     0.43961E+03 
  34455.9869     0.44356E+03 
  34488.2490     0.44753E+03 
  34520.5112     0.45151E+03 
  34552.7734     0.45551E+03 
  34585.0355     0.45952E+03 
  34617.2977     0.46355E+03 
  34649.5598     0.46759E+03 
  34681.8220     0.47165E+03 
  34714.0842     0.47573E+03 
  34746.3463     0.47981E+03 
  34778.6085     0.48392E+03 
  34810.8706     0.48804E+03 
  34843.1328     0.49217E+03 
  34875.3950     0.49631E+03 
  34907.6571     0.50047E+03 
  34939.9193     0.50465E+03 
  34972.1814     0.50883E+03 
  35004.4436     0.51303E+03 
  35036.7058     0.51725E+03 
  35068.9679     0.52147E+03 
  35101.2301     0.52571E+03 
  35133.4922     0.52996E+03 
  35165.7544     0.53422E+03 
  35198.0166     0.53850E+03 
  35230.2787     0.54278E+03 
  35262.5409     0.54708E+03 
  35294.8030     0.55139E+03 
  35327.0652     0.55570E+03 
  35359.3274     0.56003E+03 
  35391.5895     0.56437E+03 
  35423.8517     0.56873E+03 
  35456.1138     0.57309E+03 
  35488.3760     0.57746E+03 
  35520.6382     0.58183E+03 
  35552.9003     0.58622E+03 
  35585.1625     0.59062E+03 
  35617.4246     0.59503E+03 
  35649.6868     0.59944E+03 
  35681.9490     0.60386E+03 
  35714.2111     0.60829E+03 
  35746.4733     0.61273E+03 
  35778.7354     0.61718E+03 
  35810.9976     0.62163E+03 
  35843.2598     0.62609E+03 
  35875.5219     0.63056E+03 
  35907.7841     0.63503E+03 
  35940.0462     0.63951E+03 
  35972.3084     0.64399E+03 
  36004.5706     0.64848E+03 
  36036.8327     0.65297E+03 
  36069.0949     0.65747E+03 
  36101.3570     0.66198E+03 
  36133.6192     0.66649E+03 
  36165.8814     0.67100E+03 
  36198.1435     0.67551E+03 
  36230.4057     0.68003E+03 
  36262.6678     0.68456E+03 
  36294.9300     0.68908E+03 
  36327.1922     0.69361E+03 
  36359.4543     0.69814E+03 
  36391.7165     0.70267E+03 
  36423.9786     0.70721E+03 
  36456.2408     0.71174E+03 
  36488.5030     0.71628E+03 
  36520.7651     0.72081E+03 
  36553.0273     0.72535E+03 
  36585.2894     0.72989E+03 
  36617.5516     0.73443E+03 
  36649.8138     0.73896E+03 
  36682.0759     0.74350E+03 
  36714.3381     0.74803E+03 
  36746.6002     0.75257E+03 
  36778.8624     0.75710E+03 
  36811.1246     0.76163E+03 
  36843.3867     0.76616E+03 
  36875.6489     0.77068E+03 
  36907.9110     0.77520E+03 
  36940.1732     0.77972E+03 
  36972.4354     0.78424E+03 
  37004.6975     0.78875E+03 
  37036.9597     0.79325E+03 
  37069.2218     0.79776E+03 
  37101.4840     0.80225E+03 
  37133.7462     0.80674E+03 
  37166.0083     0.81123E+03 
  37198.2705     0.81571E+03 
  37230.5326     0.82019E+03 
  37262.7948     0.82465E+03 
  37295.0570     0.82912E+03 
  37327.3191     0.83357E+03 
  37359.5813     0.83802E+03 
  37391.8434     0.84246E+03 
  37424.1056     0.84689E+03 
  37456.3678     0.85131E+03 
  37488.6299     0.85572E+03 
  37520.8921     0.86013E+03 
  37553.1542     0.86452E+03 
  37585.4164     0.86891E+03 
  37617.6786     0.87329E+03 
  37649.9407     0.87765E+03 
  37682.2029     0.88201E+03 
  37714.4650     0.88635E+03 
  37746.7272     0.89068E+03 
  37778.9894     0.89500E+03 
  37811.2515     0.89931E+03 
  37843.5137     0.90361E+03 
  37875.7758     0.90789E+03 
  37908.0380     0.91217E+03 
  37940.3002     0.91642E+03 
  37972.5623     0.92067E+03 
  38004.8245     0.92490E+03 
  38037.0866     0.92912E+03 
  38069.3488     0.93332E+03 
  38101.6110     0.93751E+03 
  38133.8731     0.94168E+03 
  38166.1353     0.94584E+03 
  38198.3974     0.94998E+03 
  38230.6596     0.95411E+03 
  38262.9218     0.95822E+03 
  38295.1839     0.96231E+03 
  38327.4461     0.96639E+03 
  38359.7082     0.97045E+03 
  38391.9704     0.97449E+03 
  38424.2326     0.97851E+03 
  38456.4947     0.98252E+03 
  38488.7569     0.98651E+03 
  38521.0190     0.99048E+03 
  38553.2812     0.99443E+03 
  38585.5434     0.99836E+03 
  38617.8055     0.10023E+04 
  38650.0677     0.10062E+04 
  38682.3298     0.10100E+04 
  38714.5920     0.10139E+04 
  38746.8542     0.10177E+04 
  38779.1163     0.10215E+04 
  38811.3785     0.10253E+04 
  38843.6406     0.10291E+04 
  38875.9028     0.10328E+04 
  38908.1650     0.10365E+04 
  38940.4271     0.10402E+04 
  38972.6893     0.10439E+04 
  39004.9514     0.10476E+04 
  39037.2136     0.10512E+04 
  39069.4758     0.10548E+04 
  39101.7379     0.10584E+04 
  39134.0001     0.10620E+04 
  39166.2622     0.10655E+04 
  39198.5244     0.10690E+04 
  39230.7866     0.10725E+04 
  39263.0487     0.10760E+04 
  39295.3109     0.10794E+04 
  39327.5730     0.10828E+04 
  39359.8352     0.10862E+04 
  39392.0974     0.10896E+04 
  39424.3595     0.10929E+04 
  39456.6217     0.10962E+04 
  39488.8838     0.10995E+04 
  39521.1460     0.11027E+04 
  39553.4082     0.11060E+04 
  39585.6703     0.11092E+04 
  39617.9325     0.11123E+04 
  39650.1946     0.11155E+04 
  39682.4568     0.11186E+04 
  39714.7190     0.11217E+04 
  39746.9811     0.11247E+04 
  39779.2433     0.11278E+04 
  39811.5054     0.11308E+04 
  39843.7676     0.11338E+04 
  39876.0298     0.11367E+04 
  39908.2919     0.11396E+04 
  39940.5541     0.11425E+04 
  39972.8162     0.11454E+04 
  40005.0784     0.11482E+04 
  40037.3406     0.11510E+04 
  40069.6027     0.11537E+04 
  40101.8649     0.11565E+04 
  40134.1270     0.11592E+04 
  40166.3892     0.11618E+04 
  40198.6514     0.11645E+04 
  40230.9135     0.11671E+04 
  40263.1757     0.11697E+04 
  40295.4378     0.11722E+04 
  40327.7000     0.11747E+04 
  40359.9622     0.11772E+04 
  40392.2243     0.11797E+04 
  40424.4865     0.11821E+04 
  40456.7486     0.11845E+04 
  40489.0108     0.11868E+04 
  40521.2730     0.11891E+04 
  40553.5351     0.11914E+04 
  40585.7973     0.11937E+04 
  40618.0594     0.11959E+04 
  40650.3216     0.11981E+04 
  40682.5838     0.12002E+04 
  40714.8459     0.12024E+04 
  40747.1081     0.12044E+04 
  40779.3702     0.12065E+04 
  40811.6324     0.12085E+04 
  40843.8946     0.12105E+04 
  40876.1567     0.12124E+04 
  40908.4189     0.12144E+04 
  40940.6810     0.12162E+04 
  40972.9432     0.12181E+04 
  41005.2054     0.12199E+04 
  41037.4675     0.12217E+04 
  41069.7297     0.12234E+04 
  41101.9918     0.12251E+04 
  41134.2540     0.12268E+04 
  41166.5162     0.12284E+04 
  41198.7783     0.12300E+04 
  41231.0405     0.12316E+04 
  41263.3026     0.12331E+04 
  41295.5648     0.12346E+04 
  41327.8270     0.12361E+04 
  41360.0891     0.12375E+04 
  41392.3513     0.12389E+04 
  41424.6134     0.12403E+04 
  41456.8756     0.12416E+04 
  41489.1378     0.12429E+04 
  41521.3999     0.12441E+04 
  41553.6621     0.12453E+04 
  41585.9242     0.12465E+04 
  41618.1864     0.12476E+04 
  41650.4486     0.12487E+04 
  41682.7107     0.12498E+04 
  41714.9729     0.12508E+04 
  41747.2350     0.12518E+04 
  41779.4972     0.12528E+04 
  41811.7594     0.12537E+04 
  41844.0215     0.12546E+04 
  41876.2837     0.12555E+04 
  41908.5458     0.12563E+04 
  41940.8080     0.12570E+04 
  41973.0702     0.12578E+04 
  42005.3323     0.12585E+04 
  42037.5945     0.12592E+04 
  42069.8566     0.12598E+04 
  42102.1188     0.12604E+04 
  42134.3810     0.12610E+04 
  42166.6431     0.12615E+04 
  42198.9053     0.12620E+04 
  42231.1674     0.12624E+04 
  42263.4296     0.12629E+04 
  42295.6918     0.12632E+04 
  42327.9539     0.12636E+04 
  42360.2161     0.12639E+04 
  42392.4782     0.12642E+04 
  42424.7404     0.12644E+04 
  42457.0026     0.12646E+04 
  42489.2647     0.12648E+04 
  42521.5269     0.12649E+04 
  42553.7890     0.12650E+04 
  42586.0512     0.12651E+04 
  42618.3134     0.12651E+04 
  42650.5755     0.12651E+04 
  42682.8377     0.12650E+04 
  42715.0998     0.12650E+04 
  42747.3620     0.12648E+04 
  42779.6242     0.12647E+04 
  42811.8863     0.12645E+04 
  42844.1485     0.12643E+04 
  42876.4106     0.12640E+04 
  42908.6728     0.12637E+04 
  42940.9350     0.12634E+04 
  42973.1971     0.12630E+04 
  43005.4593     0.12626E+04 
  43037.7214     0.12622E+04 
  43069.9836     0.12617E+04 
  43102.2458     0.12612E+04 
  43134.5079     0.12607E+04 
  43166.7701     0.12601E+04 
  43199.0322     0.12595E+04 
  43231.2944     0.12589E+04 
  43263.5566     0.12582E+04 
  43295.8187     0.12575E+04 
  43328.0809     0.12568E+04 
  43360.3430     0.12560E+04 
  43392.6052     0.12552E+04 
  43424.8674     0.12544E+04 
  43457.1295     0.12535E+04 
  43489.3917     0.12526E+04 
  43521.6538     0.12517E+04 
  43553.9160     0.12507E+04 
  43586.1782     0.12497E+04 
  43618.4403     0.12487E+04 
  43650.7025     0.12476E+04 
  43682.9646     0.12465E+04 
  43715.2268     0.12454E+04 
  43747.4890     0.12442E+04 
  43779.7511     0.12430E+04 
  43812.0133     0.12418E+04 
  43844.2754     0.12405E+04 
  43876.5376     0.12393E+04 
  43908.7998     0.12379E+04 
  43941.0619     0.12366E+04 
  43973.3241     0.12352E+04 
  44005.5862     0.12338E+04 
  44037.8484     0.12323E+04 
  44070.1106     0.12309E+04 
  44102.3727     0.12294E+04 
  44134.6349     0.12278E+04 
  44166.8970     0.12263E+04 
  44199.1592     0.12247E+04 
  44231.4214     0.12231E+04 
  44263.6835     0.12214E+04 
  44295.9457     0.12197E+04 
  44328.2078     0.12180E+04 
  44360.4700     0.12163E+04 
  44392.7322     0.12145E+04 
  44424.9943     0.12127E+04 
  44457.2565     0.12109E+04 
  44489.5186     0.12090E+04 
  44521.7808     0.12072E+04 
  44554.0430     0.12053E+04 
  44586.3051     0.12033E+04 
  44618.5673     0.12014E+04 
  44650.8294     0.11994E+04 
  44683.0916     0.11974E+04 
  44715.3538     0.11953E+04 
  44747.6159     0.11933E+04 
  44779.8781     0.11912E+04 
  44812.1402     0.11890E+04 
  44844.4024     0.11869E+04 
  44876.6646     0.11847E+04 
  44908.9267     0.11825E+04 
  44941.1889     0.11803E+04 
  44973.4510     0.11780E+04 
  45005.7132     0.11758E+04 
  45037.9754     0.11735E+04 
  45070.2375     0.11712E+04 
  45102.4997     0.11688E+04 
  45134.7618     0.11664E+04 
  45167.0240     0.11640E+04 
  45199.2862     0.11616E+04 
  45231.5483     0.11592E+04 
  45263.8105     0.11567E+04 
  45296.0726     0.11542E+04 
  45328.3348     0.11517E+04 
  45360.5970     0.11492E+04 
  45392.8591     0.11466E+04 
  45425.1213     0.11440E+04 
  45457.3834     0.11414E+04 
  45489.6456     0.11388E+04 
  45521.9078     0.11362E+04 
  45554.1699     0.11335E+04 
  45586.4321     0.11308E+04 
  45618.6942     0.11281E+04 
  45650.9564     0.11254E+04 
  45683.2186     0.11227E+04 
  45715.4807     0.11199E+04 
  45747.7429     0.11171E+04 
  45780.0050     0.11143E+04 
  45812.2672     0.11115E+04 
  45844.5294     0.11086E+04 
  45876.7915     0.11058E+04 
  45909.0537     0.11029E+04 
  45941.3158     0.11000E+04 
  45973.5780     0.10970E+04 
  46005.8402     0.10941E+04 
  46038.1023     0.10912E+04 
  46070.3645     0.10882E+04 
  46102.6266     0.10852E+04 
  46134.8888     0.10822E+04 
  46167.1510     0.10792E+04 
  46199.4131     0.10761E+04 
  46231.6753     0.10731E+04 
  46263.9374     0.10700E+04 
  46296.1996     0.10669E+04 
  46328.4618     0.10638E+04 
  46360.7239     0.10607E+04 
  46392.9861     0.10575E+04 
  46425.2482     0.10544E+04 
  46457.5104     0.10512E+04 
  46489.7726     0.10480E+04 
  46522.0347     0.10448E+04 
  46554.2969     0.10416E+04 
  46586.5590     0.10384E+04 
  46618.8212     0.10351E+04 
  46651.0834     0.10319E+04 
  46683.3455     0.10286E+04 
  46715.6077     0.10253E+04 
  46747.8698     0.10220E+04 
  46780.1320     0.10187E+04 
  46812.3942     0.10154E+04 
  46844.6563     0.10121E+04 
  46876.9185     0.10087E+04 
  46909.1806     0.10054E+04 
  46941.4428     0.10020E+04 
  46973.7050     0.99864E+03 
  47005.9671     0.99525E+03 
  47038.2293     0.99185E+03 
  47070.4914     0.98844E+03 
  47102.7536     0.98502E+03 
  47135.0158     0.98159E+03 
  47167.2779     0.97814E+03 
  47199.5401     0.97469E+03 
  47231.8022     0.97123E+03 
  47264.0644     0.96776E+03 
  47296.3266     0.96428E+03 
  47328.5887     0.96079E+03 
  47360.8509     0.95730E+03 
  47393.1130     0.95379E+03 
  47425.3752     0.95028E+03 
  47457.6374     0.94675E+03 
  47489.8995     0.94322E+03 
  47522.1617     0.93968E+03 
  47554.4238     0.93614E+03 
  47586.6860     0.93259E+03 
  47618.9482     0.92903E+03 
  47651.2103     0.92546E+03 
  47683.4725     0.92189E+03 
  47715.7346     0.91831E+03 
  47747.9968     0.91472E+03 
  47780.2590     0.91113E+03 
  47812.5211     0.90753E+03 
  47844.7833     0.90393E+03 
  47877.0454     0.90032E+03 
  47909.3076     0.89670E+03 
  47941.5698     0.89308E+03 
  47973.8319     0.88946E+03 
  48006.0941     0.88583E+03 
  48038.3562     0.88220E+03 
  48070.6184     0.87856E+03 
  48102.8806     0.87492E+03 
  48135.1427     0.87127E+03 
  48167.4049     0.86762E+03 
  48199.6670     0.86397E+03 
  48231.9292     0.86031E+03 
  48264.1914     0.85665E+03 
  48296.4535     0.85299E+03 
  48328.7157     0.84933E+03 
  48360.9778     0.84566E+03 
  48393.2400     0.84199E+03 
  48425.5022     0.83832E+03 
  48457.7643     0.83464E+03 
  48490.0265     0.83097E+03 
  48522.2886     0.82729E+03 
  48554.5508     0.82361E+03 
  48586.8130     0.81993E+03 
  48619.0751     0.81625E+03 
  48651.3373     0.81257E+03 
  48683.5994     0.80889E+03 
  48715.8616     0.80521E+03 
  48748.1238     0.80152E+03 
  48780.3859     0.79784E+03 
  48812.6481     0.79416E+03 
  48844.9102     0.79047E+03 
  48877.1724     0.78679E+03 
  48909.4346     0.78311E+03 
  48941.6967     0.77942E+03 
  48973.9589     0.77574E+03 
  49006.2210     0.77206E+03 
  49038.4832     0.76838E+03 
  49070.7454     0.76471E+03 
  49103.0075     0.76103E+03 
  49135.2697     0.75736E+03 
  49167.5318     0.75368E+03 
  49199.7940     0.75001E+03 
  49232.0562     0.74634E+03 
  49264.3183     0.74268E+03 
  49296.5805     0.73901E+03 
  49328.8426     0.73535E+03 
  49361.1048     0.73169E+03 
  49393.3670     0.72804E+03 
  49425.6291     0.72438E+03 
  49457.8913     0.72073E+03 
  49490.1534     0.71709E+03 
  49522.4156     0.71344E+03 
  49554.6778     0.70980E+03 
  49586.9399     0.70617E+03 
  49619.2021     0.70254E+03 
  49651.4642     0.69891E+03 
  49683.7264     0.69528E+03 
  49715.9886     0.69166E+03 
  49748.2507     0.68805E+03 
  49780.5129     0.68444E+03 
  49812.7750     0.68083E+03 
  49845.0372     0.67723E+03 
  49877.2994     0.67364E+03 
  49909.5615     0.67004E+03 
  49941.8237     0.66646E+03 
  49974.0858     0.66288E+03 
  50006.3480     0.65930E+03 
  50038.6102     0.65573E+03 
  50070.8723     0.65217E+03 
  50103.1345     0.64861E+03 
  50135.3966     0.64506E+03 
  50167.6588     0.64151E+03 
  50199.9210     0.63797E+03 
  50232.1831     0.63444E+03 
  50264.4453     0.63091E+03 
  50296.7074     0.62739E+03 
  50328.9696     0.62388E+03 
  50361.2318     0.62037E+03 
  50393.4939     0.61687E+03 
  50425.7561     0.61337E+03 
  50458.0182     0.60989E+03 
  50490.2804     0.60641E+03 
  50522.5426     0.60294E+03 
  50554.8047     0.59947E+03 
  50587.0669     0.59601E+03 
  50619.3290     0.59256E+03 
  50651.5912     0.58912E+03 
  50683.8534     0.58569E+03 
  50716.1155     0.58226E+03 
  50748.3777     0.57884E+03 
  50780.6398     0.57543E+03 
  50812.9020     0.57203E+03 
  50845.1642     0.56863E+03 
  50877.4263     0.56525E+03 
  50909.6885     0.56187E+03 
  50941.9506     0.55850E+03 
  50974.2128     0.55514E+03 
  51006.4750     0.55179E+03 
  51038.7371     0.54844E+03 
  51070.9993     0.54511E+03 
  51103.2614     0.54178E+03 
  51135.5236     0.53846E+03 
  51167.7858     0.53516E+03 
  51200.0479     0.53186E+03 
  51232.3101     0.52857E+03 
  51264.5722     0.52529E+03 
  51296.8344     0.52202E+03 
  51329.0966     0.51876E+03 
  51361.3587     0.51550E+03 
  51393.6209     0.51226E+03 
  51425.8830     0.50903E+03 
  51458.1452     0.50580E+03 
  51490.4074     0.50259E+03 
  51522.6695     0.49939E+03 
  51554.9317     0.49619E+03 
  51587.1938     0.49301E+03 
  51619.4560     0.48984E+03 
  51651.7182     0.48667E+03 
  51683.9803     0.48352E+03 
  51716.2425     0.48037E+03 
  51748.5046     0.47724E+03 
  51780.7668     0.47412E+03 
  51813.0290     0.47100E+03 
  51845.2911     0.46790E+03 
  51877.5533     0.46481E+03 
  51909.8154     0.46173E+03 
  51942.0776     0.45866E+03 
  51974.3398     0.45560E+03 
  52006.6019     0.45255E+03 
  52038.8641     0.44951E+03 
  52071.1262     0.44648E+03 
  52103.3884     0.44346E+03 
  52135.6506     0.44046E+03 
  52167.9127     0.43746E+03 
  52200.1749     0.43448E+03 
  52232.4370     0.43150E+03 
  52264.6992     0.42854E+03 
  52296.9614     0.42559E+03 
  52329.2235     0.42264E+03 
  52361.4857     0.41971E+03 
  52393.7478     0.41680E+03 
  52426.0100     0.41389E+03 
  52458.2722     0.41099E+03 
  52490.5343     0.40811E+03 
  52522.7965     0.40523E+03 
  52555.0586     0.40237E+03 
  52587.3208     0.39952E+03 
  52619.5830     0.39668E+03 
  52651.8451     0.39385E+03 
  52684.1073     0.39103E+03 
  52716.3694     0.38823E+03 
  52748.6316     0.38543E+03 
  52780.8938     0.38265E+03 
  52813.1559     0.37988E+03 
  52845.4181     0.37712E+03 
  52877.6802     0.37437E+03 
  52909.9424     0.37163E+03 
  52942.2046     0.36890E+03 
  52974.4667     0.36619E+03 
  53006.7289     0.36349E+03 
  53038.9910     0.36080E+03 
  53071.2532     0.35812E+03 
  53103.5154     0.35545E+03 
  53135.7775     0.35279E+03 
  53168.0397     0.35015E+03 
  53200.3018     0.34752E+03 
  53232.5640     0.34490E+03 
  53264.8262     0.34229E+03 
  53297.0883     0.33969E+03 
  53329.3505     0.33710E+03 
  53361.6126     0.33453E+03 
  53393.8748     0.33197E+03 
  53426.1370     0.32942E+03 
  53458.3991     0.32688E+03 
  53490.6613     0.32435E+03 
  53522.9234     0.32183E+03 
  53555.1856     0.31933E+03 
  53587.4478     0.31684E+03 
  53619.7099     0.31436E+03 
  53651.9721     0.31189E+03 
  53684.2342     0.30943E+03 
  53716.4964     0.30699E+03 
  53748.7586     0.30455E+03 
  53781.0207     0.30213E+03 
  53813.2829     0.29972E+03 
  53845.5450     0.29732E+03 
  53877.8072     0.29494E+03 
  53910.0694     0.29256E+03 
  53942.3315     0.29020E+03 
  53974.5937     0.28785E+03 
  54006.8558     0.28551E+03 
  54039.1180     0.28318E+03 
  54071.3802     0.28087E+03 
  54103.6423     0.27856E+03 
  54135.9045     0.27627E+03 
  54168.1666     0.27399E+03 
  54200.4288     0.27172E+03 
  54232.6910     0.26946E+03 
  54264.9531     0.26721E+03 
  54297.2153     0.26498E+03 
  54329.4774     0.26276E+03 
  54361.7396     0.26054E+03 
  54394.0018     0.25835E+03 
  54426.2639     0.25616E+03 
  54458.5261     0.25398E+03 
  54490.7882     0.25182E+03 
  54523.0504     0.24966E+03 
  54555.3126     0.24752E+03 
  54587.5747     0.24539E+03 
  54619.8369     0.24327E+03 
  54652.0990     0.24116E+03 
  54684.3612     0.23907E+03 
  54716.6234     0.23698E+03 
  54748.8855     0.23491E+03 
  54781.1477     0.23285E+03 
  54813.4098     0.23079E+03 
  54845.6720     0.22876E+03 
  54877.9342     0.22673E+03 
  54910.1963     0.22471E+03 
  54942.4585     0.22270E+03 
  54974.7206     0.22071E+03 
  55006.9828     0.21873E+03 
  55039.2450     0.21676E+03 
  55071.5071     0.21479E+03 
  55103.7693     0.21285E+03 
  55136.0314     0.21091E+03 
  55168.2936     0.20898E+03 
  55200.5558     0.20706E+03 
  55232.8179     0.20516E+03 
  55265.0801     0.20326E+03 
  55297.3422     0.20138E+03 
  55329.6044     0.19951E+03 
  55361.8666     0.19765E+03 
  55394.1287     0.19580E+03 
  55426.3909     0.19396E+03 
  55458.6530     0.19213E+03 
  55490.9152     0.19031E+03 
  55523.1774     0.18851E+03 
  55555.4395     0.18671E+03 
  55587.7017     0.18492E+03 
  55619.9638     0.18315E+03 
  55652.2260     0.18139E+03 
  55684.4882     0.17963E+03 
  55716.7503     0.17789E+03 
  55749.0125     0.17616E+03 
  55781.2746     0.17444E+03 
  55813.5368     0.17273E+03 
  55845.7990     0.17103E+03 
  55878.0611     0.16934E+03 
  55910.3233     0.16766E+03 
  55942.5854     0.16599E+03 
  55974.8476     0.16433E+03 
  56007.1098     0.16268E+03 
  56039.3719     0.16104E+03 
  56071.6341     0.15942E+03 
  56103.8962     0.15780E+03 
  56136.1584     0.15619E+03 
  56168.4206     0.15460E+03 
  56200.6827     0.15301E+03 
  56232.9449     0.15143E+03 
  56265.2070     0.14987E+03 
  56297.4692     0.14831E+03 
  56329.7314     0.14677E+03 
  56361.9935     0.14523E+03 
  56394.2557     0.14370E+03 
  56426.5178     0.14219E+03 
  56458.7800     0.14068E+03 
  56491.0422     0.13918E+03 
  56523.3043     0.13770E+03 
  56555.5665     0.13622E+03 
  56587.8286     0.13475E+03 
  56620.0908     0.13330E+03 
  56652.3530     0.13185E+03 
  56684.6151     0.13041E+03 
  56716.8773     0.12898E+03 
  56749.1394     0.12757E+03 
  56781.4016     0.12616E+03 
  56813.6638     0.12476E+03 
  56845.9259     0.12337E+03 
  56878.1881     0.12199E+03 
  56910.4502     0.12062E+03 
  56942.7124     0.11925E+03 
  56974.9746     0.11790E+03 
  57007.2367     0.11656E+03 
  57039.4989     0.11522E+03 
  57071.7610     0.11390E+03 
  57104.0232     0.11259E+03 
  57136.2854     0.11128E+03 
  57168.5475     0.10998E+03 
  57200.8097     0.10870E+03 
  57233.0718     0.10742E+03 
  57265.3340     0.10615E+03 
  57297.5962     0.10489E+03 
  57329.8583     0.10364E+03 
  57362.1205     0.10239E+03 
  57394.3826     0.10116E+03 
  57426.6448     0.99935E+02 
  57458.9070     0.98719E+02 
  57491.1691     0.97512E+02 
  57523.4313     0.96314E+02 
  57555.6934     0.95124E+02 
  57587.9556     0.93944E+02 
  57620.2178     0.92772E+02 
  57652.4799     0.91608E+02 
  57684.7421     0.90454E+02 
  57717.0042     0.89307E+02 
  57749.2664     0.88170E+02 
  57781.5286     0.87041E+02 
  57813.7907     0.85920E+02 
  57846.0529     0.84808E+02 
  57878.3150     0.83704E+02 
  57910.5772     0.82609E+02 
  57942.8394     0.81522E+02 
  57975.1015     0.80444E+02 
  58007.3637     0.79374E+02 
  58039.6258     0.78312E+02 
  58071.8880     0.77258E+02 
  58104.1502     0.76212E+02 
  58136.4123     0.75175E+02 
  58168.6745     0.74146E+02 
  58200.9366     0.73125E+02 
  58233.1988     0.72112E+02 
  58265.4610     0.71107E+02 
  58297.7231     0.70110E+02 
  58329.9853     0.69121E+02 
  58362.2474     0.68140E+02 
  58394.5096     0.67167E+02 
  58426.7718     0.66202E+02 
  58459.0339     0.65245E+02 
  58491.2961     0.64296E+02 
  58523.5582     0.63354E+02 
  58555.8204     0.62420E+02 
  58588.0826     0.61494E+02 
  58620.3447     0.60576E+02 
  58652.6069     0.59666E+02 
  58684.8690     0.58763E+02 
  58717.1312     0.57868E+02 
  58749.3934     0.56980E+02 
  58781.6555     0.56101E+02 
  58813.9177     0.55228E+02 
  58846.1798     0.54364E+02 
  58878.4420     0.53507E+02 
  58910.7042     0.52657E+02 
  58942.9663     0.51815E+02 
  58975.2285     0.50980E+02 
  59007.4906     0.50153E+02 
  59039.7528     0.49333E+02 
  59072.0150     0.48521E+02 
  59104.2771     0.47716E+02 
  59136.5393     0.46918E+02 
  59168.8014     0.46128E+02 
  59201.0636     0.45345E+02 
  59233.3258     0.44569E+02 
  59265.5879     0.43800E+02 
  59297.8501     0.43039E+02 
  59330.1122     0.42285E+02 
  59362.3744     0.41539E+02 
  59394.6366     0.40799E+02 
  59426.8987     0.40067E+02 
  59459.1609     0.39341E+02 
  59491.4230     0.38623E+02 
  59523.6852     0.37912E+02 
  59555.9474     0.37209E+02 
  59588.2095     0.36512E+02 
  59620.4717     0.35822E+02 
  59652.7338     0.35140E+02 
  59684.9960     0.34464E+02 
  59717.2582     0.33796E+02 
  59749.5203     0.33134E+02 
  59781.7825     0.32480E+02 
  59814.0446     0.31832E+02 
  59846.3068     0.31192E+02 
  59878.5690     0.30559E+02 
  59910.8311     0.29932E+02 
  59943.0933     0.29313E+02 
  59975.3554     0.28700E+02 
  60007.6176     0.28094E+02 
  60039.8798     0.27496E+02 
  60072.1419     0.26904E+02 
  60104.4041     0.26319E+02 
  60136.6662     0.25741E+02 
  60168.9284     0.25170E+02 
  60201.1906     0.24606E+02 
  60233.4527     0.24049E+02 
  60265.7149     0.23499E+02 
  60297.9770     0.22956E+02 
  60330.2392     0.22419E+02 
  60362.5014     0.21890E+02 
  60394.7635     0.21367E+02 
  60427.0257     0.20851E+02 
  60459.2878     0.20342E+02 
  60491.5500     0.19841E+02 
  60523.8122     0.19346E+02 
  60556.0743     0.18858E+02 
  60588.3365     0.18376E+02 
  60620.5986     0.17902E+02 
  60652.8608     0.17435E+02 
  60685.1230     0.16974E+02 
  60717.3851     0.16521E+02 
  60749.6473     0.16075E+02 
  60781.9094     0.15635E+02 
  60814.1716     0.15203E+02 
  60846.4338     0.14777E+02 
  60878.6959     0.14359E+02 
  60910.9581     0.13947E+02 
  60943.2202     0.13543E+02 
  60975.4824     0.13146E+02 
  61007.7446     0.12755E+02 
  61040.0067     0.12372E+02 
  61072.2689     0.11996E+02 
  61104.5310     0.11627E+02 
  61136.7932     0.11265E+02 
  61169.0554     0.10911E+02 
  61201.3175     0.10563E+02 
  61233.5797     0.10223E+02 
  61265.8418     0.98904E+01 
  61298.1040     0.95648E+01 
  61330.3662     0.92465E+01 
  61362.6283     0.89355E+01 
  61394.8905     0.86319E+01 
  61427.1526     0.83358E+01 
  61459.4148     0.80471E+01 
  61491.6770     0.77658E+01 
  61523.9391     0.74921E+01 
  61556.2013     0.72259E+01 
  61588.4634     0.69674E+01 
  61620.7256     0.67165E+01 
  61652.9878     0.64732E+01 
  61685.2499     0.62377E+01 
  61717.5121     0.60100E+01 
  61749.7742     0.57901E+01 
  61782.0364     0.55781E+01 
  61814.2986     0.53740E+01 
  61846.5607     0.51778E+01 
  61878.8229     0.49897E+01 
  61911.0850     0.48097E+01 
  61943.3472     0.46378E+01 
  61975.6094     0.44742E+01 
  62007.8715     0.43188E+01 
  62040.1337     0.41717E+01 
  62072.3958     0.40331E+01 
  62104.6580     0.39029E+01 
  62136.9202     0.37812E+01 
  62169.1823     0.36682E+01 
  62201.4445     0.35638E+01 
  62233.7066     0.34682E+01 
  62265.9688     0.33814E+01 
  62298.2310     0.33035E+01 
  62330.4931     0.32346E+01 
  62362.7553     0.31748E+01 
  62395.0174     0.31242E+01 
  62427.2796     0.30828E+01 
  62459.5418     0.30508E+01 
  62491.8039     0.30281E+01 
  62524.0661     0.30151E+01 
  62556.3282     0.30116E+01 
  62588.5904     0.30179E+01 
  62620.8526     0.30340E+01 
  62653.1147     0.30601E+01 
  62685.3769     0.30962E+01 
  62717.6390     0.31425E+01 
  62749.9012     0.31990E+01 
  62782.1634     0.32660E+01 
  62814.4255     0.33434E+01 
  62846.6877     0.34315E+01 
  62878.9498     0.35303E+01 
  62911.2120     0.36400E+01 
  62943.4742     0.37608E+01 
  62975.7363     0.38926E+01 
  63007.9985     0.40358E+01 
  63040.2606     0.41904E+01 
  63072.5228     0.43566E+01 
  63104.7850     0.45344E+01 
  63137.0471     0.47242E+01 
  63169.3093     0.49259E+01 
  63201.5714     0.51399E+01 
  63233.8336     0.53661E+01 
  63266.0958     0.56049E+01 
  63298.3579     0.58563E+01 
  63330.6201     0.61206E+01 
  63362.8822     0.63979E+01 
  63395.1444     0.66884E+01 
  63427.4066     0.69922E+01 
  63459.6687     0.73096E+01 
  63491.9309     0.76408E+01 
  63524.1930     0.79859E+01 
  63556.4552     0.83451E+01 
  63588.7174     0.87187E+01 
  63620.9795     0.91069E+01 
  63653.2417     0.95098E+01 
  63685.5038     0.99276E+01 
  63717.7660     0.10361E+02 
  63750.0282     0.10809E+02 
  63782.2903     0.11273E+02 
  63814.5525     0.11753E+02 
  63846.8146     0.12249E+02 
  63879.0768     0.12762E+02 
  63911.3390     0.13291E+02 
  63943.6011     0.13837E+02 
  63975.8633     0.14400E+02 
  64008.1254     0.14980E+02 
  64040.3876     0.15578E+02 
  64072.6498     0.16194E+02 
  64104.9119     0.16829E+02 
  64137.1741     0.17481E+02 
  64169.4362     0.18153E+02 
  64201.6984     0.18843E+02 
  64233.9606     0.19553E+02 
  64266.2227     0.20282E+02 
  64298.4849     0.21032E+02 
  64330.7470     0.21802E+02 
  64363.0092     0.22592E+02 
  64395.2714     0.23403E+02 
  64427.5335     0.24236E+02 
  64459.7957     0.25090E+02 
  64492.0578     0.25966E+02 
  64524.3200     0.26865E+02 
  64556.5822     0.27786E+02 
  64588.8443     0.28730E+02 
  64621.1065     0.29697E+02 
  64653.3686     0.30689E+02 
  64685.6308     0.31704E+02 
  64717.8930     0.32744E+02 
  64750.1551     0.33809E+02 
  64782.4173     0.34900E+02 
  64814.6794     0.36016E+02 
  64846.9416     0.37158E+02 
  64879.2038     0.38327E+02 
  64911.4659     0.39524E+02 
  64943.7281     0.40747E+02 
  64975.9902     0.41999E+02 
  65008.2524     0.43279E+02 
  65040.5146     0.44587E+02 
  65072.7767     0.45926E+02 
  65105.0389     0.47294E+02 
  65137.3010     0.48692E+02 
  65169.5632     0.50121E+02 
  65201.8254     0.51581E+02 
  65234.0875     0.53074E+02 
  65266.3497     0.54598E+02 
  65298.6118     0.56156E+02 
  65330.8740     0.57747E+02 
  65363.1362     0.59372E+02 
  65395.3983     0.61031E+02 
  65427.6605     0.62726E+02 
  65459.9226     0.64456E+02 
  65492.1848     0.66222E+02 
  65524.4470     0.68025E+02 
  65556.7091     0.69866E+02 
  65588.9713     0.71745E+02 
  65621.2334     0.73662E+02 
  65653.4956     0.75619E+02 
  65685.7578     0.77615E+02 
  65718.0199     0.79652E+02 
  65750.2821     0.81731E+02 
  65782.5442     0.83851E+02 
  65814.8064     0.86014E+02 
  65847.0686     0.88220E+02 
  65879.3307     0.90470E+02 
  65911.5929     0.92764E+02 
  65943.8550     0.95104E+02 
  65976.1172     0.97490E+02 
  66008.3794     0.99923E+02 
  66040.6415     0.10240E+03 
  66072.9037     0.10493E+03 
  66105.1658     0.10751E+03 
  66137.4280     0.11014E+03 
  66169.6902     0.11282E+03 
  66201.9523     0.11555E+03 
  66234.2145     0.11833E+03 
  66266.4766     0.12117E+03 
  66298.7388     0.12405E+03 
  66331.0010     0.12700E+03 
  66363.2631     0.13000E+03 
  66395.5253     0.13306E+03 
  66427.7874     0.13617E+03 
  66460.0496     0.13934E+03 
  66492.3118     0.14257E+03 
  66524.5739     0.14586E+03 
  66556.8361     0.14922E+03 
  66589.0982     0.15263E+03 
  66621.3604     0.15611E+03 
  66653.6226     0.15965E+03 
  66685.8847     0.16326E+03 
  66718.1469     0.16693E+03 
  66750.4090     0.17067E+03 
  66782.6712     0.17447E+03 
  66814.9334     0.17835E+03 
  66847.1955     0.18229E+03 
  66879.4577     0.18631E+03 
  66911.7198     0.19040E+03 
  66943.9820     0.19456E+03 
  66976.2442     0.19880E+03 
  67008.5063     0.20311E+03 
  67040.7685     0.20749E+03 
  67073.0306     0.21196E+03 
  67105.2928     0.21650E+03 
  67137.5550     0.22113E+03 
  67169.8171     0.22583E+03 
  67202.0793     0.23062E+03 
  67234.3414     0.23549E+03 
  67266.6036     0.24044E+03 
  67298.8658     0.24548E+03 
  67331.1279     0.25061E+03 
  67363.3901     0.25582E+03 
  67395.6522     0.26113E+03 
  67427.9144     0.26652E+03 
  67460.1766     0.27201E+03 
  67492.4387     0.27759E+03 
  67524.7009     0.28326E+03 
  67556.9630     0.28903E+03 
  67589.2252     0.29490E+03 
  67621.4874     0.30087E+03 
  67653.7495     0.30693E+03 
  67686.0117     0.31310E+03 
  67718.2738     0.31937E+03 
  67750.5360     0.32574E+03 
  67782.7982     0.33222E+03 
  67815.0603     0.33881E+03 
  67847.3225     0.34550E+03 
  67879.5846     0.35231E+03 
  67911.8468     0.35922E+03 
  67944.1090     0.36625E+03 
  67976.3711     0.37339E+03 
  68008.6333     0.38065E+03 
  68040.8954     0.38802E+03 
  68073.1576     0.39552E+03 
  68105.4198     0.40313E+03 
  68137.6819     0.41086E+03 
  68169.9441     0.41872E+03 
  68202.2062     0.42670E+03 
  68234.4684     0.43481E+03 
  68266.7306     0.44305E+03 
  68298.9927     0.45142E+03 
  68331.2549     0.45991E+03 
  68363.5170     0.46854E+03 
  68395.7792     0.47731E+03 
  68428.0414     0.48621E+03 
  68460.3035     0.49525E+03 
  68492.5657     0.50443E+03 
  68524.8278     0.51374E+03 
  68557.0900     0.52321E+03 
  68589.3522     0.53281E+03 
  68621.6143     0.54256E+03 
  68653.8765     0.55246E+03 
  68686.1386     0.56251E+03 
  68718.4008     0.57272E+03 
  68750.6630     0.58307E+03 
  68782.9251     0.59358E+03 
  68815.1873     0.60424E+03 
  68847.4494     0.61507E+03 
  68879.7116     0.62605E+03 
  68911.9738     0.63720E+03 
  68944.2359     0.64851E+03 
  68976.4981     0.65998E+03 
  69008.7602     0.67163E+03 
  69041.0224     0.68344E+03 
  69073.2846     0.69542E+03 
  69105.5467     0.70758E+03 
  69137.8089     0.71991E+03 
  69170.0710     0.73242E+03 
  69202.3332     0.74511E+03 
  69234.5954     0.75798E+03 
  69266.8575     0.77102E+03 
  69299.1197     0.78426E+03 
  69331.3818     0.79768E+03 
  69363.6440     0.81129E+03 
  69395.9062     0.82509E+03 
  69428.1683     0.83908E+03 
  69460.4305     0.85326E+03 
  69492.6926     0.86764E+03 
  69524.9548     0.88222E+03 
  69557.2170     0.89700E+03 
  69589.4791     0.91197E+03 
  69621.7413     0.92716E+03 
  69654.0034     0.94255E+03 
  69686.2656     0.95814E+03 
  69718.5278     0.97395E+03 
  69750.7899     0.98996E+03 
  69783.0521     0.10062E+04 
  69815.3142     0.10226E+04 
  69847.5764     0.10393E+04 
  69879.8386     0.10562E+04 
  69912.1007     0.10733E+04 
  69944.3629     0.10906E+04 
  69976.6250     0.11082E+04 
  70008.8872     0.11259E+04 
  70041.1494     0.11440E+04 
  70073.4115     0.11622E+04 
  70105.6737     0.11807E+04 
  70137.9358     0.11994E+04 
  70170.1980     0.12183E+04 
  70202.4602     0.12375E+04 
  70234.7223     0.12569E+04 
  70266.9845     0.12766E+04 
  70299.2466     0.12965E+04 
  70331.5088     0.13167E+04 
  70363.7710     0.13371E+04 
  70396.0331     0.13577E+04 
  70428.2953     0.13786E+04 
  70460.5574     0.13998E+04 
  70492.8196     0.14212E+04 
  70525.0818     0.14429E+04 
  70557.3439     0.14649E+04 
  70589.6061     0.14871E+04 
  70621.8682     0.15095E+04 
  70654.1304     0.15323E+04 
  70686.3926     0.15553E+04 
  70718.6547     0.15785E+04 
  70750.9169     0.16021E+04 
  70783.1790     0.16259E+04 
  70815.4412     0.16500E+04 
  70847.7034     0.16744E+04 
  70879.9655     0.16990E+04 
  70912.2277     0.17239E+04 
  70944.4898     0.17492E+04 
  70976.7520     0.17747E+04 
  71009.0142     0.18005E+04 
  71041.2763     0.18265E+04 
  71073.5385     0.18529E+04 
  71105.8006     0.18795E+04 
  71138.0628     0.19065E+04 
  71170.3250     0.19337E+04 
  71202.5871     0.19613E+04 
  71234.8493     0.19891E+04 
  71267.1114     0.20173E+04 
  71299.3736     0.20457E+04 
  71331.6358     0.20745E+04 
  71363.8979     0.21035E+04 
  71396.1601     0.21329E+04 
  71428.4222     0.21625E+04 
  71460.6844     0.21925E+04 
  71492.9466     0.22228E+04 
  71525.2087     0.22534E+04 
  71557.4709     0.22843E+04 
  71589.7330     0.23155E+04 
  71621.9952     0.23471E+04 
  71654.2574     0.23790E+04 
  71686.5195     0.24112E+04 
  71718.7817     0.24437E+04 
  71751.0438     0.24765E+04 
  71783.3060     0.25097E+04 
  71815.5682     0.25431E+04 
  71847.8303     0.25769E+04 
  71880.0925     0.26111E+04 
  71912.3546     0.26456E+04 
  71944.6168     0.26804E+04 
  71976.8790     0.27155E+04 
  72009.1411     0.27510E+04 
  72041.4033     0.27867E+04 
  72073.6654     0.28229E+04 
  72105.9276     0.28594E+04 
  72138.1898     0.28962E+04 
  72170.4519     0.29333E+04 
  72202.7141     0.29708E+04 
  72234.9762     0.30086E+04 
  72267.2384     0.30468E+04 
  72299.5006     0.30853E+04 
  72331.7627     0.31241E+04 
  72364.0249     0.31633E+04 
  72396.2870     0.32029E+04 
  72428.5492     0.32428E+04 
  72460.8114     0.32830E+04 
  72493.0735     0.33236E+04 
  72525.3357     0.33645E+04 
  72557.5978     0.34058E+04 
  72589.8600     0.34474E+04 
