  32262.1600     0.16223E-06 
  32294.4222     0.16392E-06 
  32326.6843     0.16563E-06 
  32358.9465     0.16735E-06 
  32391.2086     0.16907E-06 
  32423.4708     0.17081E-06 
  32455.7330     0.17256E-06 
  32487.9951     0.17433E-06 
  32520.2573     0.17610E-06 
  32552.5194     0.17788E-06 
  32584.7816     0.17968E-06 
  32617.0438     0.18148E-06 
  32649.3059     0.18330E-06 
  32681.5681     0.18513E-06 
  32713.8302     0.18697E-06 
  32746.0924     0.18882E-06 
  32778.3546     0.19068E-06 
  32810.6167     0.19255E-06 
  32842.8789     0.19443E-06 
  32875.1410     0.19633E-06 
  32907.4032     0.19823E-06 
  32939.6654     0.20014E-06 
  32971.9275     0.20207E-06 
  33004.1897     0.20401E-06 
  33036.4518     0.20595E-06 
  33068.7140     0.20791E-06 
  33100.9762     0.20988E-06 
  33133.2383     0.21186E-06 
  33165.5005     0.21385E-06 
  33197.7626     0.21585E-06 
  33230.0248     0.21786E-06 
  33262.2870     0.21988E-06 
  33294.5491     0.22191E-06 
  33326.8113     0.22396E-06 
  33359.0734     0.22601E-06 
  33391.3356     0.22807E-06 
  33423.5978     0.23014E-06 
  33455.8599     0.23223E-06 
  33488.1221     0.23432E-06 
  33520.3842     0.23642E-06 
  33552.6464     0.23854E-06 
  33584.9086     0.24066E-06 
  33617.1707     0.24279E-06 
  33649.4329     0.24494E-06 
  33681.6950     0.24709E-06 
  33713.9572     0.24925E-06 
  33746.2194     0.25142E-06 
  33778.4815     0.25361E-06 
  33810.7437     0.25580E-06 
  33843.0058     0.25800E-06 
  33875.2680     0.26021E-06 
  33907.5302     0.26243E-06 
  33939.7923     0.26466E-06 
  33972.0545     0.26689E-06 
  34004.3166     0.26914E-06 
  34036.5788     0.27140E-06 
  34068.8410     0.27366E-06 
  34101.1031     0.27594E-06 
  34133.3653     0.27822E-06 
  34165.6274     0.28051E-06 
  34197.8896     0.28281E-06 
  34230.1518     0.28512E-06 
  34262.4139     0.28744E-06 
  34294.6761     0.28976E-06 
  34326.9382     0.29210E-06 
  34359.2004     0.29444E-06 
  34391.4626     0.29679E-06 
  34423.7247     0.29915E-06 
  34455.9869     0.30152E-06 
  34488.2490     0.30389E-06 
  34520.5112     0.30627E-06 
  34552.7734     0.30866E-06 
  34585.0355     0.31106E-06 
  34617.2977     0.31347E-06 
  34649.5598     0.31588E-06 
  34681.8220     0.31830E-06 
  34714.0842     0.32073E-06 
  34746.3463     0.32316E-06 
  34778.6085     0.32561E-06 
  34810.8706     0.32806E-06 
  34843.1328     0.33051E-06 
  34875.3950     0.33297E-06 
  34907.6571     0.33544E-06 
  34939.9193     0.33792E-06 
  34972.1814     0.34040E-06 
  35004.4436     0.34289E-06 
  35036.7058     0.34539E-06 
  35068.9679     0.34789E-06 
  35101.2301     0.35039E-06 
  35133.4922     0.35291E-06 
  35165.7544     0.35543E-06 
  35198.0166     0.35795E-06 
  35230.2787     0.36048E-06 
  35262.5409     0.36302E-06 
  35294.8030     0.36556E-06 
  35327.0652     0.36810E-06 
  35359.3274     0.37066E-06 
  35391.5895     0.37321E-06 
  35423.8517     0.37577E-06 
  35456.1138     0.37834E-06 
  35488.3760     0.38091E-06 
  35520.6382     0.38349E-06 
  35552.9003     0.38607E-06 
  35585.1625     0.38865E-06 
  35617.4246     0.39124E-06 
  35649.6868     0.39383E-06 
  35681.9490     0.39643E-06 
  35714.2111     0.39903E-06 
  35746.4733     0.40163E-06 
  35778.7354     0.40424E-06 
  35810.9976     0.40685E-06 
  35843.2598     0.40946E-06 
  35875.5219     0.41208E-06 
  35907.7841     0.41470E-06 
  35940.0462     0.41732E-06 
  35972.3084     0.41994E-06 
  36004.5706     0.42257E-06 
  36036.8327     0.42520E-06 
  36069.0949     0.42783E-06 
  36101.3570     0.43047E-06 
  36133.6192     0.43311E-06 
  36165.8814     0.43574E-06 
  36198.1435     0.43838E-06 
  36230.4057     0.44103E-06 
  36262.6678     0.44367E-06 
  36294.9300     0.44631E-06 
  36327.1922     0.44896E-06 
  36359.4543     0.45161E-06 
  36391.7165     0.45426E-06 
  36423.9786     0.45690E-06 
  36456.2408     0.45955E-06 
  36488.5030     0.46220E-06 
  36520.7651     0.46485E-06 
  36553.0273     0.46750E-06 
  36585.2894     0.47015E-06 
  36617.5516     0.47280E-06 
  36649.8138     0.47545E-06 
  36682.0759     0.47810E-06 
  36714.3381     0.48075E-06 
  36746.6002     0.48340E-06 
  36778.8624     0.48605E-06 
  36811.1246     0.48870E-06 
  36843.3867     0.49134E-06 
  36875.6489     0.49398E-06 
  36907.9110     0.49663E-06 
  36940.1732     0.49927E-06 
  36972.4354     0.50191E-06 
  37004.6975     0.50455E-06 
  37036.9597     0.50718E-06 
  37069.2218     0.50981E-06 
  37101.4840     0.51245E-06 
  37133.7462     0.51507E-06 
  37166.0083     0.51770E-06 
  37198.2705     0.52032E-06 
  37230.5326     0.52294E-06 
  37262.7948     0.52556E-06 
  37295.0570     0.52817E-06 
  37327.3191     0.53078E-06 
  37359.5813     0.53339E-06 
  37391.8434     0.53599E-06 
  37424.1056     0.53859E-06 
  37456.3678     0.54119E-06 
  37488.6299     0.54378E-06 
  37520.8921     0.54637E-06 
  37553.1542     0.54895E-06 
  37585.4164     0.55153E-06 
  37617.6786     0.55410E-06 
  37649.9407     0.55667E-06 
  37682.2029     0.55923E-06 
  37714.4650     0.56179E-06 
  37746.7272     0.56434E-06 
  37778.9894     0.56689E-06 
  37811.2515     0.56943E-06 
  37843.5137     0.57196E-06 
  37875.7758     0.57449E-06 
  37908.0380     0.57701E-06 
  37940.3002     0.57953E-06 
  37972.5623     0.58204E-06 
  38004.8245     0.58455E-06 
  38037.0866     0.58704E-06 
  38069.3488     0.58953E-06 
  38101.6110     0.59202E-06 
  38133.8731     0.59449E-06 
  38166.1353     0.59696E-06 
  38198.3974     0.59942E-06 
  38230.6596     0.60187E-06 
  38262.9218     0.60432E-06 
  38295.1839     0.60676E-06 
  38327.4461     0.60919E-06 
  38359.7082     0.61161E-06 
  38391.9704     0.61402E-06 
  38424.2326     0.61643E-06 
  38456.4947     0.61882E-06 
  38488.7569     0.62121E-06 
  38521.0190     0.62359E-06 
  38553.2812     0.62596E-06 
  38585.5434     0.62832E-06 
  38617.8055     0.63067E-06 
  38650.0677     0.63301E-06 
  38682.3298     0.63534E-06 
  38714.5920     0.63766E-06 
  38746.8542     0.63997E-06 
  38779.1163     0.64227E-06 
  38811.3785     0.64456E-06 
  38843.6406     0.64684E-06 
  38875.9028     0.64911E-06 
  38908.1650     0.65137E-06 
  38940.4271     0.65362E-06 
  38972.6893     0.65586E-06 
  39004.9514     0.65809E-06 
  39037.2136     0.66030E-06 
  39069.4758     0.66251E-06 
  39101.7379     0.66470E-06 
  39134.0001     0.66688E-06 
  39166.2622     0.66905E-06 
  39198.5244     0.67121E-06 
  39230.7866     0.67335E-06 
  39263.0487     0.67548E-06 
  39295.3109     0.67761E-06 
  39327.5730     0.67971E-06 
  39359.8352     0.68181E-06 
  39392.0974     0.68389E-06 
  39424.3595     0.68597E-06 
  39456.6217     0.68802E-06 
  39488.8838     0.69007E-06 
  39521.1460     0.69210E-06 
  39553.4082     0.69412E-06 
  39585.6703     0.69612E-06 
  39617.9325     0.69812E-06 
  39650.1946     0.70009E-06 
  39682.4568     0.70206E-06 
  39714.7190     0.70401E-06 
  39746.9811     0.70595E-06 
  39779.2433     0.70787E-06 
  39811.5054     0.70978E-06 
  39843.7676     0.71167E-06 
  39876.0298     0.71355E-06 
  39908.2919     0.71542E-06 
  39940.5541     0.71727E-06 
  39972.8162     0.71910E-06 
  40005.0784     0.72092E-06 
  40037.3406     0.72273E-06 
  40069.6027     0.72452E-06 
  40101.8649     0.72630E-06 
  40134.1270     0.72806E-06 
  40166.3892     0.72980E-06 
  40198.6514     0.73153E-06 
  40230.9135     0.73325E-06 
  40263.1757     0.73494E-06 
  40295.4378     0.73663E-06 
  40327.7000     0.73829E-06 
  40359.9622     0.73994E-06 
  40392.2243     0.74158E-06 
  40424.4865     0.74320E-06 
  40456.7486     0.74480E-06 
  40489.0108     0.74639E-06 
  40521.2730     0.74796E-06 
  40553.5351     0.74951E-06 
  40585.7973     0.75105E-06 
  40618.0594     0.75257E-06 
  40650.3216     0.75407E-06 
  40682.5838     0.75556E-06 
  40714.8459     0.75703E-06 
  40747.1081     0.75848E-06 
  40779.3702     0.75992E-06 
  40811.6324     0.76134E-06 
  40843.8946     0.76274E-06 
  40876.1567     0.76412E-06 
  40908.4189     0.76549E-06 
  40940.6810     0.76684E-06 
  40972.9432     0.76817E-06 
  41005.2054     0.76948E-06 
  41037.4675     0.77078E-06 
  41069.7297     0.77206E-06 
  41101.9918     0.77332E-06 
  41134.2540     0.77456E-06 
  41166.5162     0.77579E-06 
  41198.7783     0.77700E-06 
  41231.0405     0.77819E-06 
  41263.3026     0.77936E-06 
  41295.5648     0.78051E-06 
  41327.8270     0.78165E-06 
  41360.0891     0.78276E-06 
  41392.3513     0.78386E-06 
  41424.6134     0.78494E-06 
  41456.8756     0.78600E-06 
  41489.1378     0.78705E-06 
  41521.3999     0.78807E-06 
  41553.6621     0.78908E-06 
  41585.9242     0.79007E-06 
  41618.1864     0.79104E-06 
  41650.4486     0.79199E-06 
  41682.7107     0.79292E-06 
  41714.9729     0.79383E-06 
  41747.2350     0.79473E-06 
  41779.4972     0.79560E-06 
  41811.7594     0.79646E-06 
  41844.0215     0.79730E-06 
  41876.2837     0.79811E-06 
  41908.5458     0.79891E-06 
  41940.8080     0.79969E-06 
  41973.0702     0.80046E-06 
  42005.3323     0.80120E-06 
  42037.5945     0.80192E-06 
  42069.8566     0.80263E-06 
  42102.1188     0.80331E-06 
  42134.3810     0.80398E-06 
  42166.6431     0.80463E-06 
  42198.9053     0.80526E-06 
  42231.1674     0.80587E-06 
  42263.4296     0.80646E-06 
  42295.6918     0.80703E-06 
  42327.9539     0.80758E-06 
  42360.2161     0.80811E-06 
  42392.4782     0.80862E-06 
  42424.7404     0.80912E-06 
  42457.0026     0.80959E-06 
  42489.2647     0.81005E-06 
  42521.5269     0.81048E-06 
  42553.7890     0.81090E-06 
  42586.0512     0.81130E-06 
  42618.3134     0.81167E-06 
  42650.5755     0.81203E-06 
  42682.8377     0.81237E-06 
  42715.0998     0.81269E-06 
  42747.3620     0.81299E-06 
  42779.6242     0.81328E-06 
  42811.8863     0.81354E-06 
  42844.1485     0.81378E-06 
  42876.4106     0.81401E-06 
  42908.6728     0.81421E-06 
  42940.9350     0.81440E-06 
  42973.1971     0.81456E-06 
  43005.4593     0.81471E-06 
  43037.7214     0.81484E-06 
  43069.9836     0.81495E-06 
  43102.2458     0.81504E-06 
  43134.5079     0.81511E-06 
  43166.7701     0.81516E-06 
  43199.0322     0.81519E-06 
  43231.2944     0.81521E-06 
  43263.5566     0.81520E-06 
  43295.8187     0.81518E-06 
  43328.0809     0.81514E-06 
  43360.3430     0.81507E-06 
  43392.6052     0.81499E-06 
  43424.8674     0.81489E-06 
  43457.1295     0.81477E-06 
  43489.3917     0.81464E-06 
  43521.6538     0.81448E-06 
  43553.9160     0.81431E-06 
  43586.1782     0.81411E-06 
  43618.4403     0.81390E-06 
  43650.7025     0.81367E-06 
  43682.9646     0.81342E-06 
  43715.2268     0.81315E-06 
  43747.4890     0.81287E-06 
  43779.7511     0.81256E-06 
  43812.0133     0.81224E-06 
  43844.2754     0.81190E-06 
  43876.5376     0.81154E-06 
  43908.7998     0.81116E-06 
  43941.0619     0.81076E-06 
  43973.3241     0.81035E-06 
  44005.5862     0.80992E-06 
  44037.8484     0.80947E-06 
  44070.1106     0.80900E-06 
  44102.3727     0.80851E-06 
  44134.6349     0.80801E-06 
  44166.8970     0.80749E-06 
  44199.1592     0.80695E-06 
  44231.4214     0.80639E-06 
  44263.6835     0.80581E-06 
  44295.9457     0.80522E-06 
  44328.2078     0.80461E-06 
  44360.4700     0.80398E-06 
  44392.7322     0.80334E-06 
  44424.9943     0.80268E-06 
  44457.2565     0.80200E-06 
  44489.5186     0.80130E-06 
  44521.7808     0.80059E-06 
  44554.0430     0.79986E-06 
  44586.3051     0.79911E-06 
  44618.5673     0.79835E-06 
  44650.8294     0.79757E-06 
  44683.0916     0.79677E-06 
  44715.3538     0.79595E-06 
  44747.6159     0.79512E-06 
  44779.8781     0.79427E-06 
  44812.1402     0.79341E-06 
  44844.4024     0.79253E-06 
  44876.6646     0.79163E-06 
  44908.9267     0.79072E-06 
  44941.1889     0.78979E-06 
  44973.4510     0.78884E-06 
  45005.7132     0.78788E-06 
  45037.9754     0.78691E-06 
  45070.2375     0.78591E-06 
  45102.4997     0.78490E-06 
  45134.7618     0.78388E-06 
  45167.0240     0.78284E-06 
  45199.2862     0.78179E-06 
  45231.5483     0.78072E-06 
  45263.8105     0.77963E-06 
  45296.0726     0.77853E-06 
  45328.3348     0.77741E-06 
  45360.5970     0.77628E-06 
  45392.8591     0.77513E-06 
  45425.1213     0.77397E-06 
  45457.3834     0.77280E-06 
  45489.6456     0.77161E-06 
  45521.9078     0.77040E-06 
  45554.1699     0.76918E-06 
  45586.4321     0.76795E-06 
  45618.6942     0.76670E-06 
  45650.9564     0.76544E-06 
  45683.2186     0.76416E-06 
  45715.4807     0.76287E-06 
  45747.7429     0.76157E-06 
  45780.0050     0.76025E-06 
  45812.2672     0.75892E-06 
  45844.5294     0.75757E-06 
  45876.7915     0.75621E-06 
  45909.0537     0.75484E-06 
  45941.3158     0.75346E-06 
  45973.5780     0.75206E-06 
  46005.8402     0.75065E-06 
  46038.1023     0.74922E-06 
  46070.3645     0.74778E-06 
  46102.6266     0.74633E-06 
  46134.8888     0.74487E-06 
  46167.1510     0.74339E-06 
  46199.4131     0.74190E-06 
  46231.6753     0.74040E-06 
  46263.9374     0.73889E-06 
  46296.1996     0.73736E-06 
  46328.4618     0.73583E-06 
  46360.7239     0.73428E-06 
  46392.9861     0.73272E-06 
  46425.2482     0.73114E-06 
  46457.5104     0.72956E-06 
  46489.7726     0.72796E-06 
  46522.0347     0.72635E-06 
  46554.2969     0.72474E-06 
  46586.5590     0.72310E-06 
  46618.8212     0.72146E-06 
  46651.0834     0.71981E-06 
  46683.3455     0.71815E-06 
  46715.6077     0.71647E-06 
  46747.8698     0.71479E-06 
  46780.1320     0.71309E-06 
  46812.3942     0.71139E-06 
  46844.6563     0.70967E-06 
  46876.9185     0.70794E-06 
  46909.1806     0.70621E-06 
  46941.4428     0.70446E-06 
  46973.7050     0.70270E-06 
  47005.9671     0.70093E-06 
  47038.2293     0.69916E-06 
  47070.4914     0.69737E-06 
  47102.7536     0.69558E-06 
  47135.0158     0.69377E-06 
  47167.2779     0.69196E-06 
  47199.5401     0.69013E-06 
  47231.8022     0.68830E-06 
  47264.0644     0.68646E-06 
  47296.3266     0.68461E-06 
  47328.5887     0.68275E-06 
  47360.8509     0.68088E-06 
  47393.1130     0.67900E-06 
  47425.3752     0.67712E-06 
  47457.6374     0.67522E-06 
  47489.8995     0.67332E-06 
  47522.1617     0.67141E-06 
  47554.4238     0.66950E-06 
  47586.6860     0.66757E-06 
  47618.9482     0.66564E-06 
  47651.2103     0.66370E-06 
  47683.4725     0.66175E-06 
  47715.7346     0.65979E-06 
  47747.9968     0.65783E-06 
  47780.2590     0.65586E-06 
  47812.5211     0.65388E-06 
  47844.7833     0.65190E-06 
  47877.0454     0.64990E-06 
  47909.3076     0.64791E-06 
  47941.5698     0.64590E-06 
  47973.8319     0.64389E-06 
  48006.0941     0.64187E-06 
  48038.3562     0.63985E-06 
  48070.6184     0.63782E-06 
  48102.8806     0.63578E-06 
  48135.1427     0.63374E-06 
  48167.4049     0.63169E-06 
  48199.6670     0.62963E-06 
  48231.9292     0.62757E-06 
  48264.1914     0.62551E-06 
  48296.4535     0.62344E-06 
  48328.7157     0.62136E-06 
  48360.9778     0.61928E-06 
  48393.2400     0.61719E-06 
  48425.5022     0.61510E-06 
  48457.7643     0.61300E-06 
  48490.0265     0.61090E-06 
  48522.2886     0.60879E-06 
  48554.5508     0.60668E-06 
  48586.8130     0.60456E-06 
  48619.0751     0.60244E-06 
  48651.3373     0.60032E-06 
  48683.5994     0.59819E-06 
  48715.8616     0.59605E-06 
  48748.1238     0.59392E-06 
  48780.3859     0.59177E-06 
  48812.6481     0.58963E-06 
  48844.9102     0.58748E-06 
  48877.1724     0.58533E-06 
  48909.4346     0.58317E-06 
  48941.6967     0.58101E-06 
  48973.9589     0.57885E-06 
  49006.2210     0.57668E-06 
  49038.4832     0.57451E-06 
  49070.7454     0.57234E-06 
  49103.0075     0.57017E-06 
  49135.2697     0.56799E-06 
  49167.5318     0.56581E-06 
  49199.7940     0.56362E-06 
  49232.0562     0.56144E-06 
  49264.3183     0.55925E-06 
  49296.5805     0.55706E-06 
  49328.8426     0.55486E-06 
  49361.1048     0.55267E-06 
  49393.3670     0.55047E-06 
  49425.6291     0.54827E-06 
  49457.8913     0.54607E-06 
  49490.1534     0.54387E-06 
  49522.4156     0.54166E-06 
  49554.6778     0.53946E-06 
  49586.9399     0.53725E-06 
  49619.2021     0.53504E-06 
  49651.4642     0.53283E-06 
  49683.7264     0.53062E-06 
  49715.9886     0.52840E-06 
  49748.2507     0.52619E-06 
  49780.5129     0.52397E-06 
  49812.7750     0.52176E-06 
  49845.0372     0.51954E-06 
  49877.2994     0.51732E-06 
  49909.5615     0.51510E-06 
  49941.8237     0.51289E-06 
  49974.0858     0.51067E-06 
  50006.3480     0.50845E-06 
  50038.6102     0.50623E-06 
  50070.8723     0.50401E-06 
  50103.1345     0.50179E-06 
  50135.3966     0.49957E-06 
  50167.6588     0.49735E-06 
  50199.9210     0.49513E-06 
  50232.1831     0.49291E-06 
  50264.4453     0.49069E-06 
  50296.7074     0.48847E-06 
  50328.9696     0.48625E-06 
  50361.2318     0.48403E-06 
  50393.4939     0.48182E-06 
  50425.7561     0.47960E-06 
  50458.0182     0.47738E-06 
  50490.2804     0.47517E-06 
  50522.5426     0.47295E-06 
  50554.8047     0.47074E-06 
  50587.0669     0.46853E-06 
  50619.3290     0.46632E-06 
  50651.5912     0.46411E-06 
  50683.8534     0.46190E-06 
  50716.1155     0.45969E-06 
  50748.3777     0.45749E-06 
  50780.6398     0.45528E-06 
  50812.9020     0.45308E-06 
  50845.1642     0.45088E-06 
  50877.4263     0.44868E-06 
  50909.6885     0.44649E-06 
  50941.9506     0.44429E-06 
  50974.2128     0.44210E-06 
  51006.4750     0.43991E-06 
  51038.7371     0.43772E-06 
  51070.9993     0.43553E-06 
  51103.2614     0.43335E-06 
  51135.5236     0.43116E-06 
  51167.7858     0.42898E-06 
  51200.0479     0.42681E-06 
  51232.3101     0.42463E-06 
  51264.5722     0.42246E-06 
  51296.8344     0.42029E-06 
  51329.0966     0.41812E-06 
  51361.3587     0.41596E-06 
  51393.6209     0.41380E-06 
  51425.8830     0.41164E-06 
  51458.1452     0.40948E-06 
  51490.4074     0.40733E-06 
  51522.6695     0.40518E-06 
  51554.9317     0.40303E-06 
  51587.1938     0.40089E-06 
  51619.4560     0.39875E-06 
  51651.7182     0.39661E-06 
  51683.9803     0.39448E-06 
  51716.2425     0.39235E-06 
  51748.5046     0.39022E-06 
  51780.7668     0.38810E-06 
  51813.0290     0.38598E-06 
  51845.2911     0.38387E-06 
  51877.5533     0.38175E-06 
  51909.8154     0.37965E-06 
  51942.0776     0.37754E-06 
  51974.3398     0.37544E-06 
  52006.6019     0.37334E-06 
  52038.8641     0.37125E-06 
  52071.1262     0.36916E-06 
  52103.3884     0.36708E-06 
  52135.6506     0.36500E-06 
  52167.9127     0.36292E-06 
  52200.1749     0.36085E-06 
  52232.4370     0.35878E-06 
  52264.6992     0.35671E-06 
  52296.9614     0.35465E-06 
  52329.2235     0.35260E-06 
  52361.4857     0.35055E-06 
  52393.7478     0.34850E-06 
  52426.0100     0.34646E-06 
  52458.2722     0.34442E-06 
  52490.5343     0.34239E-06 
  52522.7965     0.34036E-06 
  52555.0586     0.33834E-06 
  52587.3208     0.33632E-06 
  52619.5830     0.33431E-06 
  52651.8451     0.33230E-06 
  52684.1073     0.33029E-06 
  52716.3694     0.32829E-06 
  52748.6316     0.32630E-06 
  52780.8938     0.32431E-06 
  52813.1559     0.32232E-06 
  52845.4181     0.32034E-06 
  52877.6802     0.31837E-06 
  52909.9424     0.31640E-06 
  52942.2046     0.31444E-06 
  52974.4667     0.31248E-06 
  53006.7289     0.31052E-06 
  53038.9910     0.30857E-06 
  53071.2532     0.30663E-06 
  53103.5154     0.30469E-06 
  53135.7775     0.30276E-06 
  53168.0397     0.30083E-06 
  53200.3018     0.29891E-06 
  53232.5640     0.29699E-06 
  53264.8262     0.29508E-06 
  53297.0883     0.29318E-06 
  53329.3505     0.29128E-06 
  53361.6126     0.28938E-06 
  53393.8748     0.28749E-06 
  53426.1370     0.28561E-06 
  53458.3991     0.28373E-06 
  53490.6613     0.28186E-06 
  53522.9234     0.27999E-06 
  53555.1856     0.27813E-06 
  53587.4478     0.27628E-06 
  53619.7099     0.27443E-06 
  53651.9721     0.27258E-06 
  53684.2342     0.27075E-06 
  53716.4964     0.26891E-06 
  53748.7586     0.26709E-06 
  53781.0207     0.26527E-06 
  53813.2829     0.26345E-06 
  53845.5450     0.26165E-06 
  53877.8072     0.25984E-06 
  53910.0694     0.25805E-06 
  53942.3315     0.25626E-06 
  53974.5937     0.25447E-06 
  54006.8558     0.25269E-06 
  54039.1180     0.25092E-06 
  54071.3802     0.24915E-06 
  54103.6423     0.24739E-06 
  54135.9045     0.24564E-06 
  54168.1666     0.24389E-06 
  54200.4288     0.24215E-06 
  54232.6910     0.24041E-06 
  54264.9531     0.23868E-06 
  54297.2153     0.23696E-06 
  54329.4774     0.23524E-06 
  54361.7396     0.23353E-06 
  54394.0018     0.23183E-06 
  54426.2639     0.23013E-06 
  54458.5261     0.22844E-06 
  54490.7882     0.22675E-06 
  54523.0504     0.22507E-06 
  54555.3126     0.22340E-06 
  54587.5747     0.22173E-06 
  54619.8369     0.22007E-06 
  54652.0990     0.21841E-06 
  54684.3612     0.21677E-06 
  54716.6234     0.21512E-06 
  54748.8855     0.21349E-06 
  54781.1477     0.21186E-06 
  54813.4098     0.21024E-06 
  54845.6720     0.20862E-06 
  54877.9342     0.20701E-06 
  54910.1963     0.20540E-06 
  54942.4585     0.20381E-06 
  54974.7206     0.20222E-06 
  55006.9828     0.20063E-06 
  55039.2450     0.19905E-06 
  55071.5071     0.19748E-06 
  55103.7693     0.19592E-06 
  55136.0314     0.19436E-06 
  55168.2936     0.19280E-06 
  55200.5558     0.19126E-06 
  55232.8179     0.18972E-06 
  55265.0801     0.18819E-06 
  55297.3422     0.18666E-06 
  55329.6044     0.18514E-06 
  55361.8666     0.18363E-06 
  55394.1287     0.18212E-06 
  55426.3909     0.18062E-06 
  55458.6530     0.17912E-06 
  55490.9152     0.17764E-06 
  55523.1774     0.17615E-06 
  55555.4395     0.17468E-06 
  55587.7017     0.17321E-06 
  55619.9638     0.17175E-06 
  55652.2260     0.17029E-06 
  55684.4882     0.16884E-06 
  55716.7503     0.16740E-06 
  55749.0125     0.16597E-06 
  55781.2746     0.16454E-06 
  55813.5368     0.16311E-06 
  55845.7990     0.16170E-06 
  55878.0611     0.16029E-06 
  55910.3233     0.15888E-06 
  55942.5854     0.15749E-06 
  55974.8476     0.15610E-06 
  56007.1098     0.15471E-06 
  56039.3719     0.15334E-06 
  56071.6341     0.15196E-06 
  56103.8962     0.15060E-06 
  56136.1584     0.14924E-06 
  56168.4206     0.14789E-06 
  56200.6827     0.14655E-06 
  56232.9449     0.14521E-06 
  56265.2070     0.14387E-06 
  56297.4692     0.14255E-06 
  56329.7314     0.14123E-06 
  56361.9935     0.13992E-06 
  56394.2557     0.13861E-06 
  56426.5178     0.13731E-06 
  56458.7800     0.13602E-06 
  56491.0422     0.13473E-06 
  56523.3043     0.13345E-06 
  56555.5665     0.13218E-06 
  56587.8286     0.13091E-06 
  56620.0908     0.12965E-06 
  56652.3530     0.12839E-06 
  56684.6151     0.12714E-06 
  56716.8773     0.12590E-06 
  56749.1394     0.12467E-06 
  56781.4016     0.12344E-06 
  56813.6638     0.12222E-06 
  56845.9259     0.12100E-06 
  56878.1881     0.11979E-06 
  56910.4502     0.11859E-06 
  56942.7124     0.11739E-06 
  56974.9746     0.11620E-06 
  57007.2367     0.11501E-06 
  57039.4989     0.11384E-06 
  57071.7610     0.11266E-06 
  57104.0232     0.11150E-06 
  57136.2854     0.11034E-06 
  57168.5475     0.10919E-06 
  57200.8097     0.10804E-06 
  57233.0718     0.10690E-06 
  57265.3340     0.10577E-06 
  57297.5962     0.10464E-06 
  57329.8583     0.10352E-06 
  57362.1205     0.10240E-06 
  57394.3826     0.10130E-06 
  57426.6448     0.10019E-06 
  57458.9070     0.99097E-07 
  57491.1691     0.98008E-07 
  57523.4313     0.96925E-07 
  57555.6934     0.95848E-07 
  57587.9556     0.94777E-07 
  57620.2178     0.93712E-07 
  57652.4799     0.92654E-07 
  57684.7421     0.91602E-07 
  57717.0042     0.90556E-07 
  57749.2664     0.89517E-07 
  57781.5286     0.88483E-07 
  57813.7907     0.87456E-07 
  57846.0529     0.86435E-07 
  57878.3150     0.85421E-07 
  57910.5772     0.84412E-07 
  57942.8394     0.83410E-07 
  57975.1015     0.82414E-07 
  58007.3637     0.81424E-07 
  58039.6258     0.80440E-07 
  58071.8880     0.79463E-07 
  58104.1502     0.78491E-07 
  58136.4123     0.77526E-07 
  58168.6745     0.76567E-07 
  58200.9366     0.75614E-07 
  58233.1988     0.74667E-07 
  58265.4610     0.73727E-07 
  58297.7231     0.72792E-07 
  58329.9853     0.71864E-07 
  58362.2474     0.70942E-07 
  58394.5096     0.70026E-07 
  58426.7718     0.69116E-07 
  58459.0339     0.68212E-07 
  58491.2961     0.67315E-07 
  58523.5582     0.66423E-07 
  58555.8204     0.65538E-07 
  58588.0826     0.64658E-07 
  58620.3447     0.63785E-07 
  58652.6069     0.62918E-07 
  58684.8690     0.62057E-07 
  58717.1312     0.61203E-07 
  58749.3934     0.60354E-07 
  58781.6555     0.59511E-07 
  58813.9177     0.58675E-07 
  58846.1798     0.57845E-07 
  58878.4420     0.57020E-07 
  58910.7042     0.56202E-07 
  58942.9663     0.55390E-07 
  58975.2285     0.54585E-07 
  59007.4906     0.53785E-07 
  59039.7528     0.52991E-07 
  59072.0150     0.52204E-07 
  59104.2771     0.51422E-07 
  59136.5393     0.50647E-07 
  59168.8014     0.49878E-07 
  59201.0636     0.49115E-07 
  59233.3258     0.48358E-07 
  59265.5879     0.47608E-07 
  59297.8501     0.46863E-07 
  59330.1122     0.46125E-07 
  59362.3744     0.45393E-07 
  59394.6366     0.44667E-07 
  59426.8987     0.43947E-07 
  59459.1609     0.43234E-07 
  59491.4230     0.42526E-07 
  59523.6852     0.41825E-07 
  59555.9474     0.41130E-07 
  59588.2095     0.40441E-07 
  59620.4717     0.39759E-07 
  59652.7338     0.39083E-07 
  59684.9960     0.38413E-07 
  59717.2582     0.37749E-07 
  59749.5203     0.37091E-07 
  59781.7825     0.36440E-07 
  59814.0446     0.35796E-07 
  59846.3068     0.35157E-07 
  59878.5690     0.34525E-07 
  59910.8311     0.33899E-07 
  59943.0933     0.33280E-07 
  59975.3554     0.32667E-07 
  60007.6176     0.32060E-07 
  60039.8798     0.31460E-07 
  60072.1419     0.30867E-07 
  60104.4041     0.30279E-07 
  60136.6662     0.29699E-07 
  60168.9284     0.29124E-07 
  60201.1906     0.28557E-07 
  60233.4527     0.27996E-07 
  60265.7149     0.27441E-07 
  60297.9770     0.26893E-07 
  60330.2392     0.26352E-07 
  60362.5014     0.25818E-07 
  60394.7635     0.25290E-07 
  60427.0257     0.24769E-07 
  60459.2878     0.24254E-07 
  60491.5500     0.23747E-07 
  60523.8122     0.23246E-07 
  60556.0743     0.22752E-07 
  60588.3365     0.22265E-07 
  60620.5986     0.21785E-07 
  60652.8608     0.21312E-07 
  60685.1230     0.20846E-07 
  60717.3851     0.20387E-07 
  60749.6473     0.19935E-07 
  60781.9094     0.19490E-07 
  60814.1716     0.19052E-07 
  60846.4338     0.18622E-07 
  60878.6959     0.18198E-07 
  60910.9581     0.17782E-07 
  60943.2202     0.17374E-07 
  60975.4824     0.16972E-07 
  61007.7446     0.16578E-07 
  61040.0067     0.16192E-07 
  61072.2689     0.15813E-07 
  61104.5310     0.15442E-07 
  61136.7932     0.15078E-07 
  61169.0554     0.14722E-07 
  61201.3175     0.14374E-07 
  61233.5797     0.14034E-07 
  61265.8418     0.13701E-07 
  61298.1040     0.13376E-07 
  61330.3662     0.13060E-07 
  61362.6283     0.12751E-07 
  61394.8905     0.12451E-07 
  61427.1526     0.12159E-07 
  61459.4148     0.11875E-07 
  61491.6770     0.11599E-07 
  61523.9391     0.11332E-07 
  61556.2013     0.11073E-07 
  61588.4634     0.10823E-07 
  61620.7256     0.10581E-07 
  61652.9878     0.10348E-07 
  61685.2499     0.10124E-07 
  61717.5121     0.99086E-08 
  61749.7742     0.97023E-08 
  61782.0364     0.95050E-08 
  61814.2986     0.93168E-08 
  61846.5607     0.91379E-08 
  61878.8229     0.89682E-08 
  61911.0850     0.88079E-08 
  61943.3472     0.86572E-08 
  61975.6094     0.85160E-08 
  62007.8715     0.83845E-08 
  62040.1337     0.82628E-08 
  62072.3958     0.81509E-08 
  62104.6580     0.80491E-08 
  62136.9202     0.79574E-08 
  62169.1823     0.78759E-08 
  62201.4445     0.78047E-08 
  62233.7066     0.77440E-08 
  62265.9688     0.76938E-08 
  62298.2310     0.76543E-08 
  62330.4931     0.76256E-08 
  62362.7553     0.76078E-08 
  62395.0174     0.76011E-08 
  62427.2796     0.76055E-08 
  62459.5418     0.76213E-08 
  62491.8039     0.76485E-08 
  62524.0661     0.76872E-08 
  62556.3282     0.77377E-08 
  62588.5904     0.78000E-08 
  62620.8526     0.78744E-08 
  62653.1147     0.79608E-08 
  62685.3769     0.80596E-08 
  62717.6390     0.81708E-08 
  62749.9012     0.82946E-08 
  62782.1634     0.84311E-08 
  62814.4255     0.85805E-08 
  62846.6877     0.87431E-08 
  62878.9498     0.89188E-08 
  62911.2120     0.91080E-08 
  62943.4742     0.93108E-08 
  62975.7363     0.95273E-08 
  63007.9985     0.97577E-08 
  63040.2606     0.10002E-07 
  63072.5228     0.10261E-07 
  63104.7850     0.10534E-07 
  63137.0471     0.10822E-07 
  63169.3093     0.11125E-07 
  63201.5714     0.11443E-07 
  63233.8336     0.11776E-07 
  63266.0958     0.12125E-07 
  63298.3579     0.12489E-07 
  63330.6201     0.12869E-07 
  63362.8822     0.13265E-07 
  63395.1444     0.13678E-07 
  63427.4066     0.14107E-07 
  63459.6687     0.14553E-07 
  63491.9309     0.15016E-07 
  63524.1930     0.15496E-07 
  63556.4552     0.15993E-07 
  63588.7174     0.16508E-07 
  63620.9795     0.17041E-07 
  63653.2417     0.17592E-07 
  63685.5038     0.18161E-07 
  63717.7660     0.18750E-07 
  63750.0282     0.19357E-07 
  63782.2903     0.19983E-07 
  63814.5525     0.20629E-07 
  63846.8146     0.21294E-07 
  63879.0768     0.21979E-07 
  63911.3390     0.22685E-07 
  63943.6011     0.23411E-07 
  63975.8633     0.24158E-07 
  64008.1254     0.24926E-07 
  64040.3876     0.25715E-07 
  64072.6498     0.26526E-07 
  64104.9119     0.27359E-07 
  64137.1741     0.28214E-07 
  64169.4362     0.29092E-07 
  64201.6984     0.29993E-07 
  64233.9606     0.30917E-07 
  64266.2227     0.31864E-07 
  64298.4849     0.32836E-07 
  64330.7470     0.33831E-07 
  64363.0092     0.34852E-07 
  64395.2714     0.35897E-07 
  64427.5335     0.36967E-07 
  64459.7957     0.38063E-07 
  64492.0578     0.39184E-07 
  64524.3200     0.40332E-07 
  64556.5822     0.41507E-07 
  64588.8443     0.42708E-07 
  64621.1065     0.43937E-07 
  64653.3686     0.45194E-07 
  64685.6308     0.46479E-07 
  64717.8930     0.47792E-07 
  64750.1551     0.49134E-07 
  64782.4173     0.50506E-07 
  64814.6794     0.51907E-07 
  64846.9416     0.53338E-07 
  64879.2038     0.54800E-07 
  64911.4659     0.56293E-07 
  64943.7281     0.57817E-07 
  64975.9902     0.59373E-07 
  65008.2524     0.60961E-07 
  65040.5146     0.62582E-07 
  65072.7767     0.64236E-07 
  65105.0389     0.65923E-07 
  65137.3010     0.67644E-07 
  65169.5632     0.69400E-07 
  65201.8254     0.71191E-07 
  65234.0875     0.73016E-07 
  65266.3497     0.74878E-07 
  65298.6118     0.76776E-07 
  65330.8740     0.78711E-07 
  65363.1362     0.80683E-07 
  65395.3983     0.82693E-07 
  65427.6605     0.84741E-07 
  65459.9226     0.86828E-07 
  65492.1848     0.88955E-07 
  65524.4470     0.91121E-07 
  65556.7091     0.93327E-07 
  65588.9713     0.95574E-07 
  65621.2334     0.97862E-07 
  65653.4956     0.10019E-06 
  65685.7578     0.10257E-06 
  65718.0199     0.10498E-06 
  65750.2821     0.10744E-06 
  65782.5442     0.10994E-06 
  65814.8064     0.11249E-06 
  65847.0686     0.11509E-06 
  65879.3307     0.11772E-06 
  65911.5929     0.12041E-06 
  65943.8550     0.12314E-06 
  65976.1172     0.12592E-06 
  66008.3794     0.12875E-06 
  66040.6415     0.13163E-06 
  66072.9037     0.13455E-06 
  66105.1658     0.13753E-06 
  66137.4280     0.14056E-06 
  66169.6902     0.14363E-06 
  66201.9523     0.14676E-06 
  66234.2145     0.14995E-06 
  66266.4766     0.15318E-06 
  66298.7388     0.15647E-06 
  66331.0010     0.15981E-06 
  66363.2631     0.16321E-06 
  66395.5253     0.16666E-06 
  66427.7874     0.17018E-06 
  66460.0496     0.17374E-06 
  66492.3118     0.17737E-06 
  66524.5739     0.18105E-06 
  66556.8361     0.18479E-06 
  66589.0982     0.18860E-06 
  66621.3604     0.19246E-06 
  66653.6226     0.19638E-06 
  66685.8847     0.20037E-06 
  66718.1469     0.20442E-06 
  66750.4090     0.20853E-06 
  66782.6712     0.21271E-06 
  66814.9334     0.21695E-06 
  66847.1955     0.22125E-06 
  66879.4577     0.22562E-06 
  66911.7198     0.23006E-06 
  66943.9820     0.23457E-06 
  66976.2442     0.23915E-06 
  67008.5063     0.24379E-06 
  67040.7685     0.24851E-06 
  67073.0306     0.25329E-06 
  67105.2928     0.25815E-06 
  67137.5550     0.26308E-06 
  67169.8171     0.26808E-06 
  67202.0793     0.27316E-06 
  67234.3414     0.27831E-06 
  67266.6036     0.28353E-06 
  67298.8658     0.28884E-06 
  67331.1279     0.29422E-06 
  67363.3901     0.29968E-06 
  67395.6522     0.30521E-06 
  67427.9144     0.31083E-06 
  67460.1766     0.31652E-06 
  67492.4387     0.32230E-06 
  67524.7009     0.32816E-06 
  67556.9630     0.33410E-06 
  67589.2252     0.34013E-06 
  67621.4874     0.34624E-06 
  67653.7495     0.35244E-06 
  67686.0117     0.35872E-06 
  67718.2738     0.36509E-06 
  67750.5360     0.37154E-06 
  67782.7982     0.37809E-06 
  67815.0603     0.38472E-06 
  67847.3225     0.39145E-06 
  67879.5846     0.39827E-06 
  67911.8468     0.40518E-06 
  67944.1090     0.41218E-06 
  67976.3711     0.41928E-06 
  68008.6333     0.42647E-06 
  68040.8954     0.43375E-06 
  68073.1576     0.44114E-06 
  68105.4198     0.44862E-06 
  68137.6819     0.45620E-06 
  68169.9441     0.46388E-06 
  68202.2062     0.47166E-06 
  68234.4684     0.47954E-06 
  68266.7306     0.48752E-06 
  68298.9927     0.49561E-06 
  68331.2549     0.50380E-06 
  68363.5170     0.51209E-06 
  68395.7792     0.52049E-06 
  68428.0414     0.52899E-06 
  68460.3035     0.53761E-06 
  68492.5657     0.54633E-06 
  68524.8278     0.55516E-06 
  68557.0900     0.56410E-06 
  68589.3522     0.57315E-06 
  68621.6143     0.58232E-06 
  68653.8765     0.59160E-06 
  68686.1386     0.60099E-06 
  68718.4008     0.61049E-06 
  68750.6630     0.62011E-06 
  68782.9251     0.62985E-06 
  68815.1873     0.63971E-06 
  68847.4494     0.64968E-06 
  68879.7116     0.65978E-06 
  68911.9738     0.66999E-06 
  68944.2359     0.68033E-06 
  68976.4981     0.69078E-06 
  69008.7602     0.70136E-06 
  69041.0224     0.71207E-06 
  69073.2846     0.72290E-06 
  69105.5467     0.73385E-06 
  69137.8089     0.74493E-06 
  69170.0710     0.75614E-06 
  69202.3332     0.76748E-06 
  69234.5954     0.77895E-06 
  69266.8575     0.79054E-06 
  69299.1197     0.80227E-06 
  69331.3818     0.81413E-06 
  69363.6440     0.82613E-06 
  69395.9062     0.83825E-06 
  69428.1683     0.85051E-06 
  69460.4305     0.86291E-06 
  69492.6926     0.87545E-06 
  69524.9548     0.88812E-06 
  69557.2170     0.90093E-06 
  69589.4791     0.91388E-06 
  69621.7413     0.92697E-06 
  69654.0034     0.94020E-06 
  69686.2656     0.95357E-06 
  69718.5278     0.96709E-06 
  69750.7899     0.98074E-06 
  69783.0521     0.99455E-06 
  69815.3142     0.10085E-05 
  69847.5764     0.10226E-05 
  69879.8386     0.10368E-05 
  69912.1007     0.10512E-05 
  69944.3629     0.10658E-05 
  69976.6250     0.10804E-05 
  70008.8872     0.10953E-05 
  70041.1494     0.11103E-05 
  70073.4115     0.11254E-05 
  70105.6737     0.11407E-05 
  70137.9358     0.11561E-05 
  70170.1980     0.11717E-05 
  70202.4602     0.11875E-05 
  70234.7223     0.12034E-05 
  70266.9845     0.12195E-05 
  70299.2466     0.12357E-05 
  70331.5088     0.12521E-05 
  70363.7710     0.12686E-05 
  70396.0331     0.12853E-05 
  70428.2953     0.13022E-05 
  70460.5574     0.13192E-05 
  70492.8196     0.13364E-05 
  70525.0818     0.13537E-05 
  70557.3439     0.13713E-05 
  70589.6061     0.13889E-05 
  70621.8682     0.14068E-05 
  70654.1304     0.14248E-05 
  70686.3926     0.14429E-05 
  70718.6547     0.14613E-05 
  70750.9169     0.14798E-05 
  70783.1790     0.14984E-05 
  70815.4412     0.15173E-05 
  70847.7034     0.15363E-05 
  70879.9655     0.15554E-05 
  70912.2277     0.15748E-05 
  70944.4898     0.15943E-05 
  70976.7520     0.16140E-05 
  71009.0142     0.16339E-05 
  71041.2763     0.16539E-05 
  71073.5385     0.16741E-05 
  71105.8006     0.16945E-05 
  71138.0628     0.17150E-05 
  71170.3250     0.17357E-05 
  71202.5871     0.17566E-05 
  71234.8493     0.17777E-05 
  71267.1114     0.17990E-05 
  71299.3736     0.18204E-05 
  71331.6358     0.18420E-05 
  71363.8979     0.18638E-05 
  71396.1601     0.18857E-05 
  71428.4222     0.19079E-05 
  71460.6844     0.19302E-05 
  71492.9466     0.19527E-05 
  71525.2087     0.19753E-05 
  71557.4709     0.19982E-05 
  71589.7330     0.20212E-05 
  71621.9952     0.20444E-05 
  71654.2574     0.20678E-05 
  71686.5195     0.20914E-05 
  71718.7817     0.21151E-05 
  71751.0438     0.21390E-05 
  71783.3060     0.21631E-05 
  71815.5682     0.21874E-05 
  71847.8303     0.22119E-05 
  71880.0925     0.22366E-05 
  71912.3546     0.22614E-05 
  71944.6168     0.22864E-05 
  71976.8790     0.23116E-05 
  72009.1411     0.23370E-05 
  72041.4033     0.23625E-05 
  72073.6654     0.23883E-05 
  72105.9276     0.24142E-05 
  72138.1898     0.24403E-05 
  72170.4519     0.24666E-05 
  72202.7141     0.24931E-05 
  72234.9762     0.25197E-05 
  72267.2384     0.25466E-05 
  72299.5006     0.25736E-05 
  72331.7627     0.26008E-05 
  72364.0249     0.26282E-05 
  72396.2870     0.26557E-05 
  72428.5492     0.26835E-05 
  72460.8114     0.27114E-05 
  72493.0735     0.27395E-05 
  72525.3357     0.27678E-05 
  72557.5978     0.27963E-05 
  72589.8600     0.28250E-05 
