  32262.1600     0.36691E+02 
  32294.4222     0.37155E+02 
  32326.6843     0.37623E+02 
  32358.9465     0.38095E+02 
  32391.2086     0.38572E+02 
  32423.4708     0.39052E+02 
  32455.7330     0.39536E+02 
  32487.9951     0.40024E+02 
  32520.2573     0.40517E+02 
  32552.5194     0.41013E+02 
  32584.7816     0.41513E+02 
  32617.0438     0.42018E+02 
  32649.3059     0.42526E+02 
  32681.5681     0.43039E+02 
  32713.8302     0.43555E+02 
  32746.0924     0.44076E+02 
  32778.3546     0.44600E+02 
  32810.6167     0.45129E+02 
  32842.8789     0.45662E+02 
  32875.1410     0.46199E+02 
  32907.4032     0.46739E+02 
  32939.6654     0.47284E+02 
  32971.9275     0.47833E+02 
  33004.1897     0.48386E+02 
  33036.4518     0.48943E+02 
  33068.7140     0.49503E+02 
  33100.9762     0.50068E+02 
  33133.2383     0.50637E+02 
  33165.5005     0.51210E+02 
  33197.7626     0.51787E+02 
  33230.0248     0.52367E+02 
  33262.2870     0.52952E+02 
  33294.5491     0.53541E+02 
  33326.8113     0.54134E+02 
  33359.0734     0.54730E+02 
  33391.3356     0.55331E+02 
  33423.5978     0.55935E+02 
  33455.8599     0.56543E+02 
  33488.1221     0.57155E+02 
  33520.3842     0.57771E+02 
  33552.6464     0.58391E+02 
  33584.9086     0.59015E+02 
  33617.1707     0.59642E+02 
  33649.4329     0.60274E+02 
  33681.6950     0.60909E+02 
  33713.9572     0.61548E+02 
  33746.2194     0.62190E+02 
  33778.4815     0.62837E+02 
  33810.7437     0.63487E+02 
  33843.0058     0.64141E+02 
  33875.2680     0.64798E+02 
  33907.5302     0.65459E+02 
  33939.7923     0.66124E+02 
  33972.0545     0.66792E+02 
  34004.3166     0.67464E+02 
  34036.5788     0.68140E+02 
  34068.8410     0.68819E+02 
  34101.1031     0.69502E+02 
  34133.3653     0.70188E+02 
  34165.6274     0.70877E+02 
  34197.8896     0.71570E+02 
  34230.1518     0.72266E+02 
  34262.4139     0.72966E+02 
  34294.6761     0.73669E+02 
  34326.9382     0.74376E+02 
  34359.2004     0.75086E+02 
  34391.4626     0.75799E+02 
  34423.7247     0.76515E+02 
  34455.9869     0.77234E+02 
  34488.2490     0.77957E+02 
  34520.5112     0.78683E+02 
  34552.7734     0.79412E+02 
  34585.0355     0.80144E+02 
  34617.2977     0.80879E+02 
  34649.5598     0.81617E+02 
  34681.8220     0.82358E+02 
  34714.0842     0.83102E+02 
  34746.3463     0.83849E+02 
  34778.6085     0.84598E+02 
  34810.8706     0.85351E+02 
  34843.1328     0.86106E+02 
  34875.3950     0.86864E+02 
  34907.6571     0.87625E+02 
  34939.9193     0.88388E+02 
  34972.1814     0.89154E+02 
  35004.4436     0.89923E+02 
  35036.7058     0.90694E+02 
  35068.9679     0.91468E+02 
  35101.2301     0.92244E+02 
  35133.4922     0.93023E+02 
  35165.7544     0.93804E+02 
  35198.0166     0.94587E+02 
  35230.2787     0.95373E+02 
  35262.5409     0.96161E+02 
  35294.8030     0.96951E+02 
  35327.0652     0.97743E+02 
  35359.3274     0.98538E+02 
  35391.5895     0.99334E+02 
  35423.8517     0.10013E+03 
  35456.1138     0.10093E+03 
  35488.3760     0.10174E+03 
  35520.6382     0.10254E+03 
  35552.9003     0.10335E+03 
  35585.1625     0.10415E+03 
  35617.4246     0.10496E+03 
  35649.6868     0.10577E+03 
  35681.9490     0.10659E+03 
  35714.2111     0.10740E+03 
  35746.4733     0.10822E+03 
  35778.7354     0.10903E+03 
  35810.9976     0.10985E+03 
  35843.2598     0.11067E+03 
  35875.5219     0.11149E+03 
  35907.7841     0.11232E+03 
  35940.0462     0.11314E+03 
  35972.3084     0.11397E+03 
  36004.5706     0.11479E+03 
  36036.8327     0.11562E+03 
  36069.0949     0.11645E+03 
  36101.3570     0.11728E+03 
  36133.6192     0.11811E+03 
  36165.8814     0.11894E+03 
  36198.1435     0.11977E+03 
  36230.4057     0.12060E+03 
  36262.6678     0.12143E+03 
  36294.9300     0.12227E+03 
  36327.1922     0.12310E+03 
  36359.4543     0.12393E+03 
  36391.7165     0.12477E+03 
  36423.9786     0.12560E+03 
  36456.2408     0.12644E+03 
  36488.5030     0.12727E+03 
  36520.7651     0.12811E+03 
  36553.0273     0.12895E+03 
  36585.2894     0.12978E+03 
  36617.5516     0.13062E+03 
  36649.8138     0.13145E+03 
  36682.0759     0.13229E+03 
  36714.3381     0.13312E+03 
  36746.6002     0.13396E+03 
  36778.8624     0.13479E+03 
  36811.1246     0.13563E+03 
  36843.3867     0.13646E+03 
  36875.6489     0.13730E+03 
  36907.9110     0.13813E+03 
  36940.1732     0.13896E+03 
  36972.4354     0.13979E+03 
  37004.6975     0.14062E+03 
  37036.9597     0.14145E+03 
  37069.2218     0.14228E+03 
  37101.4840     0.14311E+03 
  37133.7462     0.14394E+03 
  37166.0083     0.14476E+03 
  37198.2705     0.14559E+03 
  37230.5326     0.14641E+03 
  37262.7948     0.14723E+03 
  37295.0570     0.14806E+03 
  37327.3191     0.14887E+03 
  37359.5813     0.14969E+03 
  37391.8434     0.15051E+03 
  37424.1056     0.15133E+03 
  37456.3678     0.15214E+03 
  37488.6299     0.15295E+03 
  37520.8921     0.15376E+03 
  37553.1542     0.15457E+03 
  37585.4164     0.15538E+03 
  37617.6786     0.15618E+03 
  37649.9407     0.15698E+03 
  37682.2029     0.15778E+03 
  37714.4650     0.15858E+03 
  37746.7272     0.15938E+03 
  37778.9894     0.16017E+03 
  37811.2515     0.16096E+03 
  37843.5137     0.16175E+03 
  37875.7758     0.16254E+03 
  37908.0380     0.16332E+03 
  37940.3002     0.16410E+03 
  37972.5623     0.16488E+03 
  38004.8245     0.16566E+03 
  38037.0866     0.16643E+03 
  38069.3488     0.16720E+03 
  38101.6110     0.16797E+03 
  38133.8731     0.16873E+03 
  38166.1353     0.16949E+03 
  38198.3974     0.17025E+03 
  38230.6596     0.17101E+03 
  38262.9218     0.17176E+03 
  38295.1839     0.17251E+03 
  38327.4461     0.17326E+03 
  38359.7082     0.17400E+03 
  38391.9704     0.17474E+03 
  38424.2326     0.17547E+03 
  38456.4947     0.17620E+03 
  38488.7569     0.17693E+03 
  38521.0190     0.17766E+03 
  38553.2812     0.17838E+03 
  38585.5434     0.17910E+03 
  38617.8055     0.17981E+03 
  38650.0677     0.18052E+03 
  38682.3298     0.18122E+03 
  38714.5920     0.18193E+03 
  38746.8542     0.18262E+03 
  38779.1163     0.18332E+03 
  38811.3785     0.18401E+03 
  38843.6406     0.18469E+03 
  38875.9028     0.18537E+03 
  38908.1650     0.18605E+03 
  38940.4271     0.18672E+03 
  38972.6893     0.18739E+03 
  39004.9514     0.18805E+03 
  39037.2136     0.18871E+03 
  39069.4758     0.18937E+03 
  39101.7379     0.19001E+03 
  39134.0001     0.19066E+03 
  39166.2622     0.19130E+03 
  39198.5244     0.19194E+03 
  39230.7866     0.19257E+03 
  39263.0487     0.19319E+03 
  39295.3109     0.19381E+03 
  39327.5730     0.19443E+03 
  39359.8352     0.19504E+03 
  39392.0974     0.19564E+03 
  39424.3595     0.19625E+03 
  39456.6217     0.19684E+03 
  39488.8838     0.19743E+03 
  39521.1460     0.19802E+03 
  39553.4082     0.19860E+03 
  39585.6703     0.19917E+03 
  39617.9325     0.19974E+03 
  39650.1946     0.20030E+03 
  39682.4568     0.20086E+03 
  39714.7190     0.20141E+03 
  39746.9811     0.20196E+03 
  39779.2433     0.20250E+03 
  39811.5054     0.20304E+03 
  39843.7676     0.20357E+03 
  39876.0298     0.20409E+03 
  39908.2919     0.20461E+03 
  39940.5541     0.20513E+03 
  39972.8162     0.20563E+03 
  40005.0784     0.20614E+03 
  40037.3406     0.20663E+03 
  40069.6027     0.20712E+03 
  40101.8649     0.20760E+03 
  40134.1270     0.20808E+03 
  40166.3892     0.20855E+03 
  40198.6514     0.20902E+03 
  40230.9135     0.20948E+03 
  40263.1757     0.20993E+03 
  40295.4378     0.21038E+03 
  40327.7000     0.21082E+03 
  40359.9622     0.21126E+03 
  40392.2243     0.21169E+03 
  40424.4865     0.21211E+03 
  40456.7486     0.21253E+03 
  40489.0108     0.21294E+03 
  40521.2730     0.21334E+03 
  40553.5351     0.21374E+03 
  40585.7973     0.21413E+03 
  40618.0594     0.21451E+03 
  40650.3216     0.21489E+03 
  40682.5838     0.21526E+03 
  40714.8459     0.21563E+03 
  40747.1081     0.21599E+03 
  40779.3702     0.21634E+03 
  40811.6324     0.21668E+03 
  40843.8946     0.21702E+03 
  40876.1567     0.21736E+03 
  40908.4189     0.21768E+03 
  40940.6810     0.21800E+03 
  40972.9432     0.21832E+03 
  41005.2054     0.21862E+03 
  41037.4675     0.21892E+03 
  41069.7297     0.21921E+03 
  41101.9918     0.21950E+03 
  41134.2540     0.21978E+03 
  41166.5162     0.22005E+03 
  41198.7783     0.22032E+03 
  41231.0405     0.22058E+03 
  41263.3026     0.22083E+03 
  41295.5648     0.22108E+03 
  41327.8270     0.22131E+03 
  41360.0891     0.22155E+03 
  41392.3513     0.22177E+03 
  41424.6134     0.22199E+03 
  41456.8756     0.22220E+03 
  41489.1378     0.22241E+03 
  41521.3999     0.22261E+03 
  41553.6621     0.22280E+03 
  41585.9242     0.22298E+03 
  41618.1864     0.22316E+03 
  41650.4486     0.22333E+03 
  41682.7107     0.22350E+03 
  41714.9729     0.22365E+03 
  41747.2350     0.22380E+03 
  41779.4972     0.22395E+03 
  41811.7594     0.22408E+03 
  41844.0215     0.22421E+03 
  41876.2837     0.22434E+03 
  41908.5458     0.22445E+03 
  41940.8080     0.22456E+03 
  41973.0702     0.22466E+03 
  42005.3323     0.22476E+03 
  42037.5945     0.22485E+03 
  42069.8566     0.22493E+03 
  42102.1188     0.22501E+03 
  42134.3810     0.22508E+03 
  42166.6431     0.22514E+03 
  42198.9053     0.22519E+03 
  42231.1674     0.22524E+03 
  42263.4296     0.22528E+03 
  42295.6918     0.22532E+03 
  42327.9539     0.22534E+03 
  42360.2161     0.22537E+03 
  42392.4782     0.22538E+03 
  42424.7404     0.22539E+03 
  42457.0026     0.22539E+03 
  42489.2647     0.22538E+03 
  42521.5269     0.22537E+03 
  42553.7890     0.22535E+03 
  42586.0512     0.22533E+03 
  42618.3134     0.22529E+03 
  42650.5755     0.22525E+03 
  42682.8377     0.22521E+03 
  42715.0998     0.22516E+03 
  42747.3620     0.22510E+03 
  42779.6242     0.22503E+03 
  42811.8863     0.22496E+03 
  42844.1485     0.22488E+03 
  42876.4106     0.22480E+03 
  42908.6728     0.22471E+03 
  42940.9350     0.22461E+03 
  42973.1971     0.22450E+03 
  43005.4593     0.22439E+03 
  43037.7214     0.22428E+03 
  43069.9836     0.22415E+03 
  43102.2458     0.22402E+03 
  43134.5079     0.22389E+03 
  43166.7701     0.22374E+03 
  43199.0322     0.22359E+03 
  43231.2944     0.22344E+03 
  43263.5566     0.22328E+03 
  43295.8187     0.22311E+03 
  43328.0809     0.22294E+03 
  43360.3430     0.22276E+03 
  43392.6052     0.22257E+03 
  43424.8674     0.22238E+03 
  43457.1295     0.22218E+03 
  43489.3917     0.22198E+03 
  43521.6538     0.22177E+03 
  43553.9160     0.22155E+03 
  43586.1782     0.22133E+03 
  43618.4403     0.22110E+03 
  43650.7025     0.22087E+03 
  43682.9646     0.22063E+03 
  43715.2268     0.22038E+03 
  43747.4890     0.22013E+03 
  43779.7511     0.21987E+03 
  43812.0133     0.21961E+03 
  43844.2754     0.21934E+03 
  43876.5376     0.21907E+03 
  43908.7998     0.21879E+03 
  43941.0619     0.21850E+03 
  43973.3241     0.21821E+03 
  44005.5862     0.21791E+03 
  44037.8484     0.21761E+03 
  44070.1106     0.21730E+03 
  44102.3727     0.21699E+03 
  44134.6349     0.21667E+03 
  44166.8970     0.21635E+03 
  44199.1592     0.21602E+03 
  44231.4214     0.21568E+03 
  44263.6835     0.21534E+03 
  44295.9457     0.21500E+03 
  44328.2078     0.21465E+03 
  44360.4700     0.21429E+03 
  44392.7322     0.21393E+03 
  44424.9943     0.21356E+03 
  44457.2565     0.21319E+03 
  44489.5186     0.21282E+03 
  44521.7808     0.21244E+03 
  44554.0430     0.21205E+03 
  44586.3051     0.21166E+03 
  44618.5673     0.21127E+03 
  44650.8294     0.21087E+03 
  44683.0916     0.21046E+03 
  44715.3538     0.21005E+03 
  44747.6159     0.20964E+03 
  44779.8781     0.20922E+03 
  44812.1402     0.20879E+03 
  44844.4024     0.20837E+03 
  44876.6646     0.20793E+03 
  44908.9267     0.20750E+03 
  44941.1889     0.20706E+03 
  44973.4510     0.20661E+03 
  45005.7132     0.20616E+03 
  45037.9754     0.20570E+03 
  45070.2375     0.20525E+03 
  45102.4997     0.20478E+03 
  45134.7618     0.20432E+03 
  45167.0240     0.20384E+03 
  45199.2862     0.20337E+03 
  45231.5483     0.20289E+03 
  45263.8105     0.20241E+03 
  45296.0726     0.20192E+03 
  45328.3348     0.20143E+03 
  45360.5970     0.20093E+03 
  45392.8591     0.20043E+03 
  45425.1213     0.19993E+03 
  45457.3834     0.19942E+03 
  45489.6456     0.19891E+03 
  45521.9078     0.19840E+03 
  45554.1699     0.19788E+03 
  45586.4321     0.19736E+03 
  45618.6942     0.19683E+03 
  45650.9564     0.19630E+03 
  45683.2186     0.19577E+03 
  45715.4807     0.19524E+03 
  45747.7429     0.19470E+03 
  45780.0050     0.19416E+03 
  45812.2672     0.19361E+03 
  45844.5294     0.19306E+03 
  45876.7915     0.19251E+03 
  45909.0537     0.19196E+03 
  45941.3158     0.19140E+03 
  45973.5780     0.19084E+03 
  46005.8402     0.19028E+03 
  46038.1023     0.18971E+03 
  46070.3645     0.18914E+03 
  46102.6266     0.18857E+03 
  46134.8888     0.18799E+03 
  46167.1510     0.18741E+03 
  46199.4131     0.18683E+03 
  46231.6753     0.18625E+03 
  46263.9374     0.18566E+03 
  46296.1996     0.18507E+03 
  46328.4618     0.18448E+03 
  46360.7239     0.18389E+03 
  46392.9861     0.18329E+03 
  46425.2482     0.18269E+03 
  46457.5104     0.18209E+03 
  46489.7726     0.18149E+03 
  46522.0347     0.18088E+03 
  46554.2969     0.18027E+03 
  46586.5590     0.17966E+03 
  46618.8212     0.17905E+03 
  46651.0834     0.17843E+03 
  46683.3455     0.17782E+03 
  46715.6077     0.17720E+03 
  46747.8698     0.17658E+03 
  46780.1320     0.17595E+03 
  46812.3942     0.17533E+03 
  46844.6563     0.17470E+03 
  46876.9185     0.17407E+03 
  46909.1806     0.17344E+03 
  46941.4428     0.17281E+03 
  46973.7050     0.17218E+03 
  47005.9671     0.17154E+03 
  47038.2293     0.17090E+03 
  47070.4914     0.17026E+03 
  47102.7536     0.16962E+03 
  47135.0158     0.16898E+03 
  47167.2779     0.16834E+03 
  47199.5401     0.16769E+03 
  47231.8022     0.16705E+03 
  47264.0644     0.16640E+03 
  47296.3266     0.16575E+03 
  47328.5887     0.16510E+03 
  47360.8509     0.16445E+03 
  47393.1130     0.16380E+03 
  47425.3752     0.16315E+03 
  47457.6374     0.16249E+03 
  47489.8995     0.16183E+03 
  47522.1617     0.16118E+03 
  47554.4238     0.16052E+03 
  47586.6860     0.15986E+03 
  47618.9482     0.15920E+03 
  47651.2103     0.15854E+03 
  47683.4725     0.15788E+03 
  47715.7346     0.15722E+03 
  47747.9968     0.15656E+03 
  47780.2590     0.15589E+03 
  47812.5211     0.15523E+03 
  47844.7833     0.15456E+03 
  47877.0454     0.15390E+03 
  47909.3076     0.15323E+03 
  47941.5698     0.15256E+03 
  47973.8319     0.15190E+03 
  48006.0941     0.15123E+03 
  48038.3562     0.15056E+03 
  48070.6184     0.14989E+03 
  48102.8806     0.14922E+03 
  48135.1427     0.14856E+03 
  48167.4049     0.14789E+03 
  48199.6670     0.14722E+03 
  48231.9292     0.14655E+03 
  48264.1914     0.14588E+03 
  48296.4535     0.14521E+03 
  48328.7157     0.14454E+03 
  48360.9778     0.14387E+03 
  48393.2400     0.14320E+03 
  48425.5022     0.14253E+03 
  48457.7643     0.14186E+03 
  48490.0265     0.14118E+03 
  48522.2886     0.14051E+03 
  48554.5508     0.13984E+03 
  48586.8130     0.13917E+03 
  48619.0751     0.13850E+03 
  48651.3373     0.13784E+03 
  48683.5994     0.13717E+03 
  48715.8616     0.13650E+03 
  48748.1238     0.13583E+03 
  48780.3859     0.13516E+03 
  48812.6481     0.13449E+03 
  48844.9102     0.13382E+03 
  48877.1724     0.13316E+03 
  48909.4346     0.13249E+03 
  48941.6967     0.13182E+03 
  48973.9589     0.13116E+03 
  49006.2210     0.13049E+03 
  49038.4832     0.12983E+03 
  49070.7454     0.12916E+03 
  49103.0075     0.12850E+03 
  49135.2697     0.12784E+03 
  49167.5318     0.12718E+03 
  49199.7940     0.12652E+03 
  49232.0562     0.12585E+03 
  49264.3183     0.12520E+03 
  49296.5805     0.12454E+03 
  49328.8426     0.12388E+03 
  49361.1048     0.12322E+03 
  49393.3670     0.12256E+03 
  49425.6291     0.12191E+03 
  49457.8913     0.12125E+03 
  49490.1534     0.12060E+03 
  49522.4156     0.11995E+03 
  49554.6778     0.11930E+03 
  49586.9399     0.11864E+03 
  49619.2021     0.11799E+03 
  49651.4642     0.11735E+03 
  49683.7264     0.11670E+03 
  49715.9886     0.11605E+03 
  49748.2507     0.11541E+03 
  49780.5129     0.11476E+03 
  49812.7750     0.11412E+03 
  49845.0372     0.11348E+03 
  49877.2994     0.11284E+03 
  49909.5615     0.11220E+03 
  49941.8237     0.11156E+03 
  49974.0858     0.11092E+03 
  50006.3480     0.11029E+03 
  50038.6102     0.10965E+03 
  50070.8723     0.10902E+03 
  50103.1345     0.10839E+03 
  50135.3966     0.10776E+03 
  50167.6588     0.10713E+03 
  50199.9210     0.10650E+03 
  50232.1831     0.10588E+03 
  50264.4453     0.10525E+03 
  50296.7074     0.10463E+03 
  50328.9696     0.10401E+03 
  50361.2318     0.10339E+03 
  50393.4939     0.10277E+03 
  50425.7561     0.10215E+03 
  50458.0182     0.10154E+03 
  50490.2804     0.10092E+03 
  50522.5426     0.10031E+03 
  50554.8047     0.99701E+02 
  50587.0669     0.99092E+02 
  50619.3290     0.98485E+02 
  50651.5912     0.97880E+02 
  50683.8534     0.97276E+02 
  50716.1155     0.96674E+02 
  50748.3777     0.96073E+02 
  50780.6398     0.95474E+02 
  50812.9020     0.94877E+02 
  50845.1642     0.94282E+02 
  50877.4263     0.93688E+02 
  50909.6885     0.93097E+02 
  50941.9506     0.92507E+02 
  50974.2128     0.91919E+02 
  51006.4750     0.91332E+02 
  51038.7371     0.90748E+02 
  51070.9993     0.90165E+02 
  51103.2614     0.89584E+02 
  51135.5236     0.89005E+02 
  51167.7858     0.88428E+02 
  51200.0479     0.87853E+02 
  51232.3101     0.87279E+02 
  51264.5722     0.86708E+02 
  51296.8344     0.86138E+02 
  51329.0966     0.85571E+02 
  51361.3587     0.85005E+02 
  51393.6209     0.84442E+02 
  51425.8830     0.83880E+02 
  51458.1452     0.83320E+02 
  51490.4074     0.82762E+02 
  51522.6695     0.82206E+02 
  51554.9317     0.81653E+02 
  51587.1938     0.81101E+02 
  51619.4560     0.80551E+02 
  51651.7182     0.80003E+02 
  51683.9803     0.79457E+02 
  51716.2425     0.78914E+02 
  51748.5046     0.78372E+02 
  51780.7668     0.77832E+02 
  51813.0290     0.77295E+02 
  51845.2911     0.76759E+02 
  51877.5533     0.76226E+02 
  51909.8154     0.75694E+02 
  51942.0776     0.75165E+02 
  51974.3398     0.74638E+02 
  52006.6019     0.74113E+02 
  52038.8641     0.73590E+02 
  52071.1262     0.73069E+02 
  52103.3884     0.72550E+02 
  52135.6506     0.72034E+02 
  52167.9127     0.71519E+02 
  52200.1749     0.71007E+02 
  52232.4370     0.70496E+02 
  52264.6992     0.69988E+02 
  52296.9614     0.69482E+02 
  52329.2235     0.68978E+02 
  52361.4857     0.68477E+02 
  52393.7478     0.67977E+02 
  52426.0100     0.67480E+02 
  52458.2722     0.66985E+02 
  52490.5343     0.66491E+02 
  52522.7965     0.66001E+02 
  52555.0586     0.65512E+02 
  52587.3208     0.65025E+02 
  52619.5830     0.64541E+02 
  52651.8451     0.64059E+02 
  52684.1073     0.63579E+02 
  52716.3694     0.63101E+02 
  52748.6316     0.62625E+02 
  52780.8938     0.62152E+02 
  52813.1559     0.61680E+02 
  52845.4181     0.61211E+02 
  52877.6802     0.60744E+02 
  52909.9424     0.60280E+02 
  52942.2046     0.59817E+02 
  52974.4667     0.59357E+02 
  53006.7289     0.58899E+02 
  53038.9910     0.58443E+02 
  53071.2532     0.57989E+02 
  53103.5154     0.57537E+02 
  53135.7775     0.57088E+02 
  53168.0397     0.56641E+02 
  53200.3018     0.56196E+02 
  53232.5640     0.55753E+02 
  53264.8262     0.55312E+02 
  53297.0883     0.54874E+02 
  53329.3505     0.54438E+02 
  53361.6126     0.54004E+02 
  53393.8748     0.53572E+02 
  53426.1370     0.53142E+02 
  53458.3991     0.52715E+02 
  53490.6613     0.52289E+02 
  53522.9234     0.51866E+02 
  53555.1856     0.51445E+02 
  53587.4478     0.51026E+02 
  53619.7099     0.50610E+02 
  53651.9721     0.50196E+02 
  53684.2342     0.49783E+02 
  53716.4964     0.49373E+02 
  53748.7586     0.48965E+02 
  53781.0207     0.48560E+02 
  53813.2829     0.48156E+02 
  53845.5450     0.47755E+02 
  53877.8072     0.47355E+02 
  53910.0694     0.46958E+02 
  53942.3315     0.46563E+02 
  53974.5937     0.46171E+02 
  54006.8558     0.45780E+02 
  54039.1180     0.45391E+02 
  54071.3802     0.45005E+02 
  54103.6423     0.44621E+02 
  54135.9045     0.44239E+02 
  54168.1666     0.43859E+02 
  54200.4288     0.43481E+02 
  54232.6910     0.43105E+02 
  54264.9531     0.42732E+02 
  54297.2153     0.42360E+02 
  54329.4774     0.41991E+02 
  54361.7396     0.41623E+02 
  54394.0018     0.41258E+02 
  54426.2639     0.40895E+02 
  54458.5261     0.40534E+02 
  54490.7882     0.40175E+02 
  54523.0504     0.39818E+02 
  54555.3126     0.39464E+02 
  54587.5747     0.39111E+02 
  54619.8369     0.38760E+02 
  54652.0990     0.38412E+02 
  54684.3612     0.38065E+02 
  54716.6234     0.37721E+02 
  54748.8855     0.37379E+02 
  54781.1477     0.37038E+02 
  54813.4098     0.36700E+02 
  54845.6720     0.36364E+02 
  54877.9342     0.36029E+02 
  54910.1963     0.35697E+02 
  54942.4585     0.35367E+02 
  54974.7206     0.35039E+02 
  55006.9828     0.34712E+02 
  55039.2450     0.34388E+02 
  55071.5071     0.34066E+02 
  55103.7693     0.33746E+02 
  55136.0314     0.33427E+02 
  55168.2936     0.33111E+02 
  55200.5558     0.32797E+02 
  55232.8179     0.32484E+02 
  55265.0801     0.32174E+02 
  55297.3422     0.31865E+02 
  55329.6044     0.31559E+02 
  55361.8666     0.31254E+02 
  55394.1287     0.30952E+02 
  55426.3909     0.30651E+02 
  55458.6530     0.30352E+02 
  55490.9152     0.30055E+02 
  55523.1774     0.29760E+02 
  55555.4395     0.29467E+02 
  55587.7017     0.29176E+02 
  55619.9638     0.28887E+02 
  55652.2260     0.28599E+02 
  55684.4882     0.28314E+02 
  55716.7503     0.28030E+02 
  55749.0125     0.27748E+02 
  55781.2746     0.27468E+02 
  55813.5368     0.27190E+02 
  55845.7990     0.26914E+02 
  55878.0611     0.26639E+02 
  55910.3233     0.26366E+02 
  55942.5854     0.26096E+02 
  55974.8476     0.25827E+02 
  56007.1098     0.25559E+02 
  56039.3719     0.25294E+02 
  56071.6341     0.25030E+02 
  56103.8962     0.24769E+02 
  56136.1584     0.24508E+02 
  56168.4206     0.24250E+02 
  56200.6827     0.23994E+02 
  56232.9449     0.23739E+02 
  56265.2070     0.23486E+02 
  56297.4692     0.23235E+02 
  56329.7314     0.22985E+02 
  56361.9935     0.22737E+02 
  56394.2557     0.22491E+02 
  56426.5178     0.22247E+02 
  56458.7800     0.22004E+02 
  56491.0422     0.21763E+02 
  56523.3043     0.21524E+02 
  56555.5665     0.21286E+02 
  56587.8286     0.21050E+02 
  56620.0908     0.20816E+02 
  56652.3530     0.20584E+02 
  56684.6151     0.20353E+02 
  56716.8773     0.20123E+02 
  56749.1394     0.19896E+02 
  56781.4016     0.19670E+02 
  56813.6638     0.19445E+02 
  56845.9259     0.19223E+02 
  56878.1881     0.19002E+02 
  56910.4502     0.18782E+02 
  56942.7124     0.18564E+02 
  56974.9746     0.18348E+02 
  57007.2367     0.18133E+02 
  57039.4989     0.17920E+02 
  57071.7610     0.17709E+02 
  57104.0232     0.17499E+02 
  57136.2854     0.17290E+02 
  57168.5475     0.17083E+02 
  57200.8097     0.16878E+02 
  57233.0718     0.16674E+02 
  57265.3340     0.16472E+02 
  57297.5962     0.16271E+02 
  57329.8583     0.16072E+02 
  57362.1205     0.15874E+02 
  57394.3826     0.15678E+02 
  57426.6448     0.15483E+02 
  57458.9070     0.15290E+02 
  57491.1691     0.15098E+02 
  57523.4313     0.14908E+02 
  57555.6934     0.14719E+02 
  57587.9556     0.14532E+02 
  57620.2178     0.14346E+02 
  57652.4799     0.14162E+02 
  57684.7421     0.13979E+02 
  57717.0042     0.13797E+02 
  57749.2664     0.13617E+02 
  57781.5286     0.13439E+02 
  57813.7907     0.13261E+02 
  57846.0529     0.13086E+02 
  57878.3150     0.12911E+02 
  57910.5772     0.12738E+02 
  57942.8394     0.12567E+02 
  57975.1015     0.12396E+02 
  58007.3637     0.12228E+02 
  58039.6258     0.12060E+02 
  58071.8880     0.11894E+02 
  58104.1502     0.11729E+02 
  58136.4123     0.11566E+02 
  58168.6745     0.11404E+02 
  58200.9366     0.11243E+02 
  58233.1988     0.11084E+02 
  58265.4610     0.10926E+02 
  58297.7231     0.10769E+02 
  58329.9853     0.10614E+02 
  58362.2474     0.10460E+02 
  58394.5096     0.10307E+02 
  58426.7718     0.10156E+02 
  58459.0339     0.10005E+02 
  58491.2961     0.98565E+01 
  58523.5582     0.97090E+01 
  58555.8204     0.95627E+01 
  58588.0826     0.94177E+01 
  58620.3447     0.92740E+01 
  58652.6069     0.91315E+01 
  58684.8690     0.89903E+01 
  58717.1312     0.88504E+01 
  58749.3934     0.87117E+01 
  58781.6555     0.85742E+01 
  58813.9177     0.84380E+01 
  58846.1798     0.83030E+01 
  58878.4420     0.81693E+01 
  58910.7042     0.80368E+01 
  58942.9663     0.79055E+01 
  58975.2285     0.77754E+01 
  59007.4906     0.76465E+01 
  59039.7528     0.75188E+01 
  59072.0150     0.73924E+01 
  59104.2771     0.72671E+01 
  59136.5393     0.71430E+01 
  59168.8014     0.70201E+01 
  59201.0636     0.68984E+01 
  59233.3258     0.67779E+01 
  59265.5879     0.66585E+01 
  59297.8501     0.65403E+01 
  59330.1122     0.64233E+01 
  59362.3744     0.63075E+01 
  59394.6366     0.61928E+01 
  59426.8987     0.60792E+01 
  59459.1609     0.59668E+01 
  59491.4230     0.58556E+01 
  59523.6852     0.57455E+01 
  59555.9474     0.56365E+01 
  59588.2095     0.55287E+01 
  59620.4717     0.54220E+01 
  59652.7338     0.53165E+01 
  59684.9960     0.52120E+01 
  59717.2582     0.51087E+01 
  59749.5203     0.50065E+01 
  59781.7825     0.49055E+01 
  59814.0446     0.48055E+01 
  59846.3068     0.47067E+01 
  59878.5690     0.46090E+01 
  59910.8311     0.45123E+01 
  59943.0933     0.44168E+01 
  59975.3554     0.43224E+01 
  60007.6176     0.42291E+01 
  60039.8798     0.41369E+01 
  60072.1419     0.40458E+01 
  60104.4041     0.39558E+01 
  60136.6662     0.38668E+01 
  60168.9284     0.37790E+01 
  60201.1906     0.36922E+01 
  60233.4527     0.36066E+01 
  60265.7149     0.35220E+01 
  60297.9770     0.34385E+01 
  60330.2392     0.33561E+01 
  60362.5014     0.32748E+01 
  60394.7635     0.31946E+01 
  60427.0257     0.31154E+01 
  60459.2878     0.30373E+01 
  60491.5500     0.29603E+01 
  60523.8122     0.28844E+01 
  60556.0743     0.28095E+01 
  60588.3365     0.27358E+01 
  60620.5986     0.26631E+01 
  60652.8608     0.25915E+01 
  60685.1230     0.25209E+01 
  60717.3851     0.24515E+01 
  60749.6473     0.23831E+01 
  60781.9094     0.23158E+01 
  60814.1716     0.22496E+01 
  60846.4338     0.21845E+01 
  60878.6959     0.21204E+01 
  60910.9581     0.20575E+01 
  60943.2202     0.19956E+01 
  60975.4824     0.19348E+01 
  61007.7446     0.18751E+01 
  61040.0067     0.18165E+01 
  61072.2689     0.17589E+01 
  61104.5310     0.17025E+01 
  61136.7932     0.16472E+01 
  61169.0554     0.15929E+01 
  61201.3175     0.15398E+01 
  61233.5797     0.14877E+01 
  61265.8418     0.14368E+01 
  61298.1040     0.13870E+01 
  61330.3662     0.13383E+01 
  61362.6283     0.12907E+01 
  61394.8905     0.12442E+01 
  61427.1526     0.11989E+01 
  61459.4148     0.11546E+01 
  61491.6770     0.11115E+01 
  61523.9391     0.10696E+01 
  61556.2013     0.10288E+01 
  61588.4634     0.98912E+00 
  61620.7256     0.95061E+00 
  61652.9878     0.91325E+00 
  61685.2499     0.87705E+00 
  61717.5121     0.84203E+00 
  61749.7742     0.80818E+00 
  61782.0364     0.77550E+00 
  61814.2986     0.74402E+00 
  61846.5607     0.71372E+00 
  61878.8229     0.68463E+00 
  61911.0850     0.65675E+00 
  61943.3472     0.63008E+00 
  61975.6094     0.60463E+00 
  62007.8715     0.58041E+00 
  62040.1337     0.55743E+00 
  62072.3958     0.53570E+00 
  62104.6580     0.51523E+00 
  62136.9202     0.49602E+00 
  62169.1823     0.47808E+00 
  62201.4445     0.46143E+00 
  62233.7066     0.44608E+00 
  62265.9688     0.43202E+00 
  62298.2310     0.41929E+00 
  62330.4931     0.40787E+00 
  62362.7553     0.39780E+00 
  62395.0174     0.38907E+00 
  62427.2796     0.38170E+00 
  62459.5418     0.37571E+00 
  62491.8039     0.37110E+00 
  62524.0661     0.36789E+00 
  62556.3282     0.36609E+00 
  62588.5904     0.36571E+00 
  62620.8526     0.36677E+00 
  62653.1147     0.36929E+00 
  62685.3769     0.37327E+00 
  62717.6390     0.37874E+00 
  62749.9012     0.38570E+00 
  62782.1634     0.39418E+00 
  62814.4255     0.40418E+00 
  62846.6877     0.41574E+00 
  62878.9498     0.42885E+00 
  62911.2120     0.44355E+00 
  62943.4742     0.45985E+00 
  62975.7363     0.47777E+00 
  63007.9985     0.49732E+00 
  63040.2606     0.51853E+00 
  63072.5228     0.54141E+00 
  63104.7850     0.56599E+00 
  63137.0471     0.59229E+00 
  63169.3093     0.62033E+00 
  63201.5714     0.65012E+00 
  63233.8336     0.68170E+00 
  63266.0958     0.71508E+00 
  63298.3579     0.75029E+00 
  63330.6201     0.78735E+00 
  63362.8822     0.82629E+00 
  63395.1444     0.86713E+00 
  63427.4066     0.90990E+00 
  63459.6687     0.95462E+00 
  63491.9309     0.10013E+01 
  63524.1930     0.10500E+01 
  63556.4552     0.11008E+01 
  63588.7174     0.11536E+01 
  63620.9795     0.12085E+01 
  63653.2417     0.12655E+01 
  63685.5038     0.13247E+01 
  63717.7660     0.13860E+01 
  63750.0282     0.14496E+01 
  63782.2903     0.15154E+01 
  63814.5525     0.15835E+01 
  63846.8146     0.16539E+01 
  63879.0768     0.17267E+01 
  63911.3390     0.18018E+01 
  63943.6011     0.18794E+01 
  63975.8633     0.19594E+01 
  64008.1254     0.20420E+01 
  64040.3876     0.21270E+01 
  64072.6498     0.22147E+01 
  64104.9119     0.23049E+01 
  64137.1741     0.23978E+01 
  64169.4362     0.24934E+01 
  64201.6984     0.25917E+01 
  64233.9606     0.26928E+01 
  64266.2227     0.27968E+01 
  64298.4849     0.29036E+01 
  64330.7470     0.30133E+01 
  64363.0092     0.31260E+01 
  64395.2714     0.32417E+01 
  64427.5335     0.33604E+01 
  64459.7957     0.34823E+01 
  64492.0578     0.36073E+01 
  64524.3200     0.37355E+01 
  64556.5822     0.38670E+01 
  64588.8443     0.40018E+01 
  64621.1065     0.41400E+01 
  64653.3686     0.42816E+01 
  64685.6308     0.44267E+01 
  64717.8930     0.45753E+01 
  64750.1551     0.47276E+01 
  64782.4173     0.48835E+01 
  64814.6794     0.50431E+01 
  64846.9416     0.52065E+01 
  64879.2038     0.53738E+01 
  64911.4659     0.55449E+01 
  64943.7281     0.57201E+01 
  64975.9902     0.58993E+01 
  65008.2524     0.60826E+01 
  65040.5146     0.62701E+01 
  65072.7767     0.64618E+01 
  65105.0389     0.66579E+01 
  65137.3010     0.68584E+01 
  65169.5632     0.70633E+01 
  65201.8254     0.72728E+01 
  65234.0875     0.74870E+01 
  65266.3497     0.77058E+01 
  65298.6118     0.79294E+01 
  65330.8740     0.81579E+01 
  65363.1362     0.83914E+01 
  65395.3983     0.86299E+01 
  65427.6605     0.88735E+01 
  65459.9226     0.91223E+01 
  65492.1848     0.93764E+01 
  65524.4470     0.96359E+01 
  65556.7091     0.99009E+01 
  65588.9713     0.10171E+02 
  65621.2334     0.10448E+02 
  65653.4956     0.10730E+02 
  65685.7578     0.11018E+02 
  65718.0199     0.11311E+02 
  65750.2821     0.11611E+02 
  65782.5442     0.11917E+02 
  65814.8064     0.12230E+02 
  65847.0686     0.12548E+02 
  65879.3307     0.12874E+02 
  65911.5929     0.13205E+02 
  65943.8550     0.13544E+02 
  65976.1172     0.13889E+02 
  66008.3794     0.14242E+02 
  66040.6415     0.14601E+02 
  66072.9037     0.14967E+02 
  66105.1658     0.15341E+02 
  66137.4280     0.15723E+02 
  66169.6902     0.16111E+02 
  66201.9523     0.16508E+02 
  66234.2145     0.16912E+02 
  66266.4766     0.17324E+02 
  66298.7388     0.17745E+02 
  66331.0010     0.18173E+02 
  66363.2631     0.18610E+02 
  66395.5253     0.19055E+02 
  66427.7874     0.19509E+02 
  66460.0496     0.19972E+02 
  66492.3118     0.20443E+02 
  66524.5739     0.20924E+02 
  66556.8361     0.21414E+02 
  66589.0982     0.21913E+02 
  66621.3604     0.22421E+02 
  66653.6226     0.22940E+02 
  66685.8847     0.23468E+02 
  66718.1469     0.24006E+02 
  66750.4090     0.24554E+02 
  66782.6712     0.25113E+02 
  66814.9334     0.25682E+02 
  66847.1955     0.26262E+02 
  66879.4577     0.26852E+02 
  66911.7198     0.27453E+02 
  66943.9820     0.28066E+02 
  66976.2442     0.28690E+02 
  67008.5063     0.29326E+02 
  67040.7685     0.29973E+02 
  67073.0306     0.30632E+02 
  67105.2928     0.31303E+02 
  67137.5550     0.31987E+02 
  67169.8171     0.32682E+02 
  67202.0793     0.33391E+02 
  67234.3414     0.34112E+02 
  67266.6036     0.34847E+02 
  67298.8658     0.35595E+02 
  67331.1279     0.36356E+02 
  67363.3901     0.37131E+02 
  67395.6522     0.37919E+02 
  67427.9144     0.38722E+02 
  67460.1766     0.39539E+02 
  67492.4387     0.40371E+02 
  67524.7009     0.41217E+02 
  67556.9630     0.42079E+02 
  67589.2252     0.42955E+02 
  67621.4874     0.43847E+02 
  67653.7495     0.44755E+02 
  67686.0117     0.45679E+02 
  67718.2738     0.46618E+02 
  67750.5360     0.47574E+02 
  67782.7982     0.48547E+02 
  67815.0603     0.49536E+02 
  67847.3225     0.50543E+02 
  67879.5846     0.51567E+02 
  67911.8468     0.52608E+02 
  67944.1090     0.53668E+02 
  67976.3711     0.54745E+02 
  68008.6333     0.55841E+02 
  68040.8954     0.56955E+02 
  68073.1576     0.58089E+02 
  68105.4198     0.59241E+02 
  68137.6819     0.60413E+02 
  68169.9441     0.61605E+02 
  68202.2062     0.62817E+02 
  68234.4684     0.64048E+02 
  68266.7306     0.65301E+02 
  68298.9927     0.66574E+02 
  68331.2549     0.67868E+02 
  68363.5170     0.69184E+02 
  68395.7792     0.70521E+02 
  68428.0414     0.71881E+02 
  68460.3035     0.73263E+02 
  68492.5657     0.74667E+02 
  68524.8278     0.76094E+02 
  68557.0900     0.77544E+02 
  68589.3522     0.79018E+02 
  68621.6143     0.80515E+02 
  68653.8765     0.82037E+02 
  68686.1386     0.83583E+02 
  68718.4008     0.85154E+02 
  68750.6630     0.86750E+02 
  68782.9251     0.88371E+02 
  68815.1873     0.90018E+02 
  68847.4494     0.91691E+02 
  68879.7116     0.93390E+02 
  68911.9738     0.95116E+02 
  68944.2359     0.96869E+02 
  68976.4981     0.98650E+02 
  69008.7602     0.10046E+03 
  69041.0224     0.10229E+03 
  69073.2846     0.10416E+03 
  69105.5467     0.10605E+03 
  69137.8089     0.10797E+03 
  69170.0710     0.10992E+03 
  69202.3332     0.11191E+03 
  69234.5954     0.11392E+03 
  69266.8575     0.11596E+03 
  69299.1197     0.11803E+03 
  69331.3818     0.12014E+03 
  69363.6440     0.12227E+03 
  69395.9062     0.12444E+03 
  69428.1683     0.12664E+03 
  69460.4305     0.12887E+03 
  69492.6926     0.13114E+03 
  69524.9548     0.13343E+03 
  69557.2170     0.13577E+03 
  69589.4791     0.13813E+03 
  69621.7413     0.14053E+03 
  69654.0034     0.14297E+03 
  69686.2656     0.14544E+03 
  69718.5278     0.14795E+03 
  69750.7899     0.15049E+03 
  69783.0521     0.15307E+03 
  69815.3142     0.15568E+03 
  69847.5764     0.15834E+03 
  69879.8386     0.16103E+03 
  69912.1007     0.16376E+03 
  69944.3629     0.16652E+03 
  69976.6250     0.16933E+03 
  70008.8872     0.17217E+03 
  70041.1494     0.17505E+03 
  70073.4115     0.17798E+03 
  70105.6737     0.18094E+03 
  70137.9358     0.18395E+03 
  70170.1980     0.18699E+03 
  70202.4602     0.19008E+03 
  70234.7223     0.19321E+03 
  70266.9845     0.19638E+03 
  70299.2466     0.19959E+03 
  70331.5088     0.20285E+03 
  70363.7710     0.20615E+03 
  70396.0331     0.20949E+03 
  70428.2953     0.21288E+03 
  70460.5574     0.21631E+03 
  70492.8196     0.21979E+03 
  70525.0818     0.22331E+03 
  70557.3439     0.22688E+03 
  70589.6061     0.23049E+03 
  70621.8682     0.23415E+03 
  70654.1304     0.23786E+03 
  70686.3926     0.24161E+03 
  70718.6547     0.24542E+03 
  70750.9169     0.24927E+03 
  70783.1790     0.25317E+03 
  70815.4412     0.25711E+03 
  70847.7034     0.26111E+03 
  70879.9655     0.26516E+03 
  70912.2277     0.26926E+03 
  70944.4898     0.27340E+03 
  70976.7520     0.27760E+03 
  71009.0142     0.28185E+03 
  71041.2763     0.28615E+03 
  71073.5385     0.29050E+03 
  71105.8006     0.29491E+03 
  71138.0628     0.29937E+03 
  71170.3250     0.30388E+03 
  71202.5871     0.30844E+03 
  71234.8493     0.31306E+03 
  71267.1114     0.31773E+03 
  71299.3736     0.32246E+03 
  71331.6358     0.32724E+03 
  71363.8979     0.33207E+03 
  71396.1601     0.33696E+03 
  71428.4222     0.34191E+03 
  71460.6844     0.34692E+03 
  71492.9466     0.35198E+03 
  71525.2087     0.35709E+03 
  71557.4709     0.36227E+03 
  71589.7330     0.36750E+03 
  71621.9952     0.37279E+03 
  71654.2574     0.37814E+03 
  71686.5195     0.38355E+03 
  71718.7817     0.38901E+03 
  71751.0438     0.39454E+03 
  71783.3060     0.40012E+03 
  71815.5682     0.40577E+03 
  71847.8303     0.41147E+03 
  71880.0925     0.41724E+03 
  71912.3546     0.42306E+03 
  71944.6168     0.42895E+03 
  71976.8790     0.43490E+03 
  72009.1411     0.44091E+03 
  72041.4033     0.44698E+03 
  72073.6654     0.45311E+03 
  72105.9276     0.45931E+03 
  72138.1898     0.46557E+03 
  72170.4519     0.47189E+03 
  72202.7141     0.47828E+03 
  72234.9762     0.48473E+03 
  72267.2384     0.49124E+03 
  72299.5006     0.49781E+03 
  72331.7627     0.50446E+03 
  72364.0249     0.51116E+03 
  72396.2870     0.51793E+03 
  72428.5492     0.52476E+03 
  72460.8114     0.53166E+03 
  72493.0735     0.53863E+03 
  72525.3357     0.54566E+03 
  72557.5978     0.55275E+03 
  72589.8600     0.55991E+03 
