  32262.1600     0.21706E+01 
  32294.4222     0.21936E+01 
  32326.6843     0.22167E+01 
  32358.9465     0.22399E+01 
  32391.2086     0.22633E+01 
  32423.4708     0.22869E+01 
  32455.7330     0.23106E+01 
  32487.9951     0.23345E+01 
  32520.2573     0.23585E+01 
  32552.5194     0.23827E+01 
  32584.7816     0.24070E+01 
  32617.0438     0.24315E+01 
  32649.3059     0.24561E+01 
  32681.5681     0.24809E+01 
  32713.8302     0.25059E+01 
  32746.0924     0.25310E+01 
  32778.3546     0.25562E+01 
  32810.6167     0.25816E+01 
  32842.8789     0.26072E+01 
  32875.1410     0.26329E+01 
  32907.4032     0.26587E+01 
  32939.6654     0.26847E+01 
  32971.9275     0.27109E+01 
  33004.1897     0.27372E+01 
  33036.4518     0.27636E+01 
  33068.7140     0.27902E+01 
  33100.9762     0.28170E+01 
  33133.2383     0.28439E+01 
  33165.5005     0.28709E+01 
  33197.7626     0.28981E+01 
  33230.0248     0.29255E+01 
  33262.2870     0.29530E+01 
  33294.5491     0.29806E+01 
  33326.8113     0.30084E+01 
  33359.0734     0.30363E+01 
  33391.3356     0.30643E+01 
  33423.5978     0.30926E+01 
  33455.8599     0.31209E+01 
  33488.1221     0.31494E+01 
  33520.3842     0.31780E+01 
  33552.6464     0.32068E+01 
  33584.9086     0.32357E+01 
  33617.1707     0.32648E+01 
  33649.4329     0.32939E+01 
  33681.6950     0.33233E+01 
  33713.9572     0.33527E+01 
  33746.2194     0.33823E+01 
  33778.4815     0.34120E+01 
  33810.7437     0.34419E+01 
  33843.0058     0.34719E+01 
  33875.2680     0.35020E+01 
  33907.5302     0.35323E+01 
  33939.7923     0.35627E+01 
  33972.0545     0.35932E+01 
  34004.3166     0.36239E+01 
  34036.5788     0.36546E+01 
  34068.8410     0.36856E+01 
  34101.1031     0.37166E+01 
  34133.3653     0.37477E+01 
  34165.6274     0.37790E+01 
  34197.8896     0.38104E+01 
  34230.1518     0.38419E+01 
  34262.4139     0.38736E+01 
  34294.6761     0.39053E+01 
  34326.9382     0.39372E+01 
  34359.2004     0.39692E+01 
  34391.4626     0.40013E+01 
  34423.7247     0.40336E+01 
  34455.9869     0.40659E+01 
  34488.2490     0.40984E+01 
  34520.5112     0.41309E+01 
  34552.7734     0.41636E+01 
  34585.0355     0.41964E+01 
  34617.2977     0.42293E+01 
  34649.5598     0.42623E+01 
  34681.8220     0.42954E+01 
  34714.0842     0.43286E+01 
  34746.3463     0.43619E+01 
  34778.6085     0.43953E+01 
  34810.8706     0.44288E+01 
  34843.1328     0.44624E+01 
  34875.3950     0.44961E+01 
  34907.6571     0.45299E+01 
  34939.9193     0.45638E+01 
  34972.1814     0.45978E+01 
  35004.4436     0.46319E+01 
  35036.7058     0.46661E+01 
  35068.9679     0.47003E+01 
  35101.2301     0.47347E+01 
  35133.4922     0.47691E+01 
  35165.7544     0.48036E+01 
  35198.0166     0.48382E+01 
  35230.2787     0.48729E+01 
  35262.5409     0.49076E+01 
  35294.8030     0.49425E+01 
  35327.0652     0.49774E+01 
  35359.3274     0.50123E+01 
  35391.5895     0.50474E+01 
  35423.8517     0.50825E+01 
  35456.1138     0.51177E+01 
  35488.3760     0.51530E+01 
  35520.6382     0.51883E+01 
  35552.9003     0.52237E+01 
  35585.1625     0.52591E+01 
  35617.4246     0.52947E+01 
  35649.6868     0.53302E+01 
  35681.9490     0.53659E+01 
  35714.2111     0.54015E+01 
  35746.4733     0.54373E+01 
  35778.7354     0.54731E+01 
  35810.9976     0.55089E+01 
  35843.2598     0.55448E+01 
  35875.5219     0.55807E+01 
  35907.7841     0.56167E+01 
  35940.0462     0.56527E+01 
  35972.3084     0.56888E+01 
  36004.5706     0.57249E+01 
  36036.8327     0.57610E+01 
  36069.0949     0.57972E+01 
  36101.3570     0.58334E+01 
  36133.6192     0.58697E+01 
  36165.8814     0.59059E+01 
  36198.1435     0.59422E+01 
  36230.4057     0.59785E+01 
  36262.6678     0.60149E+01 
  36294.9300     0.60513E+01 
  36327.1922     0.60876E+01 
  36359.4543     0.61240E+01 
  36391.7165     0.61605E+01 
  36423.9786     0.61969E+01 
  36456.2408     0.62333E+01 
  36488.5030     0.62698E+01 
  36520.7651     0.63063E+01 
  36553.0273     0.63427E+01 
  36585.2894     0.63792E+01 
  36617.5516     0.64157E+01 
  36649.8138     0.64522E+01 
  36682.0759     0.64886E+01 
  36714.3381     0.65251E+01 
  36746.6002     0.65616E+01 
  36778.8624     0.65980E+01 
  36811.1246     0.66345E+01 
  36843.3867     0.66709E+01 
  36875.6489     0.67073E+01 
  36907.9110     0.67437E+01 
  36940.1732     0.67801E+01 
  36972.4354     0.68165E+01 
  37004.6975     0.68528E+01 
  37036.9597     0.68891E+01 
  37069.2218     0.69254E+01 
  37101.4840     0.69617E+01 
  37133.7462     0.69979E+01 
  37166.0083     0.70341E+01 
  37198.2705     0.70703E+01 
  37230.5326     0.71064E+01 
  37262.7948     0.71425E+01 
  37295.0570     0.71785E+01 
  37327.3191     0.72145E+01 
  37359.5813     0.72504E+01 
  37391.8434     0.72863E+01 
  37424.1056     0.73222E+01 
  37456.3678     0.73580E+01 
  37488.6299     0.73937E+01 
  37520.8921     0.74294E+01 
  37553.1542     0.74650E+01 
  37585.4164     0.75006E+01 
  37617.6786     0.75361E+01 
  37649.9407     0.75715E+01 
  37682.2029     0.76069E+01 
  37714.4650     0.76422E+01 
  37746.7272     0.76774E+01 
  37778.9894     0.77126E+01 
  37811.2515     0.77476E+01 
  37843.5137     0.77826E+01 
  37875.7758     0.78176E+01 
  37908.0380     0.78524E+01 
  37940.3002     0.78871E+01 
  37972.5623     0.79218E+01 
  38004.8245     0.79564E+01 
  38037.0866     0.79909E+01 
  38069.3488     0.80253E+01 
  38101.6110     0.80595E+01 
  38133.8731     0.80937E+01 
  38166.1353     0.81278E+01 
  38198.3974     0.81618E+01 
  38230.6596     0.81957E+01 
  38262.9218     0.82295E+01 
  38295.1839     0.82632E+01 
  38327.4461     0.82968E+01 
  38359.7082     0.83302E+01 
  38391.9704     0.83636E+01 
  38424.2326     0.83968E+01 
  38456.4947     0.84299E+01 
  38488.7569     0.84629E+01 
  38521.0190     0.84958E+01 
  38553.2812     0.85285E+01 
  38585.5434     0.85611E+01 
  38617.8055     0.85936E+01 
  38650.0677     0.86260E+01 
  38682.3298     0.86582E+01 
  38714.5920     0.86903E+01 
  38746.8542     0.87223E+01 
  38779.1163     0.87541E+01 
  38811.3785     0.87858E+01 
  38843.6406     0.88173E+01 
  38875.9028     0.88487E+01 
  38908.1650     0.88800E+01 
  38940.4271     0.89111E+01 
  38972.6893     0.89420E+01 
  39004.9514     0.89728E+01 
  39037.2136     0.90034E+01 
  39069.4758     0.90339E+01 
  39101.7379     0.90643E+01 
  39134.0001     0.90944E+01 
  39166.2622     0.91245E+01 
  39198.5244     0.91543E+01 
  39230.7866     0.91840E+01 
  39263.0487     0.92135E+01 
  39295.3109     0.92429E+01 
  39327.5730     0.92720E+01 
  39359.8352     0.93010E+01 
  39392.0974     0.93299E+01 
  39424.3595     0.93585E+01 
  39456.6217     0.93870E+01 
  39488.8838     0.94153E+01 
  39521.1460     0.94434E+01 
  39553.4082     0.94714E+01 
  39585.6703     0.94991E+01 
  39617.9325     0.95267E+01 
  39650.1946     0.95541E+01 
  39682.4568     0.95813E+01 
  39714.7190     0.96083E+01 
  39746.9811     0.96351E+01 
  39779.2433     0.96617E+01 
  39811.5054     0.96881E+01 
  39843.7676     0.97143E+01 
  39876.0298     0.97403E+01 
  39908.2919     0.97662E+01 
  39940.5541     0.97918E+01 
  39972.8162     0.98172E+01 
  40005.0784     0.98424E+01 
  40037.3406     0.98674E+01 
  40069.6027     0.98922E+01 
  40101.8649     0.99168E+01 
  40134.1270     0.99412E+01 
  40166.3892     0.99653E+01 
  40198.6514     0.99893E+01 
  40230.9135     0.10013E+02 
  40263.1757     0.10037E+02 
  40295.4378     0.10060E+02 
  40327.7000     0.10083E+02 
  40359.9622     0.10106E+02 
  40392.2243     0.10128E+02 
  40424.4865     0.10151E+02 
  40456.7486     0.10173E+02 
  40489.0108     0.10195E+02 
  40521.2730     0.10217E+02 
  40553.5351     0.10238E+02 
  40585.7973     0.10260E+02 
  40618.0594     0.10281E+02 
  40650.3216     0.10301E+02 
  40682.5838     0.10322E+02 
  40714.8459     0.10342E+02 
  40747.1081     0.10362E+02 
  40779.3702     0.10382E+02 
  40811.6324     0.10402E+02 
  40843.8946     0.10421E+02 
  40876.1567     0.10441E+02 
  40908.4189     0.10459E+02 
  40940.6810     0.10478E+02 
  40972.9432     0.10497E+02 
  41005.2054     0.10515E+02 
  41037.4675     0.10533E+02 
  41069.7297     0.10550E+02 
  41101.9918     0.10568E+02 
  41134.2540     0.10585E+02 
  41166.5162     0.10602E+02 
  41198.7783     0.10619E+02 
  41231.0405     0.10635E+02 
  41263.3026     0.10651E+02 
  41295.5648     0.10667E+02 
  41327.8270     0.10683E+02 
  41360.0891     0.10699E+02 
  41392.3513     0.10714E+02 
  41424.6134     0.10729E+02 
  41456.8756     0.10743E+02 
  41489.1378     0.10758E+02 
  41521.3999     0.10772E+02 
  41553.6621     0.10786E+02 
  41585.9242     0.10800E+02 
  41618.1864     0.10813E+02 
  41650.4486     0.10826E+02 
  41682.7107     0.10839E+02 
  41714.9729     0.10852E+02 
  41747.2350     0.10864E+02 
  41779.4972     0.10876E+02 
  41811.7594     0.10888E+02 
  41844.0215     0.10899E+02 
  41876.2837     0.10911E+02 
  41908.5458     0.10922E+02 
  41940.8080     0.10933E+02 
  41973.0702     0.10943E+02 
  42005.3323     0.10953E+02 
  42037.5945     0.10963E+02 
  42069.8566     0.10973E+02 
  42102.1188     0.10983E+02 
  42134.3810     0.10992E+02 
  42166.6431     0.11001E+02 
  42198.9053     0.11009E+02 
  42231.1674     0.11018E+02 
  42263.4296     0.11026E+02 
  42295.6918     0.11034E+02 
  42327.9539     0.11041E+02 
  42360.2161     0.11049E+02 
  42392.4782     0.11056E+02 
  42424.7404     0.11063E+02 
  42457.0026     0.11069E+02 
  42489.2647     0.11075E+02 
  42521.5269     0.11081E+02 
  42553.7890     0.11087E+02 
  42586.0512     0.11092E+02 
  42618.3134     0.11098E+02 
  42650.5755     0.11103E+02 
  42682.8377     0.11107E+02 
  42715.0998     0.11112E+02 
  42747.3620     0.11116E+02 
  42779.6242     0.11120E+02 
  42811.8863     0.11123E+02 
  42844.1485     0.11126E+02 
  42876.4106     0.11130E+02 
  42908.6728     0.11132E+02 
  42940.9350     0.11135E+02 
  42973.1971     0.11137E+02 
  43005.4593     0.11139E+02 
  43037.7214     0.11141E+02 
  43069.9836     0.11142E+02 
  43102.2458     0.11143E+02 
  43134.5079     0.11144E+02 
  43166.7701     0.11145E+02 
  43199.0322     0.11145E+02 
  43231.2944     0.11145E+02 
  43263.5566     0.11145E+02 
  43295.8187     0.11145E+02 
  43328.0809     0.11144E+02 
  43360.3430     0.11143E+02 
  43392.6052     0.11142E+02 
  43424.8674     0.11141E+02 
  43457.1295     0.11139E+02 
  43489.3917     0.11137E+02 
  43521.6538     0.11135E+02 
  43553.9160     0.11132E+02 
  43586.1782     0.11129E+02 
  43618.4403     0.11126E+02 
  43650.7025     0.11123E+02 
  43682.9646     0.11120E+02 
  43715.2268     0.11116E+02 
  43747.4890     0.11112E+02 
  43779.7511     0.11107E+02 
  43812.0133     0.11103E+02 
  43844.2754     0.11098E+02 
  43876.5376     0.11093E+02 
  43908.7998     0.11088E+02 
  43941.0619     0.11082E+02 
  43973.3241     0.11076E+02 
  44005.5862     0.11070E+02 
  44037.8484     0.11064E+02 
  44070.1106     0.11057E+02 
  44102.3727     0.11050E+02 
  44134.6349     0.11043E+02 
  44166.8970     0.11036E+02 
  44199.1592     0.11028E+02 
  44231.4214     0.11021E+02 
  44263.6835     0.11013E+02 
  44295.9457     0.11004E+02 
  44328.2078     0.10996E+02 
  44360.4700     0.10987E+02 
  44392.7322     0.10978E+02 
  44424.9943     0.10969E+02 
  44457.2565     0.10959E+02 
  44489.5186     0.10949E+02 
  44521.7808     0.10939E+02 
  44554.0430     0.10929E+02 
  44586.3051     0.10919E+02 
  44618.5673     0.10908E+02 
  44650.8294     0.10897E+02 
  44683.0916     0.10886E+02 
  44715.3538     0.10875E+02 
  44747.6159     0.10863E+02 
  44779.8781     0.10851E+02 
  44812.1402     0.10839E+02 
  44844.4024     0.10827E+02 
  44876.6646     0.10814E+02 
  44908.9267     0.10801E+02 
  44941.1889     0.10788E+02 
  44973.4510     0.10775E+02 
  45005.7132     0.10762E+02 
  45037.9754     0.10748E+02 
  45070.2375     0.10734E+02 
  45102.4997     0.10720E+02 
  45134.7618     0.10706E+02 
  45167.0240     0.10691E+02 
  45199.2862     0.10677E+02 
  45231.5483     0.10662E+02 
  45263.8105     0.10647E+02 
  45296.0726     0.10631E+02 
  45328.3348     0.10616E+02 
  45360.5970     0.10600E+02 
  45392.8591     0.10584E+02 
  45425.1213     0.10568E+02 
  45457.3834     0.10551E+02 
  45489.6456     0.10535E+02 
  45521.9078     0.10518E+02 
  45554.1699     0.10501E+02 
  45586.4321     0.10484E+02 
  45618.6942     0.10466E+02 
  45650.9564     0.10449E+02 
  45683.2186     0.10431E+02 
  45715.4807     0.10413E+02 
  45747.7429     0.10395E+02 
  45780.0050     0.10377E+02 
  45812.2672     0.10358E+02 
  45844.5294     0.10339E+02 
  45876.7915     0.10320E+02 
  45909.0537     0.10301E+02 
  45941.3158     0.10282E+02 
  45973.5780     0.10263E+02 
  46005.8402     0.10243E+02 
  46038.1023     0.10223E+02 
  46070.3645     0.10203E+02 
  46102.6266     0.10183E+02 
  46134.8888     0.10162E+02 
  46167.1510     0.10142E+02 
  46199.4131     0.10121E+02 
  46231.6753     0.10100E+02 
  46263.9374     0.10079E+02 
  46296.1996     0.10058E+02 
  46328.4618     0.10037E+02 
  46360.7239     0.10015E+02 
  46392.9861     0.99934E+01 
  46425.2482     0.99715E+01 
  46457.5104     0.99495E+01 
  46489.7726     0.99273E+01 
  46522.0347     0.99049E+01 
  46554.2969     0.98824E+01 
  46586.5590     0.98598E+01 
  46618.8212     0.98369E+01 
  46651.0834     0.98140E+01 
  46683.3455     0.97909E+01 
  46715.6077     0.97676E+01 
  46747.8698     0.97442E+01 
  46780.1320     0.97206E+01 
  46812.3942     0.96969E+01 
  46844.6563     0.96731E+01 
  46876.9185     0.96491E+01 
  46909.1806     0.96249E+01 
  46941.4428     0.96007E+01 
  46973.7050     0.95763E+01 
  47005.9671     0.95517E+01 
  47038.2293     0.95271E+01 
  47070.4914     0.95023E+01 
  47102.7536     0.94773E+01 
  47135.0158     0.94523E+01 
  47167.2779     0.94271E+01 
  47199.5401     0.94018E+01 
  47231.8022     0.93763E+01 
  47264.0644     0.93508E+01 
  47296.3266     0.93251E+01 
  47328.5887     0.92993E+01 
  47360.8509     0.92734E+01 
  47393.1130     0.92473E+01 
  47425.3752     0.92212E+01 
  47457.6374     0.91949E+01 
  47489.8995     0.91685E+01 
  47522.1617     0.91420E+01 
  47554.4238     0.91154E+01 
  47586.6860     0.90887E+01 
  47618.9482     0.90619E+01 
  47651.2103     0.90350E+01 
  47683.4725     0.90080E+01 
  47715.7346     0.89809E+01 
  47747.9968     0.89537E+01 
  47780.2590     0.89264E+01 
  47812.5211     0.88989E+01 
  47844.7833     0.88714E+01 
  47877.0454     0.88438E+01 
  47909.3076     0.88161E+01 
  47941.5698     0.87884E+01 
  47973.8319     0.87605E+01 
  48006.0941     0.87325E+01 
  48038.3562     0.87045E+01 
  48070.6184     0.86764E+01 
  48102.8806     0.86481E+01 
  48135.1427     0.86199E+01 
  48167.4049     0.85915E+01 
  48199.6670     0.85630E+01 
  48231.9292     0.85345E+01 
  48264.1914     0.85059E+01 
  48296.4535     0.84772E+01 
  48328.7157     0.84485E+01 
  48360.9778     0.84197E+01 
  48393.2400     0.83908E+01 
  48425.5022     0.83618E+01 
  48457.7643     0.83328E+01 
  48490.0265     0.83037E+01 
  48522.2886     0.82745E+01 
  48554.5508     0.82453E+01 
  48586.8130     0.82160E+01 
  48619.0751     0.81867E+01 
  48651.3373     0.81573E+01 
  48683.5994     0.81279E+01 
  48715.8616     0.80984E+01 
  48748.1238     0.80688E+01 
  48780.3859     0.80392E+01 
  48812.6481     0.80095E+01 
  48844.9102     0.79798E+01 
  48877.1724     0.79501E+01 
  48909.4346     0.79203E+01 
  48941.6967     0.78904E+01 
  48973.9589     0.78605E+01 
  49006.2210     0.78306E+01 
  49038.4832     0.78006E+01 
  49070.7454     0.77706E+01 
  49103.0075     0.77405E+01 
  49135.2697     0.77105E+01 
  49167.5318     0.76803E+01 
  49199.7940     0.76502E+01 
  49232.0562     0.76200E+01 
  49264.3183     0.75898E+01 
  49296.5805     0.75595E+01 
  49328.8426     0.75292E+01 
  49361.1048     0.74989E+01 
  49393.3670     0.74686E+01 
  49425.6291     0.74382E+01 
  49457.8913     0.74078E+01 
  49490.1534     0.73774E+01 
  49522.4156     0.73470E+01 
  49554.6778     0.73166E+01 
  49586.9399     0.72861E+01 
  49619.2021     0.72556E+01 
  49651.4642     0.72251E+01 
  49683.7264     0.71946E+01 
  49715.9886     0.71641E+01 
  49748.2507     0.71335E+01 
  49780.5129     0.71030E+01 
  49812.7750     0.70724E+01 
  49845.0372     0.70419E+01 
  49877.2994     0.70113E+01 
  49909.5615     0.69807E+01 
  49941.8237     0.69502E+01 
  49974.0858     0.69196E+01 
  50006.3480     0.68890E+01 
  50038.6102     0.68584E+01 
  50070.8723     0.68278E+01 
  50103.1345     0.67972E+01 
  50135.3966     0.67666E+01 
  50167.6588     0.67361E+01 
  50199.9210     0.67055E+01 
  50232.1831     0.66749E+01 
  50264.4453     0.66444E+01 
  50296.7074     0.66138E+01 
  50328.9696     0.65833E+01 
  50361.2318     0.65527E+01 
  50393.4939     0.65222E+01 
  50425.7561     0.64917E+01 
  50458.0182     0.64612E+01 
  50490.2804     0.64307E+01 
  50522.5426     0.64003E+01 
  50554.8047     0.63698E+01 
  50587.0669     0.63394E+01 
  50619.3290     0.63090E+01 
  50651.5912     0.62786E+01 
  50683.8534     0.62482E+01 
  50716.1155     0.62179E+01 
  50748.3777     0.61876E+01 
  50780.6398     0.61573E+01 
  50812.9020     0.61270E+01 
  50845.1642     0.60967E+01 
  50877.4263     0.60665E+01 
  50909.6885     0.60363E+01 
  50941.9506     0.60062E+01 
  50974.2128     0.59760E+01 
  51006.4750     0.59459E+01 
  51038.7371     0.59159E+01 
  51070.9993     0.58858E+01 
  51103.2614     0.58558E+01 
  51135.5236     0.58258E+01 
  51167.7858     0.57959E+01 
  51200.0479     0.57660E+01 
  51232.3101     0.57362E+01 
  51264.5722     0.57063E+01 
  51296.8344     0.56765E+01 
  51329.0966     0.56468E+01 
  51361.3587     0.56171E+01 
  51393.6209     0.55874E+01 
  51425.8830     0.55578E+01 
  51458.1452     0.55283E+01 
  51490.4074     0.54987E+01 
  51522.6695     0.54692E+01 
  51554.9317     0.54398E+01 
  51587.1938     0.54104E+01 
  51619.4560     0.53811E+01 
  51651.7182     0.53518E+01 
  51683.9803     0.53225E+01 
  51716.2425     0.52933E+01 
  51748.5046     0.52642E+01 
  51780.7668     0.52351E+01 
  51813.0290     0.52061E+01 
  51845.2911     0.51771E+01 
  51877.5533     0.51481E+01 
  51909.8154     0.51192E+01 
  51942.0776     0.50904E+01 
  51974.3398     0.50617E+01 
  52006.6019     0.50329E+01 
  52038.8641     0.50043E+01 
  52071.1262     0.49757E+01 
  52103.3884     0.49471E+01 
  52135.6506     0.49187E+01 
  52167.9127     0.48902E+01 
  52200.1749     0.48619E+01 
  52232.4370     0.48336E+01 
  52264.6992     0.48053E+01 
  52296.9614     0.47772E+01 
  52329.2235     0.47490E+01 
  52361.4857     0.47210E+01 
  52393.7478     0.46930E+01 
  52426.0100     0.46651E+01 
  52458.2722     0.46372E+01 
  52490.5343     0.46094E+01 
  52522.7965     0.45817E+01 
  52555.0586     0.45541E+01 
  52587.3208     0.45265E+01 
  52619.5830     0.44990E+01 
  52651.8451     0.44715E+01 
  52684.1073     0.44441E+01 
  52716.3694     0.44168E+01 
  52748.6316     0.43896E+01 
  52780.8938     0.43624E+01 
  52813.1559     0.43353E+01 
  52845.4181     0.43083E+01 
  52877.6802     0.42813E+01 
  52909.9424     0.42544E+01 
  52942.2046     0.42276E+01 
  52974.4667     0.42009E+01 
  53006.7289     0.41742E+01 
  53038.9910     0.41476E+01 
  53071.2532     0.41211E+01 
  53103.5154     0.40947E+01 
  53135.7775     0.40683E+01 
  53168.0397     0.40420E+01 
  53200.3018     0.40158E+01 
  53232.5640     0.39897E+01 
  53264.8262     0.39636E+01 
  53297.0883     0.39377E+01 
  53329.3505     0.39118E+01 
  53361.6126     0.38859E+01 
  53393.8748     0.38602E+01 
  53426.1370     0.38345E+01 
  53458.3991     0.38090E+01 
  53490.6613     0.37834E+01 
  53522.9234     0.37580E+01 
  53555.1856     0.37327E+01 
  53587.4478     0.37074E+01 
  53619.7099     0.36823E+01 
  53651.9721     0.36572E+01 
  53684.2342     0.36321E+01 
  53716.4964     0.36072E+01 
  53748.7586     0.35824E+01 
  53781.0207     0.35576E+01 
  53813.2829     0.35329E+01 
  53845.5450     0.35083E+01 
  53877.8072     0.34838E+01 
  53910.0694     0.34594E+01 
  53942.3315     0.34350E+01 
  53974.5937     0.34108E+01 
  54006.8558     0.33866E+01 
  54039.1180     0.33625E+01 
  54071.3802     0.33385E+01 
  54103.6423     0.33146E+01 
  54135.9045     0.32907E+01 
  54168.1666     0.32670E+01 
  54200.4288     0.32433E+01 
  54232.6910     0.32197E+01 
  54264.9531     0.31962E+01 
  54297.2153     0.31728E+01 
  54329.4774     0.31495E+01 
  54361.7396     0.31263E+01 
  54394.0018     0.31031E+01 
  54426.2639     0.30801E+01 
  54458.5261     0.30571E+01 
  54490.7882     0.30342E+01 
  54523.0504     0.30114E+01 
  54555.3126     0.29887E+01 
  54587.5747     0.29661E+01 
  54619.8369     0.29436E+01 
  54652.0990     0.29212E+01 
  54684.3612     0.28988E+01 
  54716.6234     0.28765E+01 
  54748.8855     0.28544E+01 
  54781.1477     0.28323E+01 
  54813.4098     0.28103E+01 
  54845.6720     0.27884E+01 
  54877.9342     0.27666E+01 
  54910.1963     0.27448E+01 
  54942.4585     0.27232E+01 
  54974.7206     0.27017E+01 
  55006.9828     0.26802E+01 
  55039.2450     0.26588E+01 
  55071.5071     0.26375E+01 
  55103.7693     0.26164E+01 
  55136.0314     0.25953E+01 
  55168.2936     0.25742E+01 
  55200.5558     0.25533E+01 
  55232.8179     0.25325E+01 
  55265.0801     0.25118E+01 
  55297.3422     0.24911E+01 
  55329.6044     0.24706E+01 
  55361.8666     0.24501E+01 
  55394.1287     0.24297E+01 
  55426.3909     0.24094E+01 
  55458.6530     0.23892E+01 
  55490.9152     0.23691E+01 
  55523.1774     0.23491E+01 
  55555.4395     0.23292E+01 
  55587.7017     0.23093E+01 
  55619.9638     0.22896E+01 
  55652.2260     0.22699E+01 
  55684.4882     0.22504E+01 
  55716.7503     0.22309E+01 
  55749.0125     0.22115E+01 
  55781.2746     0.21922E+01 
  55813.5368     0.21730E+01 
  55845.7990     0.21539E+01 
  55878.0611     0.21349E+01 
  55910.3233     0.21159E+01 
  55942.5854     0.20971E+01 
  55974.8476     0.20783E+01 
  56007.1098     0.20597E+01 
  56039.3719     0.20411E+01 
  56071.6341     0.20226E+01 
  56103.8962     0.20042E+01 
  56136.1584     0.19859E+01 
  56168.4206     0.19677E+01 
  56200.6827     0.19496E+01 
  56232.9449     0.19315E+01 
  56265.2070     0.19136E+01 
  56297.4692     0.18957E+01 
  56329.7314     0.18780E+01 
  56361.9935     0.18603E+01 
  56394.2557     0.18427E+01 
  56426.5178     0.18252E+01 
  56458.7800     0.18078E+01 
  56491.0422     0.17905E+01 
  56523.3043     0.17732E+01 
  56555.5665     0.17561E+01 
  56587.8286     0.17390E+01 
  56620.0908     0.17221E+01 
  56652.3530     0.17052E+01 
  56684.6151     0.16884E+01 
  56716.8773     0.16717E+01 
  56749.1394     0.16551E+01 
  56781.4016     0.16386E+01 
  56813.6638     0.16222E+01 
  56845.9259     0.16058E+01 
  56878.1881     0.15896E+01 
  56910.4502     0.15734E+01 
  56942.7124     0.15573E+01 
  56974.9746     0.15413E+01 
  57007.2367     0.15254E+01 
  57039.4989     0.15096E+01 
  57071.7610     0.14939E+01 
  57104.0232     0.14782E+01 
  57136.2854     0.14627E+01 
  57168.5475     0.14472E+01 
  57200.8097     0.14318E+01 
  57233.0718     0.14165E+01 
  57265.3340     0.14013E+01 
  57297.5962     0.13862E+01 
  57329.8583     0.13712E+01 
  57362.1205     0.13562E+01 
  57394.3826     0.13414E+01 
  57426.6448     0.13266E+01 
  57458.9070     0.13119E+01 
  57491.1691     0.12973E+01 
  57523.4313     0.12828E+01 
  57555.6934     0.12683E+01 
  57587.9556     0.12540E+01 
  57620.2178     0.12397E+01 
  57652.4799     0.12256E+01 
  57684.7421     0.12115E+01 
  57717.0042     0.11975E+01 
  57749.2664     0.11836E+01 
  57781.5286     0.11697E+01 
  57813.7907     0.11560E+01 
  57846.0529     0.11423E+01 
  57878.3150     0.11288E+01 
  57910.5772     0.11153E+01 
  57942.8394     0.11019E+01 
  57975.1015     0.10885E+01 
  58007.3637     0.10753E+01 
  58039.6258     0.10622E+01 
  58071.8880     0.10491E+01 
  58104.1502     0.10361E+01 
  58136.4123     0.10232E+01 
  58168.6745     0.10104E+01 
  58200.9366     0.99767E+00 
  58233.1988     0.98502E+00 
  58265.4610     0.97246E+00 
  58297.7231     0.95998E+00 
  58329.9853     0.94758E+00 
  58362.2474     0.93527E+00 
  58394.5096     0.92304E+00 
  58426.7718     0.91090E+00 
  58459.0339     0.89884E+00 
  58491.2961     0.88686E+00 
  58523.5582     0.87497E+00 
  58555.8204     0.86316E+00 
  58588.0826     0.85143E+00 
  58620.3447     0.83979E+00 
  58652.6069     0.82823E+00 
  58684.8690     0.81675E+00 
  58717.1312     0.80536E+00 
  58749.3934     0.79405E+00 
  58781.6555     0.78282E+00 
  58813.9177     0.77167E+00 
  58846.1798     0.76061E+00 
  58878.4420     0.74963E+00 
  58910.7042     0.73874E+00 
  58942.9663     0.72793E+00 
  58975.2285     0.71720E+00 
  59007.4906     0.70655E+00 
  59039.7528     0.69598E+00 
  59072.0150     0.68550E+00 
  59104.2771     0.67511E+00 
  59136.5393     0.66479E+00 
  59168.8014     0.65456E+00 
  59201.0636     0.64441E+00 
  59233.3258     0.63435E+00 
  59265.5879     0.62436E+00 
  59297.8501     0.61446E+00 
  59330.1122     0.60465E+00 
  59362.3744     0.59492E+00 
  59394.6366     0.58527E+00 
  59426.8987     0.57570E+00 
  59459.1609     0.56622E+00 
  59491.4230     0.55682E+00 
  59523.6852     0.54751E+00 
  59555.9474     0.53828E+00 
  59588.2095     0.52913E+00 
  59620.4717     0.52007E+00 
  59652.7338     0.51109E+00 
  59684.9960     0.50220E+00 
  59717.2582     0.49339E+00 
  59749.5203     0.48466E+00 
  59781.7825     0.47602E+00 
  59814.0446     0.46747E+00 
  59846.3068     0.45900E+00 
  59878.5690     0.45061E+00 
  59910.8311     0.44231E+00 
  59943.0933     0.43410E+00 
  59975.3554     0.42597E+00 
  60007.6176     0.41793E+00 
  60039.8798     0.40998E+00 
  60072.1419     0.40211E+00 
  60104.4041     0.39433E+00 
  60136.6662     0.38663E+00 
  60168.9284     0.37902E+00 
  60201.1906     0.37150E+00 
  60233.4527     0.36407E+00 
  60265.7149     0.35673E+00 
  60297.9770     0.34947E+00 
  60330.2392     0.34231E+00 
  60362.5014     0.33523E+00 
  60394.7635     0.32824E+00 
  60427.0257     0.32135E+00 
  60459.2878     0.31454E+00 
  60491.5500     0.30782E+00 
  60523.8122     0.30120E+00 
  60556.0743     0.29466E+00 
  60588.3365     0.28822E+00 
  60620.5986     0.28187E+00 
  60652.8608     0.27561E+00 
  60685.1230     0.26945E+00 
  60717.3851     0.26338E+00 
  60749.6473     0.25740E+00 
  60781.9094     0.25152E+00 
  60814.1716     0.24573E+00 
  60846.4338     0.24004E+00 
  60878.6959     0.23445E+00 
  60910.9581     0.22895E+00 
  60943.2202     0.22355E+00 
  60975.4824     0.21825E+00 
  61007.7446     0.21304E+00 
  61040.0067     0.20794E+00 
  61072.2689     0.20294E+00 
  61104.5310     0.19803E+00 
  61136.7932     0.19323E+00 
  61169.0554     0.18853E+00 
  61201.3175     0.18393E+00 
  61233.5797     0.17944E+00 
  61265.8418     0.17505E+00 
  61298.1040     0.17076E+00 
  61330.3662     0.16658E+00 
  61362.6283     0.16251E+00 
  61394.8905     0.15854E+00 
  61427.1526     0.15468E+00 
  61459.4148     0.15094E+00 
  61491.6770     0.14730E+00 
  61523.9391     0.14377E+00 
  61556.2013     0.14035E+00 
  61588.4634     0.13705E+00 
  61620.7256     0.13386E+00 
  61652.9878     0.13079E+00 
  61685.2499     0.12783E+00 
  61717.5121     0.12499E+00 
  61749.7742     0.12226E+00 
  61782.0364     0.11966E+00 
  61814.2986     0.11717E+00 
  61846.5607     0.11481E+00 
  61878.8229     0.11257E+00 
  61911.0850     0.11045E+00 
  61943.3472     0.10846E+00 
  61975.6094     0.10659E+00 
  62007.8715     0.10486E+00 
  62040.1337     0.10325E+00 
  62072.3958     0.10177E+00 
  62104.6580     0.10042E+00 
  62136.9202     0.99200E-01 
  62169.1823     0.98118E-01 
  62201.4445     0.97172E-01 
  62233.7066     0.96363E-01 
  62265.9688     0.95692E-01 
  62298.2310     0.95161E-01 
  62330.4931     0.94772E-01 
  62362.7553     0.94527E-01 
  62395.0174     0.94426E-01 
  62427.2796     0.94471E-01 
  62459.5418     0.94665E-01 
  62491.8039     0.95009E-01 
  62524.0661     0.95504E-01 
  62556.3282     0.96153E-01 
  62588.5904     0.96957E-01 
  62620.8526     0.97917E-01 
  62653.1147     0.99037E-01 
  62685.3769     0.10032E+00 
  62717.6390     0.10176E+00 
  62749.9012     0.10337E+00 
  62782.1634     0.10515E+00 
  62814.4255     0.10709E+00 
  62846.6877     0.10920E+00 
  62878.9498     0.11149E+00 
  62911.2120     0.11396E+00 
  62943.4742     0.11660E+00 
  62975.7363     0.11942E+00 
  63007.9985     0.12242E+00 
  63040.2606     0.12561E+00 
  63072.5228     0.12898E+00 
  63104.7850     0.13255E+00 
  63137.0471     0.13630E+00 
  63169.3093     0.14025E+00 
  63201.5714     0.14439E+00 
  63233.8336     0.14874E+00 
  63266.0958     0.15329E+00 
  63298.3579     0.15804E+00 
  63330.6201     0.16300E+00 
  63362.8822     0.16816E+00 
  63395.1444     0.17354E+00 
  63427.4066     0.17914E+00 
  63459.6687     0.18496E+00 
  63491.9309     0.19099E+00 
  63524.1930     0.19725E+00 
  63556.4552     0.20374E+00 
  63588.7174     0.21046E+00 
  63620.9795     0.21741E+00 
  63653.2417     0.22460E+00 
  63685.5038     0.23203E+00 
  63717.7660     0.23970E+00 
  63750.0282     0.24762E+00 
  63782.2903     0.25579E+00 
  63814.5525     0.26421E+00 
  63846.8146     0.27289E+00 
  63879.0768     0.28183E+00 
  63911.3390     0.29103E+00 
  63943.6011     0.30050E+00 
  63975.8633     0.31025E+00 
  64008.1254     0.32026E+00 
  64040.3876     0.33056E+00 
  64072.6498     0.34114E+00 
  64104.9119     0.35200E+00 
  64137.1741     0.36316E+00 
  64169.4362     0.37461E+00 
  64201.6984     0.38636E+00 
  64233.9606     0.39841E+00 
  64266.2227     0.41077E+00 
  64298.4849     0.42344E+00 
  64330.7470     0.43643E+00 
  64363.0092     0.44973E+00 
  64395.2714     0.46336E+00 
  64427.5335     0.47732E+00 
  64459.7957     0.49162E+00 
  64492.0578     0.50625E+00 
  64524.3200     0.52122E+00 
  64556.5822     0.53654E+00 
  64588.8443     0.55221E+00 
  64621.1065     0.56824E+00 
  64653.3686     0.58463E+00 
  64685.6308     0.60139E+00 
  64717.8930     0.61852E+00 
  64750.1551     0.63603E+00 
  64782.4173     0.65392E+00 
  64814.6794     0.67220E+00 
  64846.9416     0.69087E+00 
  64879.2038     0.70994E+00 
  64911.4659     0.72941E+00 
  64943.7281     0.74929E+00 
  64975.9902     0.76959E+00 
  65008.2524     0.79031E+00 
  65040.5146     0.81145E+00 
  65072.7767     0.83302E+00 
  65105.0389     0.85504E+00 
  65137.3010     0.87749E+00 
  65169.5632     0.90040E+00 
  65201.8254     0.92376E+00 
  65234.0875     0.94758E+00 
  65266.3497     0.97187E+00 
  65298.6118     0.99664E+00 
  65330.8740     0.10219E+01 
  65363.1362     0.10476E+01 
  65395.3983     0.10738E+01 
  65427.6605     0.11006E+01 
  65459.9226     0.11278E+01 
  65492.1848     0.11556E+01 
  65524.4470     0.11838E+01 
  65556.7091     0.12126E+01 
  65588.9713     0.12419E+01 
  65621.2334     0.12718E+01 
  65653.4956     0.13022E+01 
  65685.7578     0.13332E+01 
  65718.0199     0.13647E+01 
  65750.2821     0.13968E+01 
  65782.5442     0.14295E+01 
  65814.8064     0.14628E+01 
  65847.0686     0.14967E+01 
  65879.3307     0.15311E+01 
  65911.5929     0.15662E+01 
  65943.8550     0.16019E+01 
  65976.1172     0.16382E+01 
  66008.3794     0.16751E+01 
  66040.6415     0.17127E+01 
  66072.9037     0.17509E+01 
  66105.1658     0.17898E+01 
  66137.4280     0.18293E+01 
  66169.6902     0.18695E+01 
  66201.9523     0.19104E+01 
  66234.2145     0.19520E+01 
  66266.4766     0.19942E+01 
  66298.7388     0.20372E+01 
  66331.0010     0.20809E+01 
  66363.2631     0.21253E+01 
  66395.5253     0.21705E+01 
  66427.7874     0.22164E+01 
  66460.0496     0.22630E+01 
  66492.3118     0.23104E+01 
  66524.5739     0.23585E+01 
  66556.8361     0.24075E+01 
  66589.0982     0.24572E+01 
  66621.3604     0.25077E+01 
  66653.6226     0.25590E+01 
  66685.8847     0.26112E+01 
  66718.1469     0.26641E+01 
  66750.4090     0.27179E+01 
  66782.6712     0.27725E+01 
  66814.9334     0.28280E+01 
  66847.1955     0.28844E+01 
  66879.4577     0.29416E+01 
  66911.7198     0.29997E+01 
  66943.9820     0.30587E+01 
  66976.2442     0.31185E+01 
  67008.5063     0.31794E+01 
  67040.7685     0.32411E+01 
  67073.0306     0.33037E+01 
  67105.2928     0.33673E+01 
  67137.5550     0.34319E+01 
  67169.8171     0.34974E+01 
  67202.0793     0.35639E+01 
  67234.3414     0.36314E+01 
  67266.6036     0.36998E+01 
  67298.8658     0.37693E+01 
  67331.1279     0.38398E+01 
  67363.3901     0.39113E+01 
  67395.6522     0.39839E+01 
  67427.9144     0.40575E+01 
  67460.1766     0.41322E+01 
  67492.4387     0.42079E+01 
  67524.7009     0.42848E+01 
  67556.9630     0.43627E+01 
  67589.2252     0.44417E+01 
  67621.4874     0.45219E+01 
  67653.7495     0.46031E+01 
  67686.0117     0.46856E+01 
  67718.2738     0.47691E+01 
  67750.5360     0.48539E+01 
  67782.7982     0.49398E+01 
  67815.0603     0.50269E+01 
  67847.3225     0.51152E+01 
  67879.5846     0.52047E+01 
  67911.8468     0.52954E+01 
  67944.1090     0.53873E+01 
  67976.3711     0.54805E+01 
  68008.6333     0.55750E+01 
  68040.8954     0.56707E+01 
  68073.1576     0.57677E+01 
  68105.4198     0.58660E+01 
  68137.6819     0.59657E+01 
  68169.9441     0.60666E+01 
  68202.2062     0.61689E+01 
  68234.4684     0.62725E+01 
  68266.7306     0.63774E+01 
  68298.9927     0.64837E+01 
  68331.2549     0.65914E+01 
  68363.5170     0.67005E+01 
  68395.7792     0.68110E+01 
  68428.0414     0.69230E+01 
  68460.3035     0.70363E+01 
  68492.5657     0.71511E+01 
  68524.8278     0.72673E+01 
  68557.0900     0.73851E+01 
  68589.3522     0.75042E+01 
  68621.6143     0.76249E+01 
  68653.8765     0.77471E+01 
  68686.1386     0.78708E+01 
  68718.4008     0.79961E+01 
  68750.6630     0.81228E+01 
  68782.9251     0.82512E+01 
  68815.1873     0.83811E+01 
  68847.4494     0.85125E+01 
  68879.7116     0.86456E+01 
  68911.9738     0.87803E+01 
  68944.2359     0.89166E+01 
  68976.4981     0.90545E+01 
  69008.7602     0.91941E+01 
  69041.0224     0.93353E+01 
  69073.2846     0.94782E+01 
  69105.5467     0.96228E+01 
  69137.8089     0.97690E+01 
  69170.0710     0.99170E+01 
  69202.3332     0.10067E+02 
  69234.5954     0.10218E+02 
  69266.8575     0.10371E+02 
  69299.1197     0.10526E+02 
  69331.3818     0.10683E+02 
  69363.6440     0.10841E+02 
  69395.9062     0.11002E+02 
  69428.1683     0.11164E+02 
  69460.4305     0.11328E+02 
  69492.6926     0.11493E+02 
  69524.9548     0.11661E+02 
  69557.2170     0.11830E+02 
  69589.4791     0.12002E+02 
  69621.7413     0.12175E+02 
  69654.0034     0.12350E+02 
  69686.2656     0.12527E+02 
  69718.5278     0.12706E+02 
  69750.7899     0.12887E+02 
  69783.0521     0.13069E+02 
  69815.3142     0.13254E+02 
  69847.5764     0.13441E+02 
  69879.8386     0.13629E+02 
  69912.1007     0.13820E+02 
  69944.3629     0.14013E+02 
  69976.6250     0.14207E+02 
  70008.8872     0.14404E+02 
  70041.1494     0.14603E+02 
  70073.4115     0.14804E+02 
  70105.6737     0.15006E+02 
  70137.9358     0.15211E+02 
  70170.1980     0.15418E+02 
  70202.4602     0.15627E+02 
  70234.7223     0.15838E+02 
  70266.9845     0.16052E+02 
  70299.2466     0.16267E+02 
  70331.5088     0.16485E+02 
  70363.7710     0.16704E+02 
  70396.0331     0.16926E+02 
  70428.2953     0.17150E+02 
  70460.5574     0.17376E+02 
  70492.8196     0.17605E+02 
  70525.0818     0.17835E+02 
  70557.3439     0.18068E+02 
  70589.6061     0.18303E+02 
  70621.8682     0.18540E+02 
  70654.1304     0.18780E+02 
  70686.3926     0.19021E+02 
  70718.6547     0.19265E+02 
  70750.9169     0.19511E+02 
  70783.1790     0.19760E+02 
  70815.4412     0.20011E+02 
  70847.7034     0.20264E+02 
  70879.9655     0.20519E+02 
  70912.2277     0.20777E+02 
  70944.4898     0.21037E+02 
  70976.7520     0.21299E+02 
  71009.0142     0.21564E+02 
  71041.2763     0.21831E+02 
  71073.5385     0.22100E+02 
  71105.8006     0.22372E+02 
  71138.0628     0.22646E+02 
  71170.3250     0.22922E+02 
  71202.5871     0.23201E+02 
  71234.8493     0.23482E+02 
  71267.1114     0.23766E+02 
  71299.3736     0.24052E+02 
  71331.6358     0.24340E+02 
  71363.8979     0.24631E+02 
  71396.1601     0.24924E+02 
  71428.4222     0.25220E+02 
  71460.6844     0.25518E+02 
  71492.9466     0.25818E+02 
  71525.2087     0.26121E+02 
  71557.4709     0.26427E+02 
  71589.7330     0.26734E+02 
  71621.9952     0.27045E+02 
  71654.2574     0.27357E+02 
  71686.5195     0.27673E+02 
  71718.7817     0.27990E+02 
  71751.0438     0.28311E+02 
  71783.3060     0.28633E+02 
  71815.5682     0.28958E+02 
  71847.8303     0.29286E+02 
  71880.0925     0.29616E+02 
  71912.3546     0.29949E+02 
  71944.6168     0.30284E+02 
  71976.8790     0.30621E+02 
  72009.1411     0.30961E+02 
  72041.4033     0.31304E+02 
  72073.6654     0.31649E+02 
  72105.9276     0.31997E+02 
  72138.1898     0.32347E+02 
  72170.4519     0.32699E+02 
  72202.7141     0.33054E+02 
  72234.9762     0.33412E+02 
  72267.2384     0.33772E+02 
  72299.5006     0.34135E+02 
  72331.7627     0.34500E+02 
  72364.0249     0.34868E+02 
  72396.2870     0.35238E+02 
  72428.5492     0.35610E+02 
  72460.8114     0.35986E+02 
  72493.0735     0.36363E+02 
  72525.3357     0.36744E+02 
  72557.5978     0.37126E+02 
  72589.8600     0.37511E+02 
