  32262.1600     0.53448E+00 
  32294.4222     0.54086E+00 
  32326.6843     0.54730E+00 
  32358.9465     0.55379E+00 
  32391.2086     0.56033E+00 
  32423.4708     0.56692E+00 
  32455.7330     0.57356E+00 
  32487.9951     0.58026E+00 
  32520.2573     0.58700E+00 
  32552.5194     0.59380E+00 
  32584.7816     0.60065E+00 
  32617.0438     0.60755E+00 
  32649.3059     0.61450E+00 
  32681.5681     0.62151E+00 
  32713.8302     0.62856E+00 
  32746.0924     0.63567E+00 
  32778.3546     0.64282E+00 
  32810.6167     0.65003E+00 
  32842.8789     0.65729E+00 
  32875.1410     0.66460E+00 
  32907.4032     0.67197E+00 
  32939.6654     0.67938E+00 
  32971.9275     0.68685E+00 
  33004.1897     0.69436E+00 
  33036.4518     0.70193E+00 
  33068.7140     0.70955E+00 
  33100.9762     0.71721E+00 
  33133.2383     0.72493E+00 
  33165.5005     0.73270E+00 
  33197.7626     0.74052E+00 
  33230.0248     0.74839E+00 
  33262.2870     0.75631E+00 
  33294.5491     0.76428E+00 
  33326.8113     0.77230E+00 
  33359.0734     0.78037E+00 
  33391.3356     0.78849E+00 
  33423.5978     0.79666E+00 
  33455.8599     0.80487E+00 
  33488.1221     0.81314E+00 
  33520.3842     0.82146E+00 
  33552.6464     0.82982E+00 
  33584.9086     0.83823E+00 
  33617.1707     0.84669E+00 
  33649.4329     0.85520E+00 
  33681.6950     0.86376E+00 
  33713.9572     0.87236E+00 
  33746.2194     0.88102E+00 
  33778.4815     0.88971E+00 
  33810.7437     0.89846E+00 
  33843.0058     0.90725E+00 
  33875.2680     0.91609E+00 
  33907.5302     0.92497E+00 
  33939.7923     0.93390E+00 
  33972.0545     0.94288E+00 
  34004.3166     0.95190E+00 
  34036.5788     0.96097E+00 
  34068.8410     0.97008E+00 
  34101.1031     0.97923E+00 
  34133.3653     0.98843E+00 
  34165.6274     0.99768E+00 
  34197.8896     0.10070E+01 
  34230.1518     0.10163E+01 
  34262.4139     0.10257E+01 
  34294.6761     0.10351E+01 
  34326.9382     0.10445E+01 
  34359.2004     0.10540E+01 
  34391.4626     0.10636E+01 
  34423.7247     0.10731E+01 
  34455.9869     0.10828E+01 
  34488.2490     0.10924E+01 
  34520.5112     0.11021E+01 
  34552.7734     0.11119E+01 
  34585.0355     0.11216E+01 
  34617.2977     0.11315E+01 
  34649.5598     0.11413E+01 
  34681.8220     0.11512E+01 
  34714.0842     0.11611E+01 
  34746.3463     0.11711E+01 
  34778.6085     0.11811E+01 
  34810.8706     0.11911E+01 
  34843.1328     0.12012E+01 
  34875.3950     0.12113E+01 
  34907.6571     0.12215E+01 
  34939.9193     0.12316E+01 
  34972.1814     0.12418E+01 
  35004.4436     0.12521E+01 
  35036.7058     0.12624E+01 
  35068.9679     0.12727E+01 
  35101.2301     0.12830E+01 
  35133.4922     0.12934E+01 
  35165.7544     0.13038E+01 
  35198.0166     0.13142E+01 
  35230.2787     0.13246E+01 
  35262.5409     0.13351E+01 
  35294.8030     0.13456E+01 
  35327.0652     0.13562E+01 
  35359.3274     0.13667E+01 
  35391.5895     0.13773E+01 
  35423.8517     0.13880E+01 
  35456.1138     0.13986E+01 
  35488.3760     0.14093E+01 
  35520.6382     0.14200E+01 
  35552.9003     0.14307E+01 
  35585.1625     0.14414E+01 
  35617.4246     0.14522E+01 
  35649.6868     0.14630E+01 
  35681.9490     0.14738E+01 
  35714.2111     0.14846E+01 
  35746.4733     0.14954E+01 
  35778.7354     0.15063E+01 
  35810.9976     0.15172E+01 
  35843.2598     0.15281E+01 
  35875.5219     0.15390E+01 
  35907.7841     0.15499E+01 
  35940.0462     0.15608E+01 
  35972.3084     0.15718E+01 
  36004.5706     0.15828E+01 
  36036.8327     0.15938E+01 
  36069.0949     0.16048E+01 
  36101.3570     0.16158E+01 
  36133.6192     0.16268E+01 
  36165.8814     0.16378E+01 
  36198.1435     0.16489E+01 
  36230.4057     0.16600E+01 
  36262.6678     0.16710E+01 
  36294.9300     0.16821E+01 
  36327.1922     0.16932E+01 
  36359.4543     0.17043E+01 
  36391.7165     0.17154E+01 
  36423.9786     0.17265E+01 
  36456.2408     0.17376E+01 
  36488.5030     0.17487E+01 
  36520.7651     0.17598E+01 
  36553.0273     0.17709E+01 
  36585.2894     0.17820E+01 
  36617.5516     0.17931E+01 
  36649.8138     0.18042E+01 
  36682.0759     0.18153E+01 
  36714.3381     0.18264E+01 
  36746.6002     0.18376E+01 
  36778.8624     0.18487E+01 
  36811.1246     0.18598E+01 
  36843.3867     0.18709E+01 
  36875.6489     0.18820E+01 
  36907.9110     0.18930E+01 
  36940.1732     0.19041E+01 
  36972.4354     0.19152E+01 
  37004.6975     0.19263E+01 
  37036.9597     0.19373E+01 
  37069.2218     0.19484E+01 
  37101.4840     0.19594E+01 
  37133.7462     0.19704E+01 
  37166.0083     0.19814E+01 
  37198.2705     0.19924E+01 
  37230.5326     0.20034E+01 
  37262.7948     0.20144E+01 
  37295.0570     0.20254E+01 
  37327.3191     0.20363E+01 
  37359.5813     0.20472E+01 
  37391.8434     0.20581E+01 
  37424.1056     0.20690E+01 
  37456.3678     0.20799E+01 
  37488.6299     0.20907E+01 
  37520.8921     0.21015E+01 
  37553.1542     0.21124E+01 
  37585.4164     0.21231E+01 
  37617.6786     0.21339E+01 
  37649.9407     0.21446E+01 
  37682.2029     0.21553E+01 
  37714.4650     0.21660E+01 
  37746.7272     0.21767E+01 
  37778.9894     0.21873E+01 
  37811.2515     0.21979E+01 
  37843.5137     0.22085E+01 
  37875.7758     0.22191E+01 
  37908.0380     0.22296E+01 
  37940.3002     0.22401E+01 
  37972.5623     0.22505E+01 
  38004.8245     0.22609E+01 
  38037.0866     0.22713E+01 
  38069.3488     0.22817E+01 
  38101.6110     0.22920E+01 
  38133.8731     0.23023E+01 
  38166.1353     0.23126E+01 
  38198.3974     0.23228E+01 
  38230.6596     0.23329E+01 
  38262.9218     0.23431E+01 
  38295.1839     0.23532E+01 
  38327.4461     0.23632E+01 
  38359.7082     0.23733E+01 
  38391.9704     0.23832E+01 
  38424.2326     0.23932E+01 
  38456.4947     0.24031E+01 
  38488.7569     0.24129E+01 
  38521.0190     0.24227E+01 
  38553.2812     0.24325E+01 
  38585.5434     0.24422E+01 
  38617.8055     0.24519E+01 
  38650.0677     0.24615E+01 
  38682.3298     0.24711E+01 
  38714.5920     0.24806E+01 
  38746.8542     0.24901E+01 
  38779.1163     0.24995E+01 
  38811.3785     0.25089E+01 
  38843.6406     0.25182E+01 
  38875.9028     0.25274E+01 
  38908.1650     0.25367E+01 
  38940.4271     0.25458E+01 
  38972.6893     0.25549E+01 
  39004.9514     0.25640E+01 
  39037.2136     0.25730E+01 
  39069.4758     0.25819E+01 
  39101.7379     0.25908E+01 
  39134.0001     0.25997E+01 
  39166.2622     0.26084E+01 
  39198.5244     0.26172E+01 
  39230.7866     0.26258E+01 
  39263.0487     0.26344E+01 
  39295.3109     0.26429E+01 
  39327.5730     0.26514E+01 
  39359.8352     0.26598E+01 
  39392.0974     0.26682E+01 
  39424.3595     0.26765E+01 
  39456.6217     0.26847E+01 
  39488.8838     0.26929E+01 
  39521.1460     0.27009E+01 
  39553.4082     0.27090E+01 
  39585.6703     0.27169E+01 
  39617.9325     0.27248E+01 
  39650.1946     0.27327E+01 
  39682.4568     0.27404E+01 
  39714.7190     0.27481E+01 
  39746.9811     0.27558E+01 
  39779.2433     0.27633E+01 
  39811.5054     0.27708E+01 
  39843.7676     0.27782E+01 
  39876.0298     0.27856E+01 
  39908.2919     0.27929E+01 
  39940.5541     0.28001E+01 
  39972.8162     0.28072E+01 
  40005.0784     0.28142E+01 
  40037.3406     0.28212E+01 
  40069.6027     0.28282E+01 
  40101.8649     0.28350E+01 
  40134.1270     0.28418E+01 
  40166.3892     0.28484E+01 
  40198.6514     0.28551E+01 
  40230.9135     0.28616E+01 
  40263.1757     0.28681E+01 
  40295.4378     0.28744E+01 
  40327.7000     0.28808E+01 
  40359.9622     0.28870E+01 
  40392.2243     0.28931E+01 
  40424.4865     0.28992E+01 
  40456.7486     0.29052E+01 
  40489.0108     0.29111E+01 
  40521.2730     0.29170E+01 
  40553.5351     0.29227E+01 
  40585.7973     0.29284E+01 
  40618.0594     0.29340E+01 
  40650.3216     0.29395E+01 
  40682.5838     0.29450E+01 
  40714.8459     0.29503E+01 
  40747.1081     0.29556E+01 
  40779.3702     0.29608E+01 
  40811.6324     0.29659E+01 
  40843.8946     0.29709E+01 
  40876.1567     0.29758E+01 
  40908.4189     0.29807E+01 
  40940.6810     0.29855E+01 
  40972.9432     0.29902E+01 
  41005.2054     0.29948E+01 
  41037.4675     0.29993E+01 
  41069.7297     0.30037E+01 
  41101.9918     0.30081E+01 
  41134.2540     0.30124E+01 
  41166.5162     0.30165E+01 
  41198.7783     0.30206E+01 
  41231.0405     0.30247E+01 
  41263.3026     0.30286E+01 
  41295.5648     0.30324E+01 
  41327.8270     0.30362E+01 
  41360.0891     0.30398E+01 
  41392.3513     0.30434E+01 
  41424.6134     0.30469E+01 
  41456.8756     0.30503E+01 
  41489.1378     0.30536E+01 
  41521.3999     0.30569E+01 
  41553.6621     0.30600E+01 
  41585.9242     0.30631E+01 
  41618.1864     0.30660E+01 
  41650.4486     0.30689E+01 
  41682.7107     0.30717E+01 
  41714.9729     0.30744E+01 
  41747.2350     0.30770E+01 
  41779.4972     0.30796E+01 
  41811.7594     0.30820E+01 
  41844.0215     0.30844E+01 
  41876.2837     0.30866E+01 
  41908.5458     0.30888E+01 
  41940.8080     0.30909E+01 
  41973.0702     0.30929E+01 
  42005.3323     0.30948E+01 
  42037.5945     0.30966E+01 
  42069.8566     0.30984E+01 
  42102.1188     0.31000E+01 
  42134.3810     0.31016E+01 
  42166.6431     0.31031E+01 
  42198.9053     0.31044E+01 
  42231.1674     0.31057E+01 
  42263.4296     0.31069E+01 
  42295.6918     0.31081E+01 
  42327.9539     0.31091E+01 
  42360.2161     0.31100E+01 
  42392.4782     0.31109E+01 
  42424.7404     0.31117E+01 
  42457.0026     0.31123E+01 
  42489.2647     0.31129E+01 
  42521.5269     0.31134E+01 
  42553.7890     0.31138E+01 
  42586.0512     0.31142E+01 
  42618.3134     0.31144E+01 
  42650.5755     0.31146E+01 
  42682.8377     0.31146E+01 
  42715.0998     0.31146E+01 
  42747.3620     0.31145E+01 
  42779.6242     0.31143E+01 
  42811.8863     0.31140E+01 
  42844.1485     0.31137E+01 
  42876.4106     0.31132E+01 
  42908.6728     0.31127E+01 
  42940.9350     0.31121E+01 
  42973.1971     0.31114E+01 
  43005.4593     0.31106E+01 
  43037.7214     0.31097E+01 
  43069.9836     0.31087E+01 
  43102.2458     0.31077E+01 
  43134.5079     0.31066E+01 
  43166.7701     0.31054E+01 
  43199.0322     0.31041E+01 
  43231.2944     0.31027E+01 
  43263.5566     0.31012E+01 
  43295.8187     0.30997E+01 
  43328.0809     0.30980E+01 
  43360.3430     0.30963E+01 
  43392.6052     0.30945E+01 
  43424.8674     0.30926E+01 
  43457.1295     0.30907E+01 
  43489.3917     0.30886E+01 
  43521.6538     0.30865E+01 
  43553.9160     0.30843E+01 
  43586.1782     0.30820E+01 
  43618.4403     0.30797E+01 
  43650.7025     0.30772E+01 
  43682.9646     0.30747E+01 
  43715.2268     0.30721E+01 
  43747.4890     0.30694E+01 
  43779.7511     0.30667E+01 
  43812.0133     0.30638E+01 
  43844.2754     0.30609E+01 
  43876.5376     0.30579E+01 
  43908.7998     0.30549E+01 
  43941.0619     0.30517E+01 
  43973.3241     0.30485E+01 
  44005.5862     0.30452E+01 
  44037.8484     0.30418E+01 
  44070.1106     0.30384E+01 
  44102.3727     0.30349E+01 
  44134.6349     0.30313E+01 
  44166.8970     0.30276E+01 
  44199.1592     0.30239E+01 
  44231.4214     0.30200E+01 
  44263.6835     0.30161E+01 
  44295.9457     0.30122E+01 
  44328.2078     0.30082E+01 
  44360.4700     0.30040E+01 
  44392.7322     0.29999E+01 
  44424.9943     0.29956E+01 
  44457.2565     0.29913E+01 
  44489.5186     0.29869E+01 
  44521.7808     0.29825E+01 
  44554.0430     0.29779E+01 
  44586.3051     0.29733E+01 
  44618.5673     0.29687E+01 
  44650.8294     0.29640E+01 
  44683.0916     0.29592E+01 
  44715.3538     0.29543E+01 
  44747.6159     0.29494E+01 
  44779.8781     0.29444E+01 
  44812.1402     0.29393E+01 
  44844.4024     0.29342E+01 
  44876.6646     0.29290E+01 
  44908.9267     0.29238E+01 
  44941.1889     0.29185E+01 
  44973.4510     0.29131E+01 
  45005.7132     0.29076E+01 
  45037.9754     0.29021E+01 
  45070.2375     0.28966E+01 
  45102.4997     0.28910E+01 
  45134.7618     0.28853E+01 
  45167.0240     0.28795E+01 
  45199.2862     0.28737E+01 
  45231.5483     0.28679E+01 
  45263.8105     0.28620E+01 
  45296.0726     0.28560E+01 
  45328.3348     0.28500E+01 
  45360.5970     0.28439E+01 
  45392.8591     0.28377E+01 
  45425.1213     0.28315E+01 
  45457.3834     0.28253E+01 
  45489.6456     0.28190E+01 
  45521.9078     0.28126E+01 
  45554.1699     0.28062E+01 
  45586.4321     0.27997E+01 
  45618.6942     0.27932E+01 
  45650.9564     0.27867E+01 
  45683.2186     0.27800E+01 
  45715.4807     0.27734E+01 
  45747.7429     0.27666E+01 
  45780.0050     0.27599E+01 
  45812.2672     0.27530E+01 
  45844.5294     0.27462E+01 
  45876.7915     0.27393E+01 
  45909.0537     0.27323E+01 
  45941.3158     0.27253E+01 
  45973.5780     0.27182E+01 
  46005.8402     0.27111E+01 
  46038.1023     0.27040E+01 
  46070.3645     0.26968E+01 
  46102.6266     0.26895E+01 
  46134.8888     0.26823E+01 
  46167.1510     0.26749E+01 
  46199.4131     0.26676E+01 
  46231.6753     0.26602E+01 
  46263.9374     0.26527E+01 
  46296.1996     0.26452E+01 
  46328.4618     0.26377E+01 
  46360.7239     0.26301E+01 
  46392.9861     0.26225E+01 
  46425.2482     0.26149E+01 
  46457.5104     0.26072E+01 
  46489.7726     0.25994E+01 
  46522.0347     0.25917E+01 
  46554.2969     0.25839E+01 
  46586.5590     0.25761E+01 
  46618.8212     0.25682E+01 
  46651.0834     0.25603E+01 
  46683.3455     0.25523E+01 
  46715.6077     0.25444E+01 
  46747.8698     0.25364E+01 
  46780.1320     0.25283E+01 
  46812.3942     0.25203E+01 
  46844.6563     0.25122E+01 
  46876.9185     0.25040E+01 
  46909.1806     0.24959E+01 
  46941.4428     0.24877E+01 
  46973.7050     0.24795E+01 
  47005.9671     0.24712E+01 
  47038.2293     0.24629E+01 
  47070.4914     0.24546E+01 
  47102.7536     0.24463E+01 
  47135.0158     0.24380E+01 
  47167.2779     0.24296E+01 
  47199.5401     0.24212E+01 
  47231.8022     0.24127E+01 
  47264.0644     0.24043E+01 
  47296.3266     0.23958E+01 
  47328.5887     0.23873E+01 
  47360.8509     0.23787E+01 
  47393.1130     0.23702E+01 
  47425.3752     0.23616E+01 
  47457.6374     0.23530E+01 
  47489.8995     0.23444E+01 
  47522.1617     0.23358E+01 
  47554.4238     0.23271E+01 
  47586.6860     0.23184E+01 
  47618.9482     0.23098E+01 
  47651.2103     0.23010E+01 
  47683.4725     0.22923E+01 
  47715.7346     0.22836E+01 
  47747.9968     0.22748E+01 
  47780.2590     0.22660E+01 
  47812.5211     0.22572E+01 
  47844.7833     0.22484E+01 
  47877.0454     0.22396E+01 
  47909.3076     0.22308E+01 
  47941.5698     0.22219E+01 
  47973.8319     0.22130E+01 
  48006.0941     0.22042E+01 
  48038.3562     0.21953E+01 
  48070.6184     0.21864E+01 
  48102.8806     0.21775E+01 
  48135.1427     0.21685E+01 
  48167.4049     0.21596E+01 
  48199.6670     0.21507E+01 
  48231.9292     0.21417E+01 
  48264.1914     0.21327E+01 
  48296.4535     0.21238E+01 
  48328.7157     0.21148E+01 
  48360.9778     0.21058E+01 
  48393.2400     0.20968E+01 
  48425.5022     0.20878E+01 
  48457.7643     0.20788E+01 
  48490.0265     0.20698E+01 
  48522.2886     0.20608E+01 
  48554.5508     0.20518E+01 
  48586.8130     0.20427E+01 
  48619.0751     0.20337E+01 
  48651.3373     0.20247E+01 
  48683.5994     0.20156E+01 
  48715.8616     0.20066E+01 
  48748.1238     0.19976E+01 
  48780.3859     0.19885E+01 
  48812.6481     0.19795E+01 
  48844.9102     0.19704E+01 
  48877.1724     0.19614E+01 
  48909.4346     0.19523E+01 
  48941.6967     0.19433E+01 
  48973.9589     0.19342E+01 
  49006.2210     0.19252E+01 
  49038.4832     0.19162E+01 
  49070.7454     0.19071E+01 
  49103.0075     0.18981E+01 
  49135.2697     0.18891E+01 
  49167.5318     0.18800E+01 
  49199.7940     0.18710E+01 
  49232.0562     0.18620E+01 
  49264.3183     0.18530E+01 
  49296.5805     0.18440E+01 
  49328.8426     0.18349E+01 
  49361.1048     0.18259E+01 
  49393.3670     0.18169E+01 
  49425.6291     0.18080E+01 
  49457.8913     0.17990E+01 
  49490.1534     0.17900E+01 
  49522.4156     0.17810E+01 
  49554.6778     0.17721E+01 
  49586.9399     0.17631E+01 
  49619.2021     0.17542E+01 
  49651.4642     0.17452E+01 
  49683.7264     0.17363E+01 
  49715.9886     0.17274E+01 
  49748.2507     0.17185E+01 
  49780.5129     0.17096E+01 
  49812.7750     0.17007E+01 
  49845.0372     0.16918E+01 
  49877.2994     0.16830E+01 
  49909.5615     0.16741E+01 
  49941.8237     0.16653E+01 
  49974.0858     0.16564E+01 
  50006.3480     0.16476E+01 
  50038.6102     0.16388E+01 
  50070.8723     0.16300E+01 
  50103.1345     0.16212E+01 
  50135.3966     0.16125E+01 
  50167.6588     0.16037E+01 
  50199.9210     0.15950E+01 
  50232.1831     0.15863E+01 
  50264.4453     0.15776E+01 
  50296.7074     0.15689E+01 
  50328.9696     0.15602E+01 
  50361.2318     0.15515E+01 
  50393.4939     0.15429E+01 
  50425.7561     0.15342E+01 
  50458.0182     0.15256E+01 
  50490.2804     0.15170E+01 
  50522.5426     0.15085E+01 
  50554.8047     0.14999E+01 
  50587.0669     0.14914E+01 
  50619.3290     0.14828E+01 
  50651.5912     0.14743E+01 
  50683.8534     0.14658E+01 
  50716.1155     0.14574E+01 
  50748.3777     0.14489E+01 
  50780.6398     0.14405E+01 
  50812.9020     0.14320E+01 
  50845.1642     0.14236E+01 
  50877.4263     0.14153E+01 
  50909.6885     0.14069E+01 
  50941.9506     0.13986E+01 
  50974.2128     0.13903E+01 
  51006.4750     0.13820E+01 
  51038.7371     0.13737E+01 
  51070.9993     0.13654E+01 
  51103.2614     0.13572E+01 
  51135.5236     0.13490E+01 
  51167.7858     0.13408E+01 
  51200.0479     0.13326E+01 
  51232.3101     0.13245E+01 
  51264.5722     0.13163E+01 
  51296.8344     0.13082E+01 
  51329.0966     0.13002E+01 
  51361.3587     0.12921E+01 
  51393.6209     0.12841E+01 
  51425.8830     0.12761E+01 
  51458.1452     0.12681E+01 
  51490.4074     0.12601E+01 
  51522.6695     0.12522E+01 
  51554.9317     0.12442E+01 
  51587.1938     0.12363E+01 
  51619.4560     0.12285E+01 
  51651.7182     0.12206E+01 
  51683.9803     0.12128E+01 
  51716.2425     0.12050E+01 
  51748.5046     0.11972E+01 
  51780.7668     0.11895E+01 
  51813.0290     0.11818E+01 
  51845.2911     0.11741E+01 
  51877.5533     0.11664E+01 
  51909.8154     0.11587E+01 
  51942.0776     0.11511E+01 
  51974.3398     0.11435E+01 
  52006.6019     0.11359E+01 
  52038.8641     0.11284E+01 
  52071.1262     0.11209E+01 
  52103.3884     0.11134E+01 
  52135.6506     0.11059E+01 
  52167.9127     0.10984E+01 
  52200.1749     0.10910E+01 
  52232.4370     0.10836E+01 
  52264.6992     0.10763E+01 
  52296.9614     0.10689E+01 
  52329.2235     0.10616E+01 
  52361.4857     0.10543E+01 
  52393.7478     0.10471E+01 
  52426.0100     0.10399E+01 
  52458.2722     0.10327E+01 
  52490.5343     0.10255E+01 
  52522.7965     0.10183E+01 
  52555.0586     0.10112E+01 
  52587.3208     0.10041E+01 
  52619.5830     0.99704E+00 
  52651.8451     0.99000E+00 
  52684.1073     0.98299E+00 
  52716.3694     0.97600E+00 
  52748.6316     0.96905E+00 
  52780.8938     0.96212E+00 
  52813.1559     0.95522E+00 
  52845.4181     0.94834E+00 
  52877.6802     0.94150E+00 
  52909.9424     0.93468E+00 
  52942.2046     0.92789E+00 
  52974.4667     0.92113E+00 
  53006.7289     0.91440E+00 
  53038.9910     0.90769E+00 
  53071.2532     0.90102E+00 
  53103.5154     0.89437E+00 
  53135.7775     0.88775E+00 
  53168.0397     0.88116E+00 
  53200.3018     0.87459E+00 
  53232.5640     0.86806E+00 
  53264.8262     0.86155E+00 
  53297.0883     0.85508E+00 
  53329.3505     0.84863E+00 
  53361.6126     0.84221E+00 
  53393.8748     0.83581E+00 
  53426.1370     0.82945E+00 
  53458.3991     0.82311E+00 
  53490.6613     0.81681E+00 
  53522.9234     0.81053E+00 
  53555.1856     0.80428E+00 
  53587.4478     0.79806E+00 
  53619.7099     0.79187E+00 
  53651.9721     0.78571E+00 
  53684.2342     0.77957E+00 
  53716.4964     0.77347E+00 
  53748.7586     0.76739E+00 
  53781.0207     0.76134E+00 
  53813.2829     0.75532E+00 
  53845.5450     0.74933E+00 
  53877.8072     0.74337E+00 
  53910.0694     0.73744E+00 
  53942.3315     0.73153E+00 
  53974.5937     0.72565E+00 
  54006.8558     0.71981E+00 
  54039.1180     0.71399E+00 
  54071.3802     0.70820E+00 
  54103.6423     0.70244E+00 
  54135.9045     0.69670E+00 
  54168.1666     0.69100E+00 
  54200.4288     0.68532E+00 
  54232.6910     0.67968E+00 
  54264.9531     0.67406E+00 
  54297.2153     0.66847E+00 
  54329.4774     0.66290E+00 
  54361.7396     0.65737E+00 
  54394.0018     0.65187E+00 
  54426.2639     0.64639E+00 
  54458.5261     0.64094E+00 
  54490.7882     0.63552E+00 
  54523.0504     0.63013E+00 
  54555.3126     0.62477E+00 
  54587.5747     0.61943E+00 
  54619.8369     0.61412E+00 
  54652.0990     0.60885E+00 
  54684.3612     0.60359E+00 
  54716.6234     0.59837E+00 
  54748.8855     0.59318E+00 
  54781.1477     0.58801E+00 
  54813.4098     0.58287E+00 
  54845.6720     0.57776E+00 
  54877.9342     0.57268E+00 
  54910.1963     0.56762E+00 
  54942.4585     0.56260E+00 
  54974.7206     0.55760E+00 
  55006.9828     0.55262E+00 
  55039.2450     0.54768E+00 
  55071.5071     0.54276E+00 
  55103.7693     0.53787E+00 
  55136.0314     0.53301E+00 
  55168.2936     0.52817E+00 
  55200.5558     0.52337E+00 
  55232.8179     0.51859E+00 
  55265.0801     0.51383E+00 
  55297.3422     0.50911E+00 
  55329.6044     0.50441E+00 
  55361.8666     0.49974E+00 
  55394.1287     0.49509E+00 
  55426.3909     0.49048E+00 
  55458.6530     0.48588E+00 
  55490.9152     0.48132E+00 
  55523.1774     0.47678E+00 
  55555.4395     0.47227E+00 
  55587.7017     0.46779E+00 
  55619.9638     0.46333E+00 
  55652.2260     0.45890E+00 
  55684.4882     0.45449E+00 
  55716.7503     0.45011E+00 
  55749.0125     0.44576E+00 
  55781.2746     0.44144E+00 
  55813.5368     0.43714E+00 
  55845.7990     0.43286E+00 
  55878.0611     0.42861E+00 
  55910.3233     0.42439E+00 
  55942.5854     0.42019E+00 
  55974.8476     0.41602E+00 
  56007.1098     0.41188E+00 
  56039.3719     0.40776E+00 
  56071.6341     0.40366E+00 
  56103.8962     0.39960E+00 
  56136.1584     0.39555E+00 
  56168.4206     0.39153E+00 
  56200.6827     0.38754E+00 
  56232.9449     0.38357E+00 
  56265.2070     0.37963E+00 
  56297.4692     0.37571E+00 
  56329.7314     0.37182E+00 
  56361.9935     0.36795E+00 
  56394.2557     0.36411E+00 
  56426.5178     0.36029E+00 
  56458.7800     0.35650E+00 
  56491.0422     0.35273E+00 
  56523.3043     0.34898E+00 
  56555.5665     0.34526E+00 
  56587.8286     0.34157E+00 
  56620.0908     0.33789E+00 
  56652.3530     0.33425E+00 
  56684.6151     0.33062E+00 
  56716.8773     0.32702E+00 
  56749.1394     0.32345E+00 
  56781.4016     0.31989E+00 
  56813.6638     0.31637E+00 
  56845.9259     0.31286E+00 
  56878.1881     0.30938E+00 
  56910.4502     0.30592E+00 
  56942.7124     0.30249E+00 
  56974.9746     0.29907E+00 
  57007.2367     0.29569E+00 
  57039.4989     0.29232E+00 
  57071.7610     0.28898E+00 
  57104.0232     0.28566E+00 
  57136.2854     0.28236E+00 
  57168.5475     0.27909E+00 
  57200.8097     0.27584E+00 
  57233.0718     0.27261E+00 
  57265.3340     0.26941E+00 
  57297.5962     0.26622E+00 
  57329.8583     0.26306E+00 
  57362.1205     0.25993E+00 
  57394.3826     0.25681E+00 
  57426.6448     0.25372E+00 
  57458.9070     0.25064E+00 
  57491.1691     0.24759E+00 
  57523.4313     0.24457E+00 
  57555.6934     0.24156E+00 
  57587.9556     0.23858E+00 
  57620.2178     0.23561E+00 
  57652.4799     0.23267E+00 
  57684.7421     0.22975E+00 
  57717.0042     0.22686E+00 
  57749.2664     0.22398E+00 
  57781.5286     0.22112E+00 
  57813.7907     0.21829E+00 
  57846.0529     0.21548E+00 
  57878.3150     0.21269E+00 
  57910.5772     0.20992E+00 
  57942.8394     0.20717E+00 
  57975.1015     0.20444E+00 
  58007.3637     0.20173E+00 
  58039.6258     0.19904E+00 
  58071.8880     0.19637E+00 
  58104.1502     0.19373E+00 
  58136.4123     0.19110E+00 
  58168.6745     0.18850E+00 
  58200.9366     0.18591E+00 
  58233.1988     0.18334E+00 
  58265.4610     0.18080E+00 
  58297.7231     0.17828E+00 
  58329.9853     0.17577E+00 
  58362.2474     0.17329E+00 
  58394.5096     0.17082E+00 
  58426.7718     0.16838E+00 
  58459.0339     0.16595E+00 
  58491.2961     0.16354E+00 
  58523.5582     0.16116E+00 
  58555.8204     0.15879E+00 
  58588.0826     0.15645E+00 
  58620.3447     0.15412E+00 
  58652.6069     0.15181E+00 
  58684.8690     0.14952E+00 
  58717.1312     0.14725E+00 
  58749.3934     0.14500E+00 
  58781.6555     0.14277E+00 
  58813.9177     0.14056E+00 
  58846.1798     0.13837E+00 
  58878.4420     0.13619E+00 
  58910.7042     0.13404E+00 
  58942.9663     0.13190E+00 
  58975.2285     0.12978E+00 
  59007.4906     0.12768E+00 
  59039.7528     0.12560E+00 
  59072.0150     0.12354E+00 
  59104.2771     0.12150E+00 
  59136.5393     0.11947E+00 
  59168.8014     0.11747E+00 
  59201.0636     0.11548E+00 
  59233.3258     0.11351E+00 
  59265.5879     0.11156E+00 
  59297.8501     0.10963E+00 
  59330.1122     0.10771E+00 
  59362.3744     0.10582E+00 
  59394.6366     0.10394E+00 
  59426.8987     0.10208E+00 
  59459.1609     0.10024E+00 
  59491.4230     0.98412E-01 
  59523.6852     0.96606E-01 
  59555.9474     0.94818E-01 
  59588.2095     0.93049E-01 
  59620.4717     0.91297E-01 
  59652.7338     0.89562E-01 
  59684.9960     0.87846E-01 
  59717.2582     0.86148E-01 
  59749.5203     0.84467E-01 
  59781.7825     0.82804E-01 
  59814.0446     0.81159E-01 
  59846.3068     0.79531E-01 
  59878.5690     0.77922E-01 
  59910.8311     0.76330E-01 
  59943.0933     0.74755E-01 
  59975.3554     0.73198E-01 
  60007.6176     0.71659E-01 
  60039.8798     0.70138E-01 
  60072.1419     0.68634E-01 
  60104.4041     0.67147E-01 
  60136.6662     0.65678E-01 
  60168.9284     0.64227E-01 
  60201.1906     0.62793E-01 
  60233.4527     0.61377E-01 
  60265.7149     0.59979E-01 
  60297.9770     0.58598E-01 
  60330.2392     0.57234E-01 
  60362.5014     0.55889E-01 
  60394.7635     0.54560E-01 
  60427.0257     0.53250E-01 
  60459.2878     0.51957E-01 
  60491.5500     0.50681E-01 
  60523.8122     0.49423E-01 
  60556.0743     0.48183E-01 
  60588.3365     0.46961E-01 
  60620.5986     0.45756E-01 
  60652.8608     0.44569E-01 
  60685.1230     0.43399E-01 
  60717.3851     0.42248E-01 
  60749.6473     0.41114E-01 
  60781.9094     0.39998E-01 
  60814.1716     0.38900E-01 
  60846.4338     0.37820E-01 
  60878.6959     0.36758E-01 
  60910.9581     0.35714E-01 
  60943.2202     0.34687E-01 
  60975.4824     0.33679E-01 
  61007.7446     0.32689E-01 
  61040.0067     0.31718E-01 
  61072.2689     0.30764E-01 
  61104.5310     0.29829E-01 
  61136.7932     0.28912E-01 
  61169.0554     0.28014E-01 
  61201.3175     0.27134E-01 
  61233.5797     0.26273E-01 
  61265.8418     0.25430E-01 
  61298.1040     0.24607E-01 
  61330.3662     0.23802E-01 
  61362.6283     0.23016E-01 
  61394.8905     0.22249E-01 
  61427.1526     0.21501E-01 
  61459.4148     0.20772E-01 
  61491.6770     0.20063E-01 
  61523.9391     0.19373E-01 
  61556.2013     0.18702E-01 
  61588.4634     0.18051E-01 
  61620.7256     0.17420E-01 
  61652.9878     0.16809E-01 
  61685.2499     0.16217E-01 
  61717.5121     0.15646E-01 
  61749.7742     0.15095E-01 
  61782.0364     0.14564E-01 
  61814.2986     0.14054E-01 
  61846.5607     0.13565E-01 
  61878.8229     0.13096E-01 
  61911.0850     0.12648E-01 
  61943.3472     0.12222E-01 
  61975.6094     0.11816E-01 
  62007.8715     0.11432E-01 
  62040.1337     0.11070E-01 
  62072.3958     0.10729E-01 
  62104.6580     0.10411E-01 
  62136.9202     0.10114E-01 
  62169.1823     0.98404E-02 
  62201.4445     0.95888E-02 
  62233.7066     0.93600E-02 
  62265.9688     0.91541E-02 
  62298.2310     0.89714E-02 
  62330.4931     0.88120E-02 
  62362.7553     0.86763E-02 
  62395.0174     0.85644E-02 
  62427.2796     0.84765E-02 
  62459.5418     0.84129E-02 
  62491.8039     0.83739E-02 
  62524.0661     0.83597E-02 
  62556.3282     0.83705E-02 
  62588.5904     0.84067E-02 
  62620.8526     0.84684E-02 
  62653.1147     0.85560E-02 
  62685.3769     0.86698E-02 
  62717.6390     0.88101E-02 
  62749.9012     0.89770E-02 
  62782.1634     0.91711E-02 
  62814.4255     0.93925E-02 
  62846.6877     0.96415E-02 
  62878.9498     0.99186E-02 
  62911.2120     0.10224E-01 
  62943.4742     0.10558E-01 
  62975.7363     0.10921E-01 
  63007.9985     0.11314E-01 
  63040.2606     0.11736E-01 
  63072.5228     0.12189E-01 
  63104.7850     0.12672E-01 
  63137.0471     0.13185E-01 
  63169.3093     0.13731E-01 
  63201.5714     0.14307E-01 
  63233.8336     0.14916E-01 
  63266.0958     0.15558E-01 
  63298.3579     0.16232E-01 
  63330.6201     0.16940E-01 
  63362.8822     0.17682E-01 
  63395.1444     0.18458E-01 
  63427.4066     0.19269E-01 
  63459.6687     0.20115E-01 
  63491.9309     0.20997E-01 
  63524.1930     0.21916E-01 
  63556.4552     0.22871E-01 
  63588.7174     0.23863E-01 
  63620.9795     0.24893E-01 
  63653.2417     0.25961E-01 
  63685.5038     0.27069E-01 
  63717.7660     0.28216E-01 
  63750.0282     0.29403E-01 
  63782.2903     0.30630E-01 
  63814.5525     0.31899E-01 
  63846.8146     0.33210E-01 
  63879.0768     0.34563E-01 
  63911.3390     0.35959E-01 
  63943.6011     0.37399E-01 
  63975.8633     0.38883E-01 
  64008.1254     0.40412E-01 
  64040.3876     0.41987E-01 
  64072.6498     0.43609E-01 
  64104.9119     0.45277E-01 
  64137.1741     0.46994E-01 
  64169.4362     0.48759E-01 
  64201.6984     0.50573E-01 
  64233.9606     0.52437E-01 
  64266.2227     0.54352E-01 
  64298.4849     0.56319E-01 
  64330.7470     0.58338E-01 
  64363.0092     0.60411E-01 
  64395.2714     0.62537E-01 
  64427.5335     0.64719E-01 
  64459.7957     0.66956E-01 
  64492.0578     0.69250E-01 
  64524.3200     0.71601E-01 
  64556.5822     0.74011E-01 
  64588.8443     0.76480E-01 
  64621.1065     0.79009E-01 
  64653.3686     0.81600E-01 
  64685.6308     0.84253E-01 
  64717.8930     0.86969E-01 
  64750.1551     0.89749E-01 
  64782.4173     0.92594E-01 
  64814.6794     0.95506E-01 
  64846.9416     0.98485E-01 
  64879.2038     0.10153E+00 
  64911.4659     0.10465E+00 
  64943.7281     0.10784E+00 
  64975.9902     0.11109E+00 
  65008.2524     0.11443E+00 
  65040.5146     0.11783E+00 
  65072.7767     0.12131E+00 
  65105.0389     0.12487E+00 
  65137.3010     0.12850E+00 
  65169.5632     0.13222E+00 
  65201.8254     0.13601E+00 
  65234.0875     0.13989E+00 
  65266.3497     0.14384E+00 
  65298.6118     0.14788E+00 
  65330.8740     0.15201E+00 
  65363.1362     0.15622E+00 
  65395.3983     0.16052E+00 
  65427.6605     0.16491E+00 
  65459.9226     0.16939E+00 
  65492.1848     0.17397E+00 
  65524.4470     0.17863E+00 
  65556.7091     0.18340E+00 
  65588.9713     0.18826E+00 
  65621.2334     0.19321E+00 
  65653.4956     0.19827E+00 
  65685.7578     0.20343E+00 
  65718.0199     0.20869E+00 
  65750.2821     0.21405E+00 
  65782.5442     0.21952E+00 
  65814.8064     0.22510E+00 
  65847.0686     0.23079E+00 
  65879.3307     0.23659E+00 
  65911.5929     0.24250E+00 
  65943.8550     0.24853E+00 
  65976.1172     0.25467E+00 
  66008.3794     0.26094E+00 
  66040.6415     0.26732E+00 
  66072.9037     0.27382E+00 
  66105.1658     0.28045E+00 
  66137.4280     0.28720E+00 
  66169.6902     0.29408E+00 
  66201.9523     0.30109E+00 
  66234.2145     0.30824E+00 
  66266.4766     0.31551E+00 
  66298.7388     0.32292E+00 
  66331.0010     0.33047E+00 
  66363.2631     0.33816E+00 
  66395.5253     0.34599E+00 
  66427.7874     0.35397E+00 
  66460.0496     0.36209E+00 
  66492.3118     0.37036E+00 
  66524.5739     0.37878E+00 
  66556.8361     0.38735E+00 
  66589.0982     0.39608E+00 
  66621.3604     0.40496E+00 
  66653.6226     0.41401E+00 
  66685.8847     0.42322E+00 
  66718.1469     0.43259E+00 
  66750.4090     0.44213E+00 
  66782.6712     0.45183E+00 
  66814.9334     0.46171E+00 
  66847.1955     0.47177E+00 
  66879.4577     0.48200E+00 
  66911.7198     0.49241E+00 
  66943.9820     0.50300E+00 
  66976.2442     0.51378E+00 
  67008.5063     0.52474E+00 
  67040.7685     0.53590E+00 
  67073.0306     0.54724E+00 
  67105.2928     0.55879E+00 
  67137.5550     0.57053E+00 
  67169.8171     0.58247E+00 
  67202.0793     0.59461E+00 
  67234.3414     0.60697E+00 
  67266.6036     0.61953E+00 
  67298.8658     0.63230E+00 
  67331.1279     0.64529E+00 
  67363.3901     0.65850E+00 
  67395.6522     0.67192E+00 
  67427.9144     0.68558E+00 
  67460.1766     0.69946E+00 
  67492.4387     0.71357E+00 
  67524.7009     0.72791E+00 
  67556.9630     0.74249E+00 
  67589.2252     0.75731E+00 
  67621.4874     0.77238E+00 
  67653.7495     0.78769E+00 
  67686.0117     0.80325E+00 
  67718.2738     0.81906E+00 
  67750.5360     0.83513E+00 
  67782.7982     0.85146E+00 
  67815.0603     0.86805E+00 
  67847.3225     0.88491E+00 
  67879.5846     0.90204E+00 
  67911.8468     0.91944E+00 
  67944.1090     0.93712E+00 
  67976.3711     0.95508E+00 
  68008.6333     0.97332E+00 
  68040.8954     0.99185E+00 
  68073.1576     0.10107E+01 
  68105.4198     0.10298E+01 
  68137.6819     0.10492E+01 
  68169.9441     0.10689E+01 
  68202.2062     0.10889E+01 
  68234.4684     0.11093E+01 
  68266.7306     0.11299E+01 
  68298.9927     0.11509E+01 
  68331.2549     0.11722E+01 
  68363.5170     0.11938E+01 
  68395.7792     0.12157E+01 
  68428.0414     0.12380E+01 
  68460.3035     0.12606E+01 
  68492.5657     0.12835E+01 
  68524.8278     0.13068E+01 
  68557.0900     0.13305E+01 
  68589.3522     0.13545E+01 
  68621.6143     0.13788E+01 
  68653.8765     0.14035E+01 
  68686.1386     0.14286E+01 
  68718.4008     0.14540E+01 
  68750.6630     0.14799E+01 
  68782.9251     0.15061E+01 
  68815.1873     0.15326E+01 
  68847.4494     0.15596E+01 
  68879.7116     0.15870E+01 
  68911.9738     0.16147E+01 
  68944.2359     0.16428E+01 
  68976.4981     0.16714E+01 
  69008.7602     0.17004E+01 
  69041.0224     0.17297E+01 
  69073.2846     0.17595E+01 
  69105.5467     0.17897E+01 
  69137.8089     0.18203E+01 
  69170.0710     0.18514E+01 
  69202.3332     0.18829E+01 
  69234.5954     0.19148E+01 
  69266.8575     0.19472E+01 
  69299.1197     0.19800E+01 
  69331.3818     0.20133E+01 
  69363.6440     0.20470E+01 
  69395.9062     0.20812E+01 
  69428.1683     0.21159E+01 
  69460.4305     0.21510E+01 
  69492.6926     0.21866E+01 
  69524.9548     0.22227E+01 
  69557.2170     0.22593E+01 
  69589.4791     0.22963E+01 
  69621.7413     0.23339E+01 
  69654.0034     0.23719E+01 
  69686.2656     0.24105E+01 
  69718.5278     0.24495E+01 
  69750.7899     0.24891E+01 
  69783.0521     0.25292E+01 
  69815.3142     0.25698E+01 
  69847.5764     0.26109E+01 
  69879.8386     0.26526E+01 
  69912.1007     0.26947E+01 
  69944.3629     0.27375E+01 
  69976.6250     0.27808E+01 
  70008.8872     0.28246E+01 
  70041.1494     0.28690E+01 
  70073.4115     0.29139E+01 
  70105.6737     0.29594E+01 
  70137.9358     0.30055E+01 
  70170.1980     0.30521E+01 
  70202.4602     0.30993E+01 
  70234.7223     0.31471E+01 
  70266.9845     0.31955E+01 
  70299.2466     0.32445E+01 
  70331.5088     0.32941E+01 
  70363.7710     0.33443E+01 
  70396.0331     0.33950E+01 
  70428.2953     0.34464E+01 
  70460.5574     0.34984E+01 
  70492.8196     0.35511E+01 
  70525.0818     0.36043E+01 
  70557.3439     0.36582E+01 
  70589.6061     0.37127E+01 
  70621.8682     0.37678E+01 
  70654.1304     0.38236E+01 
  70686.3926     0.38800E+01 
  70718.6547     0.39371E+01 
  70750.9169     0.39949E+01 
  70783.1790     0.40532E+01 
  70815.4412     0.41123E+01 
  70847.7034     0.41720E+01 
  70879.9655     0.42324E+01 
  70912.2277     0.42935E+01 
  70944.4898     0.43553E+01 
  70976.7520     0.44177E+01 
  71009.0142     0.44808E+01 
  71041.2763     0.45447E+01 
  71073.5385     0.46092E+01 
  71105.8006     0.46744E+01 
  71138.0628     0.47404E+01 
  71170.3250     0.48070E+01 
  71202.5871     0.48744E+01 
  71234.8493     0.49424E+01 
  71267.1114     0.50112E+01 
  71299.3736     0.50808E+01 
  71331.6358     0.51510E+01 
  71363.8979     0.52220E+01 
  71396.1601     0.52938E+01 
  71428.4222     0.53662E+01 
  71460.6844     0.54394E+01 
  71492.9466     0.55134E+01 
  71525.2087     0.55881E+01 
  71557.4709     0.56636E+01 
  71589.7330     0.57398E+01 
  71621.9952     0.58169E+01 
  71654.2574     0.58946E+01 
  71686.5195     0.59732E+01 
  71718.7817     0.60525E+01 
  71751.0438     0.61326E+01 
  71783.3060     0.62134E+01 
  71815.5682     0.62951E+01 
  71847.8303     0.63775E+01 
  71880.0925     0.64607E+01 
  71912.3546     0.65448E+01 
  71944.6168     0.66296E+01 
  71976.8790     0.67152E+01 
  72009.1411     0.68016E+01 
  72041.4033     0.68888E+01 
  72073.6654     0.69769E+01 
  72105.9276     0.70657E+01 
  72138.1898     0.71554E+01 
  72170.4519     0.72458E+01 
  72202.7141     0.73371E+01 
  72234.9762     0.74292E+01 
  72267.2384     0.75221E+01 
  72299.5006     0.76158E+01 
  72331.7627     0.77104E+01 
  72364.0249     0.78058E+01 
  72396.2870     0.79020E+01 
  72428.5492     0.79991E+01 
  72460.8114     0.80970E+01 
  72493.0735     0.81957E+01 
  72525.3357     0.82953E+01 
  72557.5978     0.83957E+01 
  72589.8600     0.84969E+01 
