  32262.1600     0.96912E+01 
  32294.4222     0.98178E+01 
  32326.6843     0.99455E+01 
  32358.9465     0.10074E+02 
  32391.2086     0.10205E+02 
  32423.4708     0.10336E+02 
  32455.7330     0.10468E+02 
  32487.9951     0.10602E+02 
  32520.2573     0.10736E+02 
  32552.5194     0.10872E+02 
  32584.7816     0.11009E+02 
  32617.0438     0.11148E+02 
  32649.3059     0.11287E+02 
  32681.5681     0.11428E+02 
  32713.8302     0.11569E+02 
  32746.0924     0.11712E+02 
  32778.3546     0.11857E+02 
  32810.6167     0.12002E+02 
  32842.8789     0.12148E+02 
  32875.1410     0.12296E+02 
  32907.4032     0.12445E+02 
  32939.6654     0.12595E+02 
  32971.9275     0.12746E+02 
  33004.1897     0.12898E+02 
  33036.4518     0.13052E+02 
  33068.7140     0.13206E+02 
  33100.9762     0.13362E+02 
  33133.2383     0.13519E+02 
  33165.5005     0.13678E+02 
  33197.7626     0.13837E+02 
  33230.0248     0.13997E+02 
  33262.2870     0.14159E+02 
  33294.5491     0.14322E+02 
  33326.8113     0.14486E+02 
  33359.0734     0.14651E+02 
  33391.3356     0.14817E+02 
  33423.5978     0.14985E+02 
  33455.8599     0.15154E+02 
  33488.1221     0.15323E+02 
  33520.3842     0.15494E+02 
  33552.6464     0.15666E+02 
  33584.9086     0.15840E+02 
  33617.1707     0.16014E+02 
  33649.4329     0.16189E+02 
  33681.6950     0.16366E+02 
  33713.9572     0.16544E+02 
  33746.2194     0.16722E+02 
  33778.4815     0.16902E+02 
  33810.7437     0.17083E+02 
  33843.0058     0.17266E+02 
  33875.2680     0.17449E+02 
  33907.5302     0.17633E+02 
  33939.7923     0.17818E+02 
  33972.0545     0.18005E+02 
  34004.3166     0.18192E+02 
  34036.5788     0.18381E+02 
  34068.8410     0.18571E+02 
  34101.1031     0.18762E+02 
  34133.3653     0.18953E+02 
  34165.6274     0.19146E+02 
  34197.8896     0.19340E+02 
  34230.1518     0.19535E+02 
  34262.4139     0.19731E+02 
  34294.6761     0.19928E+02 
  34326.9382     0.20126E+02 
  34359.2004     0.20324E+02 
  34391.4626     0.20524E+02 
  34423.7247     0.20725E+02 
  34455.9869     0.20927E+02 
  34488.2490     0.21130E+02 
  34520.5112     0.21334E+02 
  34552.7734     0.21538E+02 
  34585.0355     0.21744E+02 
  34617.2977     0.21950E+02 
  34649.5598     0.22158E+02 
  34681.8220     0.22366E+02 
  34714.0842     0.22575E+02 
  34746.3463     0.22786E+02 
  34778.6085     0.22997E+02 
  34810.8706     0.23208E+02 
  34843.1328     0.23421E+02 
  34875.3950     0.23635E+02 
  34907.6571     0.23849E+02 
  34939.9193     0.24064E+02 
  34972.1814     0.24280E+02 
  35004.4436     0.24497E+02 
  35036.7058     0.24715E+02 
  35068.9679     0.24933E+02 
  35101.2301     0.25152E+02 
  35133.4922     0.25372E+02 
  35165.7544     0.25593E+02 
  35198.0166     0.25814E+02 
  35230.2787     0.26036E+02 
  35262.5409     0.26259E+02 
  35294.8030     0.26482E+02 
  35327.0652     0.26706E+02 
  35359.3274     0.26931E+02 
  35391.5895     0.27157E+02 
  35423.8517     0.27383E+02 
  35456.1138     0.27609E+02 
  35488.3760     0.27837E+02 
  35520.6382     0.28064E+02 
  35552.9003     0.28293E+02 
  35585.1625     0.28522E+02 
  35617.4246     0.28751E+02 
  35649.6868     0.28981E+02 
  35681.9490     0.29212E+02 
  35714.2111     0.29443E+02 
  35746.4733     0.29674E+02 
  35778.7354     0.29906E+02 
  35810.9976     0.30139E+02 
  35843.2598     0.30372E+02 
  35875.5219     0.30605E+02 
  35907.7841     0.30839E+02 
  35940.0462     0.31073E+02 
  35972.3084     0.31308E+02 
  36004.5706     0.31542E+02 
  36036.8327     0.31778E+02 
  36069.0949     0.32013E+02 
  36101.3570     0.32249E+02 
  36133.6192     0.32485E+02 
  36165.8814     0.32721E+02 
  36198.1435     0.32958E+02 
  36230.4057     0.33195E+02 
  36262.6678     0.33432E+02 
  36294.9300     0.33669E+02 
  36327.1922     0.33907E+02 
  36359.4543     0.34145E+02 
  36391.7165     0.34382E+02 
  36423.9786     0.34620E+02 
  36456.2408     0.34859E+02 
  36488.5030     0.35097E+02 
  36520.7651     0.35335E+02 
  36553.0273     0.35573E+02 
  36585.2894     0.35812E+02 
  36617.5516     0.36050E+02 
  36649.8138     0.36289E+02 
  36682.0759     0.36527E+02 
  36714.3381     0.36765E+02 
  36746.6002     0.37004E+02 
  36778.8624     0.37242E+02 
  36811.1246     0.37480E+02 
  36843.3867     0.37718E+02 
  36875.6489     0.37956E+02 
  36907.9110     0.38194E+02 
  36940.1732     0.38432E+02 
  36972.4354     0.38670E+02 
  37004.6975     0.38907E+02 
  37036.9597     0.39144E+02 
  37069.2218     0.39381E+02 
  37101.4840     0.39618E+02 
  37133.7462     0.39854E+02 
  37166.0083     0.40090E+02 
  37198.2705     0.40326E+02 
  37230.5326     0.40561E+02 
  37262.7948     0.40797E+02 
  37295.0570     0.41031E+02 
  37327.3191     0.41266E+02 
  37359.5813     0.41500E+02 
  37391.8434     0.41733E+02 
  37424.1056     0.41966E+02 
  37456.3678     0.42199E+02 
  37488.6299     0.42431E+02 
  37520.8921     0.42663E+02 
  37553.1542     0.42894E+02 
  37585.4164     0.43125E+02 
  37617.6786     0.43355E+02 
  37649.9407     0.43585E+02 
  37682.2029     0.43814E+02 
  37714.4650     0.44042E+02 
  37746.7272     0.44270E+02 
  37778.9894     0.44497E+02 
  37811.2515     0.44723E+02 
  37843.5137     0.44949E+02 
  37875.7758     0.45174E+02 
  37908.0380     0.45398E+02 
  37940.3002     0.45622E+02 
  37972.5623     0.45845E+02 
  38004.8245     0.46067E+02 
  38037.0866     0.46288E+02 
  38069.3488     0.46508E+02 
  38101.6110     0.46728E+02 
  38133.8731     0.46947E+02 
  38166.1353     0.47164E+02 
  38198.3974     0.47381E+02 
  38230.6596     0.47598E+02 
  38262.9218     0.47813E+02 
  38295.1839     0.48027E+02 
  38327.4461     0.48240E+02 
  38359.7082     0.48452E+02 
  38391.9704     0.48664E+02 
  38424.2326     0.48874E+02 
  38456.4947     0.49083E+02 
  38488.7569     0.49291E+02 
  38521.0190     0.49499E+02 
  38553.2812     0.49705E+02 
  38585.5434     0.49910E+02 
  38617.8055     0.50113E+02 
  38650.0677     0.50316E+02 
  38682.3298     0.50518E+02 
  38714.5920     0.50718E+02 
  38746.8542     0.50917E+02 
  38779.1163     0.51115E+02 
  38811.3785     0.51312E+02 
  38843.6406     0.51508E+02 
  38875.9028     0.51702E+02 
  38908.1650     0.51895E+02 
  38940.4271     0.52087E+02 
  38972.6893     0.52277E+02 
  39004.9514     0.52466E+02 
  39037.2136     0.52654E+02 
  39069.4758     0.52841E+02 
  39101.7379     0.53026E+02 
  39134.0001     0.53210E+02 
  39166.2622     0.53392E+02 
  39198.5244     0.53573E+02 
  39230.7866     0.53753E+02 
  39263.0487     0.53931E+02 
  39295.3109     0.54107E+02 
  39327.5730     0.54283E+02 
  39359.8352     0.54456E+02 
  39392.0974     0.54629E+02 
  39424.3595     0.54799E+02 
  39456.6217     0.54969E+02 
  39488.8838     0.55136E+02 
  39521.1460     0.55302E+02 
  39553.4082     0.55467E+02 
  39585.6703     0.55630E+02 
  39617.9325     0.55792E+02 
  39650.1946     0.55951E+02 
  39682.4568     0.56110E+02 
  39714.7190     0.56266E+02 
  39746.9811     0.56421E+02 
  39779.2433     0.56575E+02 
  39811.5054     0.56726E+02 
  39843.7676     0.56876E+02 
  39876.0298     0.57025E+02 
  39908.2919     0.57171E+02 
  39940.5541     0.57316E+02 
  39972.8162     0.57460E+02 
  40005.0784     0.57601E+02 
  40037.3406     0.57741E+02 
  40069.6027     0.57879E+02 
  40101.8649     0.58016E+02 
  40134.1270     0.58150E+02 
  40166.3892     0.58283E+02 
  40198.6514     0.58414E+02 
  40230.9135     0.58543E+02 
  40263.1757     0.58671E+02 
  40295.4378     0.58796E+02 
  40327.7000     0.58920E+02 
  40359.9622     0.59042E+02 
  40392.2243     0.59162E+02 
  40424.4865     0.59280E+02 
  40456.7486     0.59397E+02 
  40489.0108     0.59511E+02 
  40521.2730     0.59624E+02 
  40553.5351     0.59735E+02 
  40585.7973     0.59844E+02 
  40618.0594     0.59951E+02 
  40650.3216     0.60056E+02 
  40682.5838     0.60160E+02 
  40714.8459     0.60261E+02 
  40747.1081     0.60360E+02 
  40779.3702     0.60458E+02 
  40811.6324     0.60554E+02 
  40843.8946     0.60647E+02 
  40876.1567     0.60739E+02 
  40908.4189     0.60829E+02 
  40940.6810     0.60917E+02 
  40972.9432     0.61003E+02 
  41005.2054     0.61087E+02 
  41037.4675     0.61169E+02 
  41069.7297     0.61249E+02 
  41101.9918     0.61327E+02 
  41134.2540     0.61403E+02 
  41166.5162     0.61477E+02 
  41198.7783     0.61549E+02 
  41231.0405     0.61619E+02 
  41263.3026     0.61688E+02 
  41295.5648     0.61754E+02 
  41327.8270     0.61818E+02 
  41360.0891     0.61880E+02 
  41392.3513     0.61940E+02 
  41424.6134     0.61999E+02 
  41456.8756     0.62055E+02 
  41489.1378     0.62109E+02 
  41521.3999     0.62161E+02 
  41553.6621     0.62212E+02 
  41585.9242     0.62260E+02 
  41618.1864     0.62306E+02 
  41650.4486     0.62350E+02 
  41682.7107     0.62393E+02 
  41714.9729     0.62433E+02 
  41747.2350     0.62471E+02 
  41779.4972     0.62507E+02 
  41811.7594     0.62542E+02 
  41844.0215     0.62574E+02 
  41876.2837     0.62604E+02 
  41908.5458     0.62632E+02 
  41940.8080     0.62658E+02 
  41973.0702     0.62683E+02 
  42005.3323     0.62705E+02 
  42037.5945     0.62725E+02 
  42069.8566     0.62743E+02 
  42102.1188     0.62760E+02 
  42134.3810     0.62774E+02 
  42166.6431     0.62786E+02 
  42198.9053     0.62797E+02 
  42231.1674     0.62805E+02 
  42263.4296     0.62811E+02 
  42295.6918     0.62816E+02 
  42327.9539     0.62818E+02 
  42360.2161     0.62818E+02 
  42392.4782     0.62817E+02 
  42424.7404     0.62814E+02 
  42457.0026     0.62808E+02 
  42489.2647     0.62801E+02 
  42521.5269     0.62791E+02 
  42553.7890     0.62780E+02 
  42586.0512     0.62767E+02 
  42618.3134     0.62752E+02 
  42650.5755     0.62735E+02 
  42682.8377     0.62716E+02 
  42715.0998     0.62695E+02 
  42747.3620     0.62672E+02 
  42779.6242     0.62647E+02 
  42811.8863     0.62621E+02 
  42844.1485     0.62592E+02 
  42876.4106     0.62562E+02 
  42908.6728     0.62530E+02 
  42940.9350     0.62496E+02 
  42973.1971     0.62460E+02 
  43005.4593     0.62422E+02 
  43037.7214     0.62382E+02 
  43069.9836     0.62341E+02 
  43102.2458     0.62297E+02 
  43134.5079     0.62252E+02 
  43166.7701     0.62205E+02 
  43199.0322     0.62156E+02 
  43231.2944     0.62106E+02 
  43263.5566     0.62053E+02 
  43295.8187     0.61999E+02 
  43328.0809     0.61943E+02 
  43360.3430     0.61885E+02 
  43392.6052     0.61826E+02 
  43424.8674     0.61765E+02 
  43457.1295     0.61702E+02 
  43489.3917     0.61637E+02 
  43521.6538     0.61570E+02 
  43553.9160     0.61502E+02 
  43586.1782     0.61432E+02 
  43618.4403     0.61361E+02 
  43650.7025     0.61287E+02 
  43682.9646     0.61212E+02 
  43715.2268     0.61136E+02 
  43747.4890     0.61057E+02 
  43779.7511     0.60978E+02 
  43812.0133     0.60896E+02 
  43844.2754     0.60813E+02 
  43876.5376     0.60728E+02 
  43908.7998     0.60641E+02 
  43941.0619     0.60553E+02 
  43973.3241     0.60464E+02 
  44005.5862     0.60373E+02 
  44037.8484     0.60280E+02 
  44070.1106     0.60185E+02 
  44102.3727     0.60090E+02 
  44134.6349     0.59992E+02 
  44166.8970     0.59893E+02 
  44199.1592     0.59793E+02 
  44231.4214     0.59691E+02 
  44263.6835     0.59587E+02 
  44295.9457     0.59483E+02 
  44328.2078     0.59376E+02 
  44360.4700     0.59268E+02 
  44392.7322     0.59159E+02 
  44424.9943     0.59048E+02 
  44457.2565     0.58936E+02 
  44489.5186     0.58823E+02 
  44521.7808     0.58708E+02 
  44554.0430     0.58592E+02 
  44586.3051     0.58474E+02 
  44618.5673     0.58355E+02 
  44650.8294     0.58235E+02 
  44683.0916     0.58113E+02 
  44715.3538     0.57990E+02 
  44747.6159     0.57865E+02 
  44779.8781     0.57740E+02 
  44812.1402     0.57613E+02 
  44844.4024     0.57485E+02 
  44876.6646     0.57355E+02 
  44908.9267     0.57225E+02 
  44941.1889     0.57093E+02 
  44973.4510     0.56960E+02 
  45005.7132     0.56825E+02 
  45037.9754     0.56690E+02 
  45070.2375     0.56553E+02 
  45102.4997     0.56415E+02 
  45134.7618     0.56276E+02 
  45167.0240     0.56136E+02 
  45199.2862     0.55995E+02 
  45231.5483     0.55852E+02 
  45263.8105     0.55709E+02 
  45296.0726     0.55564E+02 
  45328.3348     0.55419E+02 
  45360.5970     0.55272E+02 
  45392.8591     0.55124E+02 
  45425.1213     0.54975E+02 
  45457.3834     0.54825E+02 
  45489.6456     0.54674E+02 
  45521.9078     0.54522E+02 
  45554.1699     0.54370E+02 
  45586.4321     0.54216E+02 
  45618.6942     0.54061E+02 
  45650.9564     0.53905E+02 
  45683.2186     0.53749E+02 
  45715.4807     0.53591E+02 
  45747.7429     0.53433E+02 
  45780.0050     0.53273E+02 
  45812.2672     0.53113E+02 
  45844.5294     0.52952E+02 
  45876.7915     0.52790E+02 
  45909.0537     0.52627E+02 
  45941.3158     0.52463E+02 
  45973.5780     0.52299E+02 
  46005.8402     0.52134E+02 
  46038.1023     0.51968E+02 
  46070.3645     0.51801E+02 
  46102.6266     0.51633E+02 
  46134.8888     0.51465E+02 
  46167.1510     0.51296E+02 
  46199.4131     0.51126E+02 
  46231.6753     0.50955E+02 
  46263.9374     0.50784E+02 
  46296.1996     0.50612E+02 
  46328.4618     0.50440E+02 
  46360.7239     0.50267E+02 
  46392.9861     0.50093E+02 
  46425.2482     0.49918E+02 
  46457.5104     0.49743E+02 
  46489.7726     0.49568E+02 
  46522.0347     0.49391E+02 
  46554.2969     0.49214E+02 
  46586.5590     0.49037E+02 
  46618.8212     0.48859E+02 
  46651.0834     0.48681E+02 
  46683.3455     0.48501E+02 
  46715.6077     0.48322E+02 
  46747.8698     0.48142E+02 
  46780.1320     0.47961E+02 
  46812.3942     0.47780E+02 
  46844.6563     0.47599E+02 
  46876.9185     0.47417E+02 
  46909.1806     0.47234E+02 
  46941.4428     0.47052E+02 
  46973.7050     0.46868E+02 
  47005.9671     0.46685E+02 
  47038.2293     0.46501E+02 
  47070.4914     0.46316E+02 
  47102.7536     0.46131E+02 
  47135.0158     0.45946E+02 
  47167.2779     0.45761E+02 
  47199.5401     0.45575E+02 
  47231.8022     0.45389E+02 
  47264.0644     0.45202E+02 
  47296.3266     0.45016E+02 
  47328.5887     0.44829E+02 
  47360.8509     0.44641E+02 
  47393.1130     0.44454E+02 
  47425.3752     0.44266E+02 
  47457.6374     0.44078E+02 
  47489.8995     0.43890E+02 
  47522.1617     0.43701E+02 
  47554.4238     0.43512E+02 
  47586.6860     0.43324E+02 
  47618.9482     0.43135E+02 
  47651.2103     0.42945E+02 
  47683.4725     0.42756E+02 
  47715.7346     0.42566E+02 
  47747.9968     0.42377E+02 
  47780.2590     0.42187E+02 
  47812.5211     0.41997E+02 
  47844.7833     0.41807E+02 
  47877.0454     0.41617E+02 
  47909.3076     0.41426E+02 
  47941.5698     0.41236E+02 
  47973.8319     0.41046E+02 
  48006.0941     0.40855E+02 
  48038.3562     0.40665E+02 
  48070.6184     0.40474E+02 
  48102.8806     0.40284E+02 
  48135.1427     0.40093E+02 
  48167.4049     0.39903E+02 
  48199.6670     0.39712E+02 
  48231.9292     0.39522E+02 
  48264.1914     0.39331E+02 
  48296.4535     0.39141E+02 
  48328.7157     0.38950E+02 
  48360.9778     0.38760E+02 
  48393.2400     0.38570E+02 
  48425.5022     0.38379E+02 
  48457.7643     0.38189E+02 
  48490.0265     0.37999E+02 
  48522.2886     0.37809E+02 
  48554.5508     0.37619E+02 
  48586.8130     0.37430E+02 
  48619.0751     0.37240E+02 
  48651.3373     0.37051E+02 
  48683.5994     0.36861E+02 
  48715.8616     0.36672E+02 
  48748.1238     0.36483E+02 
  48780.3859     0.36294E+02 
  48812.6481     0.36106E+02 
  48844.9102     0.35917E+02 
  48877.1724     0.35729E+02 
  48909.4346     0.35541E+02 
  48941.6967     0.35353E+02 
  48973.9589     0.35165E+02 
  49006.2210     0.34978E+02 
  49038.4832     0.34791E+02 
  49070.7454     0.34604E+02 
  49103.0075     0.34417E+02 
  49135.2697     0.34231E+02 
  49167.5318     0.34045E+02 
  49199.7940     0.33859E+02 
  49232.0562     0.33673E+02 
  49264.3183     0.33488E+02 
  49296.5805     0.33303E+02 
  49328.8426     0.33118E+02 
  49361.1048     0.32934E+02 
  49393.3670     0.32750E+02 
  49425.6291     0.32566E+02 
  49457.8913     0.32382E+02 
  49490.1534     0.32199E+02 
  49522.4156     0.32016E+02 
  49554.6778     0.31834E+02 
  49586.9399     0.31652E+02 
  49619.2021     0.31470E+02 
  49651.4642     0.31289E+02 
  49683.7264     0.31108E+02 
  49715.9886     0.30927E+02 
  49748.2507     0.30747E+02 
  49780.5129     0.30567E+02 
  49812.7750     0.30388E+02 
  49845.0372     0.30209E+02 
  49877.2994     0.30030E+02 
  49909.5615     0.29852E+02 
  49941.8237     0.29675E+02 
  49974.0858     0.29497E+02 
  50006.3480     0.29320E+02 
  50038.6102     0.29144E+02 
  50070.8723     0.28968E+02 
  50103.1345     0.28792E+02 
  50135.3966     0.28617E+02 
  50167.6588     0.28442E+02 
  50199.9210     0.28268E+02 
  50232.1831     0.28095E+02 
  50264.4453     0.27921E+02 
  50296.7074     0.27748E+02 
  50328.9696     0.27576E+02 
  50361.2318     0.27404E+02 
  50393.4939     0.27233E+02 
  50425.7561     0.27062E+02 
  50458.0182     0.26892E+02 
  50490.2804     0.26722E+02 
  50522.5426     0.26553E+02 
  50554.8047     0.26384E+02 
  50587.0669     0.26216E+02 
  50619.3290     0.26048E+02 
  50651.5912     0.25881E+02 
  50683.8534     0.25714E+02 
  50716.1155     0.25548E+02 
  50748.3777     0.25382E+02 
  50780.6398     0.25217E+02 
  50812.9020     0.25052E+02 
  50845.1642     0.24888E+02 
  50877.4263     0.24725E+02 
  50909.6885     0.24562E+02 
  50941.9506     0.24400E+02 
  50974.2128     0.24238E+02 
  51006.4750     0.24077E+02 
  51038.7371     0.23916E+02 
  51070.9993     0.23756E+02 
  51103.2614     0.23596E+02 
  51135.5236     0.23437E+02 
  51167.7858     0.23279E+02 
  51200.0479     0.23121E+02 
  51232.3101     0.22964E+02 
  51264.5722     0.22807E+02 
  51296.8344     0.22651E+02 
  51329.0966     0.22495E+02 
  51361.3587     0.22341E+02 
  51393.6209     0.22186E+02 
  51425.8830     0.22033E+02 
  51458.1452     0.21879E+02 
  51490.4074     0.21727E+02 
  51522.6695     0.21575E+02 
  51554.9317     0.21424E+02 
  51587.1938     0.21273E+02 
  51619.4560     0.21123E+02 
  51651.7182     0.20973E+02 
  51683.9803     0.20825E+02 
  51716.2425     0.20676E+02 
  51748.5046     0.20529E+02 
  51780.7668     0.20382E+02 
  51813.0290     0.20235E+02 
  51845.2911     0.20089E+02 
  51877.5533     0.19944E+02 
  51909.8154     0.19800E+02 
  51942.0776     0.19656E+02 
  51974.3398     0.19513E+02 
  52006.6019     0.19370E+02 
  52038.8641     0.19228E+02 
  52071.1262     0.19086E+02 
  52103.3884     0.18946E+02 
  52135.6506     0.18805E+02 
  52167.9127     0.18666E+02 
  52200.1749     0.18527E+02 
  52232.4370     0.18389E+02 
  52264.6992     0.18251E+02 
  52296.9614     0.18114E+02 
  52329.2235     0.17978E+02 
  52361.4857     0.17842E+02 
  52393.7478     0.17707E+02 
  52426.0100     0.17572E+02 
  52458.2722     0.17438E+02 
  52490.5343     0.17305E+02 
  52522.7965     0.17173E+02 
  52555.0586     0.17041E+02 
  52587.3208     0.16909E+02 
  52619.5830     0.16779E+02 
  52651.8451     0.16649E+02 
  52684.1073     0.16519E+02 
  52716.3694     0.16391E+02 
  52748.6316     0.16263E+02 
  52780.8938     0.16135E+02 
  52813.1559     0.16008E+02 
  52845.4181     0.15882E+02 
  52877.6802     0.15757E+02 
  52909.9424     0.15632E+02 
  52942.2046     0.15507E+02 
  52974.4667     0.15384E+02 
  53006.7289     0.15261E+02 
  53038.9910     0.15138E+02 
  53071.2532     0.15017E+02 
  53103.5154     0.14895E+02 
  53135.7775     0.14775E+02 
  53168.0397     0.14655E+02 
  53200.3018     0.14536E+02 
  53232.5640     0.14417E+02 
  53264.8262     0.14299E+02 
  53297.0883     0.14182E+02 
  53329.3505     0.14065E+02 
  53361.6126     0.13949E+02 
  53393.8748     0.13834E+02 
  53426.1370     0.13719E+02 
  53458.3991     0.13605E+02 
  53490.6613     0.13491E+02 
  53522.9234     0.13379E+02 
  53555.1856     0.13266E+02 
  53587.4478     0.13155E+02 
  53619.7099     0.13044E+02 
  53651.9721     0.12933E+02 
  53684.2342     0.12823E+02 
  53716.4964     0.12714E+02 
  53748.7586     0.12606E+02 
  53781.0207     0.12498E+02 
  53813.2829     0.12390E+02 
  53845.5450     0.12284E+02 
  53877.8072     0.12178E+02 
  53910.0694     0.12072E+02 
  53942.3315     0.11967E+02 
  53974.5937     0.11863E+02 
  54006.8558     0.11759E+02 
  54039.1180     0.11656E+02 
  54071.3802     0.11554E+02 
  54103.6423     0.11452E+02 
  54135.9045     0.11351E+02 
  54168.1666     0.11250E+02 
  54200.4288     0.11150E+02 
  54232.6910     0.11051E+02 
  54264.9531     0.10952E+02 
  54297.2153     0.10854E+02 
  54329.4774     0.10756E+02 
  54361.7396     0.10659E+02 
  54394.0018     0.10562E+02 
  54426.2639     0.10467E+02 
  54458.5261     0.10371E+02 
  54490.7882     0.10277E+02 
  54523.0504     0.10183E+02 
  54555.3126     0.10089E+02 
  54587.5747     0.99961E+01 
  54619.8369     0.99037E+01 
  54652.0990     0.98119E+01 
  54684.3612     0.97207E+01 
  54716.6234     0.96300E+01 
  54748.8855     0.95400E+01 
  54781.1477     0.94505E+01 
  54813.4098     0.93616E+01 
  54845.6720     0.92732E+01 
  54877.9342     0.91854E+01 
  54910.1963     0.90982E+01 
  54942.4585     0.90115E+01 
  54974.7206     0.89254E+01 
  55006.9828     0.88398E+01 
  55039.2450     0.87548E+01 
  55071.5071     0.86704E+01 
  55103.7693     0.85865E+01 
  55136.0314     0.85031E+01 
  55168.2936     0.84203E+01 
  55200.5558     0.83381E+01 
  55232.8179     0.82564E+01 
  55265.0801     0.81752E+01 
  55297.3422     0.80946E+01 
  55329.6044     0.80145E+01 
  55361.8666     0.79349E+01 
  55394.1287     0.78559E+01 
  55426.3909     0.77774E+01 
  55458.6530     0.76995E+01 
  55490.9152     0.76220E+01 
  55523.1774     0.75451E+01 
  55555.4395     0.74687E+01 
  55587.7017     0.73929E+01 
  55619.9638     0.73175E+01 
  55652.2260     0.72427E+01 
  55684.4882     0.71684E+01 
  55716.7503     0.70946E+01 
  55749.0125     0.70213E+01 
  55781.2746     0.69485E+01 
  55813.5368     0.68762E+01 
  55845.7990     0.68044E+01 
  55878.0611     0.67332E+01 
  55910.3233     0.66624E+01 
  55942.5854     0.65921E+01 
  55974.8476     0.65223E+01 
  56007.1098     0.64530E+01 
  56039.3719     0.63843E+01 
  56071.6341     0.63159E+01 
  56103.8962     0.62481E+01 
  56136.1584     0.61808E+01 
  56168.4206     0.61139E+01 
  56200.6827     0.60476E+01 
  56232.9449     0.59817E+01 
  56265.2070     0.59163E+01 
  56297.4692     0.58513E+01 
  56329.7314     0.57869E+01 
  56361.9935     0.57228E+01 
  56394.2557     0.56593E+01 
  56426.5178     0.55962E+01 
  56458.7800     0.55336E+01 
  56491.0422     0.54715E+01 
  56523.3043     0.54098E+01 
  56555.5665     0.53486E+01 
  56587.8286     0.52878E+01 
  56620.0908     0.52275E+01 
  56652.3530     0.51676E+01 
  56684.6151     0.51082E+01 
  56716.8773     0.50492E+01 
  56749.1394     0.49907E+01 
  56781.4016     0.49326E+01 
  56813.6638     0.48749E+01 
  56845.9259     0.48177E+01 
  56878.1881     0.47609E+01 
  56910.4502     0.47046E+01 
  56942.7124     0.46487E+01 
  56974.9746     0.45932E+01 
  57007.2367     0.45381E+01 
  57039.4989     0.44835E+01 
  57071.7610     0.44293E+01 
  57104.0232     0.43755E+01 
  57136.2854     0.43221E+01 
  57168.5475     0.42691E+01 
  57200.8097     0.42166E+01 
  57233.0718     0.41644E+01 
  57265.3340     0.41127E+01 
  57297.5962     0.40614E+01 
  57329.8583     0.40105E+01 
  57362.1205     0.39600E+01 
  57394.3826     0.39099E+01 
  57426.6448     0.38602E+01 
  57458.9070     0.38109E+01 
  57491.1691     0.37620E+01 
  57523.4313     0.37135E+01 
  57555.6934     0.36653E+01 
  57587.9556     0.36176E+01 
  57620.2178     0.35703E+01 
  57652.4799     0.35233E+01 
  57684.7421     0.34767E+01 
  57717.0042     0.34305E+01 
  57749.2664     0.33847E+01 
  57781.5286     0.33393E+01 
  57813.7907     0.32942E+01 
  57846.0529     0.32496E+01 
  57878.3150     0.32052E+01 
  57910.5772     0.31613E+01 
  57942.8394     0.31177E+01 
  57975.1015     0.30745E+01 
  58007.3637     0.30317E+01 
  58039.6258     0.29892E+01 
  58071.8880     0.29471E+01 
  58104.1502     0.29054E+01 
  58136.4123     0.28640E+01 
  58168.6745     0.28229E+01 
  58200.9366     0.27822E+01 
  58233.1988     0.27419E+01 
  58265.4610     0.27019E+01 
  58297.7231     0.26623E+01 
  58329.9853     0.26230E+01 
  58362.2474     0.25841E+01 
  58394.5096     0.25455E+01 
  58426.7718     0.25072E+01 
  58459.0339     0.24693E+01 
  58491.2961     0.24317E+01 
  58523.5582     0.23945E+01 
  58555.8204     0.23576E+01 
  58588.0826     0.23210E+01 
  58620.3447     0.22848E+01 
  58652.6069     0.22489E+01 
  58684.8690     0.22133E+01 
  58717.1312     0.21781E+01 
  58749.3934     0.21432E+01 
  58781.6555     0.21086E+01 
  58813.9177     0.20743E+01 
  58846.1798     0.20404E+01 
  58878.4420     0.20068E+01 
  58910.7042     0.19735E+01 
  58942.9663     0.19405E+01 
  58975.2285     0.19078E+01 
  59007.4906     0.18754E+01 
  59039.7528     0.18434E+01 
  59072.0150     0.18117E+01 
  59104.2771     0.17802E+01 
  59136.5393     0.17491E+01 
  59168.8014     0.17183E+01 
  59201.0636     0.16878E+01 
  59233.3258     0.16576E+01 
  59265.5879     0.16278E+01 
  59297.8501     0.15982E+01 
  59330.1122     0.15689E+01 
  59362.3744     0.15399E+01 
  59394.6366     0.15112E+01 
  59426.8987     0.14829E+01 
  59459.1609     0.14548E+01 
  59491.4230     0.14270E+01 
  59523.6852     0.13995E+01 
  59555.9474     0.13723E+01 
  59588.2095     0.13454E+01 
  59620.4717     0.13188E+01 
  59652.7338     0.12925E+01 
  59684.9960     0.12665E+01 
  59717.2582     0.12407E+01 
  59749.5203     0.12153E+01 
  59781.7825     0.11901E+01 
  59814.0446     0.11652E+01 
  59846.3068     0.11406E+01 
  59878.5690     0.11163E+01 
  59910.8311     0.10923E+01 
  59943.0933     0.10686E+01 
  59975.3554     0.10451E+01 
  60007.6176     0.10219E+01 
  60039.8798     0.99905E+00 
  60072.1419     0.97644E+00 
  60104.4041     0.95411E+00 
  60136.6662     0.93206E+00 
  60168.9284     0.91029E+00 
  60201.1906     0.88879E+00 
  60233.4527     0.86758E+00 
  60265.7149     0.84664E+00 
  60297.9770     0.82598E+00 
  60330.2392     0.80559E+00 
  60362.5014     0.78548E+00 
  60394.7635     0.76565E+00 
  60427.0257     0.74609E+00 
  60459.2878     0.72680E+00 
  60491.5500     0.70779E+00 
  60523.8122     0.68906E+00 
  60556.0743     0.67060E+00 
  60588.3365     0.65241E+00 
  60620.5986     0.63450E+00 
  60652.8608     0.61686E+00 
  60685.1230     0.59949E+00 
  60717.3851     0.58240E+00 
  60749.6473     0.56558E+00 
  60781.9094     0.54904E+00 
  60814.1716     0.53276E+00 
  60846.4338     0.51677E+00 
  60878.6959     0.50104E+00 
  60910.9581     0.48559E+00 
  60943.2202     0.47041E+00 
  60975.4824     0.45551E+00 
  61007.7446     0.44088E+00 
  61040.0067     0.42653E+00 
  61072.2689     0.41245E+00 
  61104.5310     0.39865E+00 
  61136.7932     0.38513E+00 
  61169.0554     0.37188E+00 
  61201.3175     0.35891E+00 
  61233.5797     0.34621E+00 
  61265.8418     0.33379E+00 
  61298.1040     0.32166E+00 
  61330.3662     0.30980E+00 
  61362.6283     0.29822E+00 
  61394.8905     0.28693E+00 
  61427.1526     0.27591E+00 
  61459.4148     0.26518E+00 
  61491.6770     0.25474E+00 
  61523.9391     0.24457E+00 
  61556.2013     0.23470E+00 
  61588.4634     0.22511E+00 
  61620.7256     0.21581E+00 
  61652.9878     0.20680E+00 
  61685.2499     0.19807E+00 
  61717.5121     0.18965E+00 
  61749.7742     0.18151E+00 
  61782.0364     0.17367E+00 
  61814.2986     0.16612E+00 
  61846.5607     0.15888E+00 
  61878.8229     0.15193E+00 
  61911.0850     0.14528E+00 
  61943.3472     0.13894E+00 
  61975.6094     0.13290E+00 
  62007.8715     0.12716E+00 
  62040.1337     0.12174E+00 
  62072.3958     0.11662E+00 
  62104.6580     0.11182E+00 
  62136.9202     0.10733E+00 
  62169.1823     0.10316E+00 
  62201.4445     0.99308E-01 
  62233.7066     0.95776E-01 
  62265.9688     0.92569E-01 
  62298.2310     0.89687E-01 
  62330.4931     0.87134E-01 
  62362.7553     0.84912E-01 
  62395.0174     0.83025E-01 
  62427.2796     0.81474E-01 
  62459.5418     0.80263E-01 
  62491.8039     0.79394E-01 
  62524.0661     0.78871E-01 
  62556.3282     0.78697E-01 
  62588.5904     0.78876E-01 
  62620.8526     0.79409E-01 
  62653.1147     0.80301E-01 
  62685.3769     0.81556E-01 
  62717.6390     0.83176E-01 
  62749.9012     0.85166E-01 
  62782.1634     0.87530E-01 
  62814.4255     0.90270E-01 
  62846.6877     0.93392E-01 
  62878.9498     0.96899E-01 
  62911.2120     0.10080E+00 
  62943.4742     0.10509E+00 
  62975.7363     0.10977E+00 
  63007.9985     0.11486E+00 
  63040.2606     0.12036E+00 
  63072.5228     0.12627E+00 
  63104.7850     0.13260E+00 
  63137.0471     0.13935E+00 
  63169.3093     0.14653E+00 
  63201.5714     0.15413E+00 
  63233.8336     0.16218E+00 
  63266.0958     0.17067E+00 
  63298.3579     0.17961E+00 
  63330.6201     0.18900E+00 
  63362.8822     0.19885E+00 
  63395.1444     0.20917E+00 
  63427.4066     0.21996E+00 
  63459.6687     0.23123E+00 
  63491.9309     0.24298E+00 
  63524.1930     0.25523E+00 
  63556.4552     0.26797E+00 
  63588.7174     0.28122E+00 
  63620.9795     0.29498E+00 
  63653.2417     0.30926E+00 
  63685.5038     0.32407E+00 
  63717.7660     0.33941E+00 
  63750.0282     0.35529E+00 
  63782.2903     0.37173E+00 
  63814.5525     0.38872E+00 
  63846.8146     0.40628E+00 
  63879.0768     0.42441E+00 
  63911.3390     0.44312E+00 
  63943.6011     0.46243E+00 
  63975.8633     0.48233E+00 
  64008.1254     0.50285E+00 
  64040.3876     0.52398E+00 
  64072.6498     0.54574E+00 
  64104.9119     0.56814E+00 
  64137.1741     0.59119E+00 
  64169.4362     0.61489E+00 
  64201.6984     0.63927E+00 
  64233.9606     0.66432E+00 
  64266.2227     0.69006E+00 
  64298.4849     0.71650E+00 
  64330.7470     0.74366E+00 
  64363.0092     0.77153E+00 
  64395.2714     0.80014E+00 
  64427.5335     0.82950E+00 
  64459.7957     0.85962E+00 
  64492.0578     0.89050E+00 
  64524.3200     0.92217E+00 
  64556.5822     0.95463E+00 
  64588.8443     0.98791E+00 
  64621.1065     0.10220E+01 
  64653.3686     0.10569E+01 
  64685.6308     0.10927E+01 
  64717.8930     0.11294E+01 
  64750.1551     0.11669E+01 
  64782.4173     0.12053E+01 
  64814.6794     0.12446E+01 
  64846.9416     0.12849E+01 
  64879.2038     0.13261E+01 
  64911.4659     0.13682E+01 
  64943.7281     0.14113E+01 
  64975.9902     0.14554E+01 
  65008.2524     0.15005E+01 
  65040.5146     0.15467E+01 
  65072.7767     0.15938E+01 
  65105.0389     0.16420E+01 
  65137.3010     0.16913E+01 
  65169.5632     0.17417E+01 
  65201.8254     0.17932E+01 
  65234.0875     0.18459E+01 
  65266.3497     0.18996E+01 
  65298.6118     0.19546E+01 
  65330.8740     0.20107E+01 
  65363.1362     0.20681E+01 
  65395.3983     0.21266E+01 
  65427.6605     0.21865E+01 
  65459.9226     0.22476E+01 
  65492.1848     0.23100E+01 
  65524.4470     0.23737E+01 
  65556.7091     0.24387E+01 
  65588.9713     0.25052E+01 
  65621.2334     0.25730E+01 
  65653.4956     0.26422E+01 
  65685.7578     0.27129E+01 
  65718.0199     0.27850E+01 
  65750.2821     0.28586E+01 
  65782.5442     0.29337E+01 
  65814.8064     0.30103E+01 
  65847.0686     0.30885E+01 
  65879.3307     0.31683E+01 
  65911.5929     0.32498E+01 
  65943.8550     0.33328E+01 
  65976.1172     0.34176E+01 
  66008.3794     0.35040E+01 
  66040.6415     0.35922E+01 
  66072.9037     0.36821E+01 
  66105.1658     0.37739E+01 
  66137.4280     0.38674E+01 
  66169.6902     0.39628E+01 
  66201.9523     0.40601E+01 
  66234.2145     0.41593E+01 
  66266.4766     0.42605E+01 
  66298.7388     0.43637E+01 
  66331.0010     0.44688E+01 
  66363.2631     0.45761E+01 
  66395.5253     0.46854E+01 
  66427.7874     0.47968E+01 
  66460.0496     0.49104E+01 
  66492.3118     0.50262E+01 
  66524.5739     0.51442E+01 
  66556.8361     0.52645E+01 
  66589.0982     0.53871E+01 
  66621.3604     0.55120E+01 
  66653.6226     0.56394E+01 
  66685.8847     0.57691E+01 
  66718.1469     0.59013E+01 
  66750.4090     0.60361E+01 
  66782.6712     0.61734E+01 
  66814.9334     0.63132E+01 
  66847.1955     0.64557E+01 
  66879.4577     0.66009E+01 
  66911.7198     0.67489E+01 
  66943.9820     0.68995E+01 
  66976.2442     0.70530E+01 
  67008.5063     0.72094E+01 
  67040.7685     0.73687E+01 
  67073.0306     0.75309E+01 
  67105.2928     0.76961E+01 
  67137.5550     0.78644E+01 
  67169.8171     0.80357E+01 
  67202.0793     0.82103E+01 
  67234.3414     0.83880E+01 
  67266.6036     0.85690E+01 
  67298.8658     0.87532E+01 
  67331.1279     0.89409E+01 
  67363.3901     0.91319E+01 
  67395.6522     0.93264E+01 
  67427.9144     0.95245E+01 
  67460.1766     0.97261E+01 
  67492.4387     0.99313E+01 
  67524.7009     0.10140E+02 
  67556.9630     0.10353E+02 
  67589.2252     0.10569E+02 
  67621.4874     0.10790E+02 
  67653.7495     0.11014E+02 
  67686.0117     0.11242E+02 
  67718.2738     0.11475E+02 
  67750.5360     0.11711E+02 
  67782.7982     0.11952E+02 
  67815.0603     0.12197E+02 
  67847.3225     0.12446E+02 
  67879.5846     0.12699E+02 
  67911.8468     0.12957E+02 
  67944.1090     0.13220E+02 
  67976.3711     0.13487E+02 
  68008.6333     0.13758E+02 
  68040.8954     0.14034E+02 
  68073.1576     0.14316E+02 
  68105.4198     0.14602E+02 
  68137.6819     0.14892E+02 
  68169.9441     0.15188E+02 
  68202.2062     0.15489E+02 
  68234.4684     0.15795E+02 
  68266.7306     0.16106E+02 
  68298.9927     0.16423E+02 
  68331.2549     0.16745E+02 
  68363.5170     0.17072E+02 
  68395.7792     0.17405E+02 
  68428.0414     0.17744E+02 
  68460.3035     0.18088E+02 
  68492.5657     0.18437E+02 
  68524.8278     0.18793E+02 
  68557.0900     0.19155E+02 
  68589.3522     0.19522E+02 
  68621.6143     0.19896E+02 
  68653.8765     0.20276E+02 
  68686.1386     0.20662E+02 
  68718.4008     0.21054E+02 
  68750.6630     0.21453E+02 
  68782.9251     0.21858E+02 
  68815.1873     0.22270E+02 
  68847.4494     0.22689E+02 
  68879.7116     0.23114E+02 
  68911.9738     0.23546E+02 
  68944.2359     0.23986E+02 
  68976.4981     0.24432E+02 
  69008.7602     0.24885E+02 
  69041.0224     0.25346E+02 
  69073.2846     0.25814E+02 
  69105.5467     0.26289E+02 
  69137.8089     0.26772E+02 
  69170.0710     0.27262E+02 
  69202.3332     0.27760E+02 
  69234.5954     0.28266E+02 
  69266.8575     0.28780E+02 
  69299.1197     0.29301E+02 
  69331.3818     0.29831E+02 
  69363.6440     0.30369E+02 
  69395.9062     0.30915E+02 
  69428.1683     0.31470E+02 
  69460.4305     0.32033E+02 
  69492.6926     0.32605E+02 
  69524.9548     0.33185E+02 
  69557.2170     0.33775E+02 
  69589.4791     0.34373E+02 
  69621.7413     0.34980E+02 
  69654.0034     0.35596E+02 
  69686.2656     0.36222E+02 
  69718.5278     0.36856E+02 
  69750.7899     0.37501E+02 
  69783.0521     0.38154E+02 
  69815.3142     0.38818E+02 
  69847.5764     0.39491E+02 
  69879.8386     0.40174E+02 
  69912.1007     0.40867E+02 
  69944.3629     0.41570E+02 
  69976.6250     0.42283E+02 
  70008.8872     0.43006E+02 
  70041.1494     0.43740E+02 
  70073.4115     0.44485E+02 
  70105.6737     0.45240E+02 
  70137.9358     0.46006E+02 
  70170.1980     0.46782E+02 
  70202.4602     0.47570E+02 
  70234.7223     0.48368E+02 
  70266.9845     0.49178E+02 
  70299.2466     0.49999E+02 
  70331.5088     0.50832E+02 
  70363.7710     0.51676E+02 
  70396.0331     0.52532E+02 
  70428.2953     0.53399E+02 
  70460.5574     0.54279E+02 
  70492.8196     0.55170E+02 
  70525.0818     0.56073E+02 
  70557.3439     0.56989E+02 
  70589.6061     0.57917E+02 
  70621.8682     0.58858E+02 
  70654.1304     0.59811E+02 
  70686.3926     0.60776E+02 
  70718.6547     0.61755E+02 
  70750.9169     0.62746E+02 
  70783.1790     0.63750E+02 
  70815.4412     0.64768E+02 
  70847.7034     0.65799E+02 
  70879.9655     0.66843E+02 
  70912.2277     0.67901E+02 
  70944.4898     0.68972E+02 
  70976.7520     0.70057E+02 
  71009.0142     0.71156E+02 
  71041.2763     0.72268E+02 
  71073.5385     0.73395E+02 
  71105.8006     0.74536E+02 
  71138.0628     0.75691E+02 
  71170.3250     0.76861E+02 
  71202.5871     0.78045E+02 
  71234.8493     0.79243E+02 
  71267.1114     0.80457E+02 
  71299.3736     0.81685E+02 
  71331.6358     0.82928E+02 
  71363.8979     0.84187E+02 
  71396.1601     0.85460E+02 
  71428.4222     0.86749E+02 
  71460.6844     0.88053E+02 
  71492.9466     0.89372E+02 
  71525.2087     0.90707E+02 
  71557.4709     0.92058E+02 
  71589.7330     0.93425E+02 
  71621.9952     0.94808E+02 
  71654.2574     0.96206E+02 
  71686.5195     0.97621E+02 
  71718.7817     0.99052E+02 
  71751.0438     0.10050E+03 
  71783.3060     0.10196E+03 
  71815.5682     0.10344E+03 
  71847.8303     0.10494E+03 
  71880.0925     0.10645E+03 
  71912.3546     0.10798E+03 
  71944.6168     0.10953E+03 
  71976.8790     0.11110E+03 
  72009.1411     0.11268E+03 
  72041.4033     0.11428E+03 
  72073.6654     0.11589E+03 
  72105.9276     0.11753E+03 
  72138.1898     0.11918E+03 
  72170.4519     0.12084E+03 
  72202.7141     0.12253E+03 
  72234.9762     0.12423E+03 
  72267.2384     0.12596E+03 
  72299.5006     0.12769E+03 
  72331.7627     0.12945E+03 
  72364.0249     0.13123E+03 
  72396.2870     0.13302E+03 
  72428.5492     0.13483E+03 
  72460.8114     0.13666E+03 
  72493.0735     0.13851E+03 
  72525.3357     0.14038E+03 
  72557.5978     0.14226E+03 
  72589.8600     0.14417E+03 
