  32262.1600     0.32047E+02 
  32294.4222     0.32533E+02 
  32326.6843     0.33025E+02 
  32358.9465     0.33522E+02 
  32391.2086     0.34025E+02 
  32423.4708     0.34534E+02 
  32455.7330     0.35048E+02 
  32487.9951     0.35567E+02 
  32520.2573     0.36092E+02 
  32552.5194     0.36623E+02 
  32584.7816     0.37159E+02 
  32617.0438     0.37702E+02 
  32649.3059     0.38249E+02 
  32681.5681     0.38803E+02 
  32713.8302     0.39362E+02 
  32746.0924     0.39927E+02 
  32778.3546     0.40498E+02 
  32810.6167     0.41074E+02 
  32842.8789     0.41657E+02 
  32875.1410     0.42245E+02 
  32907.4032     0.42839E+02 
  32939.6654     0.43438E+02 
  32971.9275     0.44044E+02 
  33004.1897     0.44655E+02 
  33036.4518     0.45273E+02 
  33068.7140     0.45896E+02 
  33100.9762     0.46525E+02 
  33133.2383     0.47159E+02 
  33165.5005     0.47800E+02 
  33197.7626     0.48447E+02 
  33230.0248     0.49099E+02 
  33262.2870     0.49758E+02 
  33294.5491     0.50422E+02 
  33326.8113     0.51092E+02 
  33359.0734     0.51768E+02 
  33391.3356     0.52450E+02 
  33423.5978     0.53138E+02 
  33455.8599     0.53831E+02 
  33488.1221     0.54531E+02 
  33520.3842     0.55236E+02 
  33552.6464     0.55947E+02 
  33584.9086     0.56665E+02 
  33617.1707     0.57388E+02 
  33649.4329     0.58116E+02 
  33681.6950     0.58851E+02 
  33713.9572     0.59591E+02 
  33746.2194     0.60338E+02 
  33778.4815     0.61090E+02 
  33810.7437     0.61847E+02 
  33843.0058     0.62611E+02 
  33875.2680     0.63380E+02 
  33907.5302     0.64155E+02 
  33939.7923     0.64936E+02 
  33972.0545     0.65722E+02 
  34004.3166     0.66514E+02 
  34036.5788     0.67312E+02 
  34068.8410     0.68115E+02 
  34101.1031     0.68924E+02 
  34133.3653     0.69739E+02 
  34165.6274     0.70559E+02 
  34197.8896     0.71384E+02 
  34230.1518     0.72215E+02 
  34262.4139     0.73051E+02 
  34294.6761     0.73893E+02 
  34326.9382     0.74740E+02 
  34359.2004     0.75593E+02 
  34391.4626     0.76451E+02 
  34423.7247     0.77314E+02 
  34455.9869     0.78182E+02 
  34488.2490     0.79056E+02 
  34520.5112     0.79934E+02 
  34552.7734     0.80818E+02 
  34585.0355     0.81707E+02 
  34617.2977     0.82601E+02 
  34649.5598     0.83500E+02 
  34681.8220     0.84403E+02 
  34714.0842     0.85312E+02 
  34746.3463     0.86226E+02 
  34778.6085     0.87144E+02 
  34810.8706     0.88067E+02 
  34843.1328     0.88995E+02 
  34875.3950     0.89927E+02 
  34907.6571     0.90864E+02 
  34939.9193     0.91805E+02 
  34972.1814     0.92751E+02 
  35004.4436     0.93702E+02 
  35036.7058     0.94656E+02 
  35068.9679     0.95615E+02 
  35101.2301     0.96579E+02 
  35133.4922     0.97546E+02 
  35165.7544     0.98518E+02 
  35198.0166     0.99493E+02 
  35230.2787     0.10047E+03 
  35262.5409     0.10146E+03 
  35294.8030     0.10244E+03 
  35327.0652     0.10343E+03 
  35359.3274     0.10443E+03 
  35391.5895     0.10543E+03 
  35423.8517     0.10643E+03 
  35456.1138     0.10743E+03 
  35488.3760     0.10844E+03 
  35520.6382     0.10946E+03 
  35552.9003     0.11047E+03 
  35585.1625     0.11149E+03 
  35617.4246     0.11251E+03 
  35649.6868     0.11354E+03 
  35681.9490     0.11456E+03 
  35714.2111     0.11559E+03 
  35746.4733     0.11663E+03 
  35778.7354     0.11766E+03 
  35810.9976     0.11870E+03 
  35843.2598     0.11974E+03 
  35875.5219     0.12079E+03 
  35907.7841     0.12183E+03 
  35940.0462     0.12288E+03 
  35972.3084     0.12393E+03 
  36004.5706     0.12499E+03 
  36036.8327     0.12604E+03 
  36069.0949     0.12710E+03 
  36101.3570     0.12816E+03 
  36133.6192     0.12922E+03 
  36165.8814     0.13028E+03 
  36198.1435     0.13134E+03 
  36230.4057     0.13241E+03 
  36262.6678     0.13347E+03 
  36294.9300     0.13454E+03 
  36327.1922     0.13561E+03 
  36359.4543     0.13668E+03 
  36391.7165     0.13775E+03 
  36423.9786     0.13882E+03 
  36456.2408     0.13989E+03 
  36488.5030     0.14097E+03 
  36520.7651     0.14204E+03 
  36553.0273     0.14312E+03 
  36585.2894     0.14419E+03 
  36617.5516     0.14526E+03 
  36649.8138     0.14634E+03 
  36682.0759     0.14742E+03 
  36714.3381     0.14849E+03 
  36746.6002     0.14957E+03 
  36778.8624     0.15064E+03 
  36811.1246     0.15172E+03 
  36843.3867     0.15279E+03 
  36875.6489     0.15386E+03 
  36907.9110     0.15494E+03 
  36940.1732     0.15601E+03 
  36972.4354     0.15708E+03 
  37004.6975     0.15815E+03 
  37036.9597     0.15922E+03 
  37069.2218     0.16029E+03 
  37101.4840     0.16136E+03 
  37133.7462     0.16242E+03 
  37166.0083     0.16349E+03 
  37198.2705     0.16455E+03 
  37230.5326     0.16561E+03 
  37262.7948     0.16667E+03 
  37295.0570     0.16773E+03 
  37327.3191     0.16878E+03 
  37359.5813     0.16983E+03 
  37391.8434     0.17089E+03 
  37424.1056     0.17193E+03 
  37456.3678     0.17298E+03 
  37488.6299     0.17402E+03 
  37520.8921     0.17507E+03 
  37553.1542     0.17610E+03 
  37585.4164     0.17714E+03 
  37617.6786     0.17817E+03 
  37649.9407     0.17920E+03 
  37682.2029     0.18023E+03 
  37714.4650     0.18125E+03 
  37746.7272     0.18227E+03 
  37778.9894     0.18329E+03 
  37811.2515     0.18430E+03 
  37843.5137     0.18531E+03 
  37875.7758     0.18631E+03 
  37908.0380     0.18731E+03 
  37940.3002     0.18831E+03 
  37972.5623     0.18930E+03 
  38004.8245     0.19029E+03 
  38037.0866     0.19128E+03 
  38069.3488     0.19226E+03 
  38101.6110     0.19323E+03 
  38133.8731     0.19420E+03 
  38166.1353     0.19517E+03 
  38198.3974     0.19613E+03 
  38230.6596     0.19709E+03 
  38262.9218     0.19804E+03 
  38295.1839     0.19899E+03 
  38327.4461     0.19993E+03 
  38359.7082     0.20086E+03 
  38391.9704     0.20179E+03 
  38424.2326     0.20272E+03 
  38456.4947     0.20364E+03 
  38488.7569     0.20455E+03 
  38521.0190     0.20546E+03 
  38553.2812     0.20636E+03 
  38585.5434     0.20726E+03 
  38617.8055     0.20815E+03 
  38650.0677     0.20903E+03 
  38682.3298     0.20991E+03 
  38714.5920     0.21078E+03 
  38746.8542     0.21165E+03 
  38779.1163     0.21251E+03 
  38811.3785     0.21336E+03 
  38843.6406     0.21420E+03 
  38875.9028     0.21504E+03 
  38908.1650     0.21587E+03 
  38940.4271     0.21670E+03 
  38972.6893     0.21752E+03 
  39004.9514     0.21833E+03 
  39037.2136     0.21913E+03 
  39069.4758     0.21993E+03 
  39101.7379     0.22072E+03 
  39134.0001     0.22150E+03 
  39166.2622     0.22227E+03 
  39198.5244     0.22304E+03 
  39230.7866     0.22380E+03 
  39263.0487     0.22455E+03 
  39295.3109     0.22529E+03 
  39327.5730     0.22603E+03 
  39359.8352     0.22676E+03 
  39392.0974     0.22748E+03 
  39424.3595     0.22819E+03 
  39456.6217     0.22889E+03 
  39488.8838     0.22959E+03 
  39521.1460     0.23028E+03 
  39553.4082     0.23095E+03 
  39585.6703     0.23163E+03 
  39617.9325     0.23229E+03 
  39650.1946     0.23294E+03 
  39682.4568     0.23359E+03 
  39714.7190     0.23422E+03 
  39746.9811     0.23485E+03 
  39779.2433     0.23547E+03 
  39811.5054     0.23608E+03 
  39843.7676     0.23668E+03 
  39876.0298     0.23728E+03 
  39908.2919     0.23786E+03 
  39940.5541     0.23843E+03 
  39972.8162     0.23900E+03 
  40005.0784     0.23956E+03 
  40037.3406     0.24011E+03 
  40069.6027     0.24064E+03 
  40101.8649     0.24117E+03 
  40134.1270     0.24169E+03 
  40166.3892     0.24221E+03 
  40198.6514     0.24271E+03 
  40230.9135     0.24320E+03 
  40263.1757     0.24368E+03 
  40295.4378     0.24416E+03 
  40327.7000     0.24462E+03 
  40359.9622     0.24508E+03 
  40392.2243     0.24552E+03 
  40424.4865     0.24596E+03 
  40456.7486     0.24638E+03 
  40489.0108     0.24680E+03 
  40521.2730     0.24720E+03 
  40553.5351     0.24760E+03 
  40585.7973     0.24799E+03 
  40618.0594     0.24837E+03 
  40650.3216     0.24874E+03 
  40682.5838     0.24909E+03 
  40714.8459     0.24944E+03 
  40747.1081     0.24978E+03 
  40779.3702     0.25011E+03 
  40811.6324     0.25043E+03 
  40843.8946     0.25074E+03 
  40876.1567     0.25104E+03 
  40908.4189     0.25133E+03 
  40940.6810     0.25161E+03 
  40972.9432     0.25188E+03 
  41005.2054     0.25214E+03 
  41037.4675     0.25239E+03 
  41069.7297     0.25263E+03 
  41101.9918     0.25286E+03 
  41134.2540     0.25308E+03 
  41166.5162     0.25329E+03 
  41198.7783     0.25349E+03 
  41231.0405     0.25368E+03 
  41263.3026     0.25386E+03 
  41295.5648     0.25403E+03 
  41327.8270     0.25419E+03 
  41360.0891     0.25434E+03 
  41392.3513     0.25449E+03 
  41424.6134     0.25462E+03 
  41456.8756     0.25474E+03 
  41489.1378     0.25485E+03 
  41521.3999     0.25495E+03 
  41553.6621     0.25505E+03 
  41585.9242     0.25513E+03 
  41618.1864     0.25520E+03 
  41650.4486     0.25526E+03 
  41682.7107     0.25532E+03 
  41714.9729     0.25536E+03 
  41747.2350     0.25539E+03 
  41779.4972     0.25542E+03 
  41811.7594     0.25543E+03 
  41844.0215     0.25544E+03 
  41876.2837     0.25543E+03 
  41908.5458     0.25542E+03 
  41940.8080     0.25539E+03 
  41973.0702     0.25536E+03 
  42005.3323     0.25531E+03 
  42037.5945     0.25526E+03 
  42069.8566     0.25520E+03 
  42102.1188     0.25513E+03 
  42134.3810     0.25505E+03 
  42166.6431     0.25496E+03 
  42198.9053     0.25486E+03 
  42231.1674     0.25475E+03 
  42263.4296     0.25463E+03 
  42295.6918     0.25450E+03 
  42327.9539     0.25436E+03 
  42360.2161     0.25422E+03 
  42392.4782     0.25406E+03 
  42424.7404     0.25390E+03 
  42457.0026     0.25372E+03 
  42489.2647     0.25354E+03 
  42521.5269     0.25335E+03 
  42553.7890     0.25315E+03 
  42586.0512     0.25294E+03 
  42618.3134     0.25272E+03 
  42650.5755     0.25250E+03 
  42682.8377     0.25226E+03 
  42715.0998     0.25202E+03 
  42747.3620     0.25176E+03 
  42779.6242     0.25150E+03 
  42811.8863     0.25123E+03 
  42844.1485     0.25095E+03 
  42876.4106     0.25067E+03 
  42908.6728     0.25037E+03 
  42940.9350     0.25007E+03 
  42973.1971     0.24976E+03 
  43005.4593     0.24944E+03 
  43037.7214     0.24911E+03 
  43069.9836     0.24877E+03 
  43102.2458     0.24843E+03 
  43134.5079     0.24808E+03 
  43166.7701     0.24772E+03 
  43199.0322     0.24735E+03 
  43231.2944     0.24697E+03 
  43263.5566     0.24659E+03 
  43295.8187     0.24619E+03 
  43328.0809     0.24580E+03 
  43360.3430     0.24539E+03 
  43392.6052     0.24497E+03 
  43424.8674     0.24455E+03 
  43457.1295     0.24412E+03 
  43489.3917     0.24369E+03 
  43521.6538     0.24324E+03 
  43553.9160     0.24279E+03 
  43586.1782     0.24233E+03 
  43618.4403     0.24187E+03 
  43650.7025     0.24139E+03 
  43682.9646     0.24091E+03 
  43715.2268     0.24043E+03 
  43747.4890     0.23993E+03 
  43779.7511     0.23943E+03 
  43812.0133     0.23893E+03 
  43844.2754     0.23841E+03 
  43876.5376     0.23789E+03 
  43908.7998     0.23737E+03 
  43941.0619     0.23683E+03 
  43973.3241     0.23630E+03 
  44005.5862     0.23575E+03 
  44037.8484     0.23520E+03 
  44070.1106     0.23464E+03 
  44102.3727     0.23408E+03 
  44134.6349     0.23351E+03 
  44166.8970     0.23293E+03 
  44199.1592     0.23235E+03 
  44231.4214     0.23176E+03 
  44263.6835     0.23117E+03 
  44295.9457     0.23057E+03 
  44328.2078     0.22996E+03 
  44360.4700     0.22935E+03 
  44392.7322     0.22873E+03 
  44424.9943     0.22811E+03 
  44457.2565     0.22749E+03 
  44489.5186     0.22685E+03 
  44521.7808     0.22622E+03 
  44554.0430     0.22557E+03 
  44586.3051     0.22493E+03 
  44618.5673     0.22427E+03 
  44650.8294     0.22362E+03 
  44683.0916     0.22295E+03 
  44715.3538     0.22229E+03 
  44747.6159     0.22162E+03 
  44779.8781     0.22094E+03 
  44812.1402     0.22026E+03 
  44844.4024     0.21957E+03 
  44876.6646     0.21888E+03 
  44908.9267     0.21819E+03 
  44941.1889     0.21749E+03 
  44973.4510     0.21679E+03 
  45005.7132     0.21608E+03 
  45037.9754     0.21537E+03 
  45070.2375     0.21466E+03 
  45102.4997     0.21394E+03 
  45134.7618     0.21321E+03 
  45167.0240     0.21249E+03 
  45199.2862     0.21176E+03 
  45231.5483     0.21102E+03 
  45263.8105     0.21029E+03 
  45296.0726     0.20955E+03 
  45328.3348     0.20880E+03 
  45360.5970     0.20805E+03 
  45392.8591     0.20730E+03 
  45425.1213     0.20655E+03 
  45457.3834     0.20579E+03 
  45489.6456     0.20503E+03 
  45521.9078     0.20427E+03 
  45554.1699     0.20350E+03 
  45586.4321     0.20273E+03 
  45618.6942     0.20196E+03 
  45650.9564     0.20118E+03 
  45683.2186     0.20041E+03 
  45715.4807     0.19963E+03 
  45747.7429     0.19884E+03 
  45780.0050     0.19806E+03 
  45812.2672     0.19727E+03 
  45844.5294     0.19648E+03 
  45876.7915     0.19569E+03 
  45909.0537     0.19490E+03 
  45941.3158     0.19410E+03 
  45973.5780     0.19330E+03 
  46005.8402     0.19250E+03 
  46038.1023     0.19170E+03 
  46070.3645     0.19089E+03 
  46102.6266     0.19009E+03 
  46134.8888     0.18928E+03 
  46167.1510     0.18847E+03 
  46199.4131     0.18766E+03 
  46231.6753     0.18685E+03 
  46263.9374     0.18603E+03 
  46296.1996     0.18522E+03 
  46328.4618     0.18440E+03 
  46360.7239     0.18358E+03 
  46392.9861     0.18276E+03 
  46425.2482     0.18194E+03 
  46457.5104     0.18112E+03 
  46489.7726     0.18029E+03 
  46522.0347     0.17947E+03 
  46554.2969     0.17864E+03 
  46586.5590     0.17782E+03 
  46618.8212     0.17699E+03 
  46651.0834     0.17616E+03 
  46683.3455     0.17534E+03 
  46715.6077     0.17451E+03 
  46747.8698     0.17368E+03 
  46780.1320     0.17285E+03 
  46812.3942     0.17202E+03 
  46844.6563     0.17119E+03 
  46876.9185     0.17035E+03 
  46909.1806     0.16952E+03 
  46941.4428     0.16869E+03 
  46973.7050     0.16786E+03 
  47005.9671     0.16702E+03 
  47038.2293     0.16619E+03 
  47070.4914     0.16536E+03 
  47102.7536     0.16453E+03 
  47135.0158     0.16369E+03 
  47167.2779     0.16286E+03 
  47199.5401     0.16203E+03 
  47231.8022     0.16120E+03 
  47264.0644     0.16036E+03 
  47296.3266     0.15953E+03 
  47328.5887     0.15870E+03 
  47360.8509     0.15787E+03 
  47393.1130     0.15704E+03 
  47425.3752     0.15621E+03 
  47457.6374     0.15538E+03 
  47489.8995     0.15455E+03 
  47522.1617     0.15372E+03 
  47554.4238     0.15289E+03 
  47586.6860     0.15207E+03 
  47618.9482     0.15124E+03 
  47651.2103     0.15042E+03 
  47683.4725     0.14959E+03 
  47715.7346     0.14877E+03 
  47747.9968     0.14794E+03 
  47780.2590     0.14712E+03 
  47812.5211     0.14630E+03 
  47844.7833     0.14548E+03 
  47877.0454     0.14466E+03 
  47909.3076     0.14385E+03 
  47941.5698     0.14303E+03 
  47973.8319     0.14221E+03 
  48006.0941     0.14140E+03 
  48038.3562     0.14059E+03 
  48070.6184     0.13978E+03 
  48102.8806     0.13897E+03 
  48135.1427     0.13816E+03 
  48167.4049     0.13735E+03 
  48199.6670     0.13655E+03 
  48231.9292     0.13574E+03 
  48264.1914     0.13494E+03 
  48296.4535     0.13414E+03 
  48328.7157     0.13334E+03 
  48360.9778     0.13254E+03 
  48393.2400     0.13175E+03 
  48425.5022     0.13095E+03 
  48457.7643     0.13016E+03 
  48490.0265     0.12937E+03 
  48522.2886     0.12858E+03 
  48554.5508     0.12779E+03 
  48586.8130     0.12701E+03 
  48619.0751     0.12622E+03 
  48651.3373     0.12544E+03 
  48683.5994     0.12466E+03 
  48715.8616     0.12389E+03 
  48748.1238     0.12311E+03 
  48780.3859     0.12234E+03 
  48812.6481     0.12157E+03 
  48844.9102     0.12080E+03 
  48877.1724     0.12003E+03 
  48909.4346     0.11927E+03 
  48941.6967     0.11850E+03 
  48973.9589     0.11774E+03 
  49006.2210     0.11699E+03 
  49038.4832     0.11623E+03 
  49070.7454     0.11548E+03 
  49103.0075     0.11472E+03 
  49135.2697     0.11398E+03 
  49167.5318     0.11323E+03 
  49199.7940     0.11248E+03 
  49232.0562     0.11174E+03 
  49264.3183     0.11100E+03 
  49296.5805     0.11027E+03 
  49328.8426     0.10953E+03 
  49361.1048     0.10880E+03 
  49393.3670     0.10807E+03 
  49425.6291     0.10734E+03 
  49457.8913     0.10662E+03 
  49490.1534     0.10590E+03 
  49522.4156     0.10518E+03 
  49554.6778     0.10446E+03 
  49586.9399     0.10375E+03 
  49619.2021     0.10304E+03 
  49651.4642     0.10233E+03 
  49683.7264     0.10162E+03 
  49715.9886     0.10092E+03 
  49748.2507     0.10022E+03 
  49780.5129     0.99518E+02 
  49812.7750     0.98823E+02 
  49845.0372     0.98130E+02 
  49877.2994     0.97440E+02 
  49909.5615     0.96753E+02 
  49941.8237     0.96069E+02 
  49974.0858     0.95387E+02 
  50006.3480     0.94708E+02 
  50038.6102     0.94032E+02 
  50070.8723     0.93359E+02 
  50103.1345     0.92689E+02 
  50135.3966     0.92021E+02 
  50167.6588     0.91357E+02 
  50199.9210     0.90695E+02 
  50232.1831     0.90036E+02 
  50264.4453     0.89380E+02 
  50296.7074     0.88727E+02 
  50328.9696     0.88077E+02 
  50361.2318     0.87429E+02 
  50393.4939     0.86785E+02 
  50425.7561     0.86143E+02 
  50458.0182     0.85505E+02 
  50490.2804     0.84869E+02 
  50522.5426     0.84237E+02 
  50554.8047     0.83607E+02 
  50587.0669     0.82980E+02 
  50619.3290     0.82356E+02 
  50651.5912     0.81735E+02 
  50683.8534     0.81118E+02 
  50716.1155     0.80503E+02 
  50748.3777     0.79891E+02 
  50780.6398     0.79282E+02 
  50812.9020     0.78676E+02 
  50845.1642     0.78073E+02 
  50877.4263     0.77473E+02 
  50909.6885     0.76876E+02 
  50941.9506     0.76282E+02 
  50974.2128     0.75691E+02 
  51006.4750     0.75103E+02 
  51038.7371     0.74518E+02 
  51070.9993     0.73936E+02 
  51103.2614     0.73358E+02 
  51135.5236     0.72782E+02 
  51167.7858     0.72209E+02 
  51200.0479     0.71639E+02 
  51232.3101     0.71072E+02 
  51264.5722     0.70508E+02 
  51296.8344     0.69947E+02 
  51329.0966     0.69390E+02 
  51361.3587     0.68835E+02 
  51393.6209     0.68283E+02 
  51425.8830     0.67734E+02 
  51458.1452     0.67189E+02 
  51490.4074     0.66646E+02 
  51522.6695     0.66106E+02 
  51554.9317     0.65570E+02 
  51587.1938     0.65036E+02 
  51619.4560     0.64505E+02 
  51651.7182     0.63977E+02 
  51683.9803     0.63453E+02 
  51716.2425     0.62931E+02 
  51748.5046     0.62412E+02 
  51780.7668     0.61897E+02 
  51813.0290     0.61384E+02 
  51845.2911     0.60874E+02 
  51877.5533     0.60367E+02 
  51909.8154     0.59863E+02 
  51942.0776     0.59363E+02 
  51974.3398     0.58865E+02 
  52006.6019     0.58370E+02 
  52038.8641     0.57878E+02 
  52071.1262     0.57389E+02 
  52103.3884     0.56903E+02 
  52135.6506     0.56419E+02 
  52167.9127     0.55939E+02 
  52200.1749     0.55462E+02 
  52232.4370     0.54987E+02 
  52264.6992     0.54516E+02 
  52296.9614     0.54047E+02 
  52329.2235     0.53582E+02 
  52361.4857     0.53119E+02 
  52393.7478     0.52659E+02 
  52426.0100     0.52202E+02 
  52458.2722     0.51748E+02 
  52490.5343     0.51296E+02 
  52522.7965     0.50848E+02 
  52555.0586     0.50402E+02 
  52587.3208     0.49960E+02 
  52619.5830     0.49520E+02 
  52651.8451     0.49083E+02 
  52684.1073     0.48648E+02 
  52716.3694     0.48217E+02 
  52748.6316     0.47788E+02 
  52780.8938     0.47362E+02 
  52813.1559     0.46939E+02 
  52845.4181     0.46519E+02 
  52877.6802     0.46102E+02 
  52909.9424     0.45687E+02 
  52942.2046     0.45275E+02 
  52974.4667     0.44865E+02 
  53006.7289     0.44459E+02 
  53038.9910     0.44055E+02 
  53071.2532     0.43654E+02 
  53103.5154     0.43256E+02 
  53135.7775     0.42860E+02 
  53168.0397     0.42467E+02 
  53200.3018     0.42076E+02 
  53232.5640     0.41689E+02 
  53264.8262     0.41304E+02 
  53297.0883     0.40921E+02 
  53329.3505     0.40541E+02 
  53361.6126     0.40164E+02 
  53393.8748     0.39790E+02 
  53426.1370     0.39418E+02 
  53458.3991     0.39049E+02 
  53490.6613     0.38682E+02 
  53522.9234     0.38318E+02 
  53555.1856     0.37956E+02 
  53587.4478     0.37597E+02 
  53619.7099     0.37240E+02 
  53651.9721     0.36886E+02 
  53684.2342     0.36535E+02 
  53716.4964     0.36186E+02 
  53748.7586     0.35840E+02 
  53781.0207     0.35496E+02 
  53813.2829     0.35154E+02 
  53845.5450     0.34815E+02 
  53877.8072     0.34479E+02 
  53910.0694     0.34144E+02 
  53942.3315     0.33813E+02 
  53974.5937     0.33483E+02 
  54006.8558     0.33157E+02 
  54039.1180     0.32832E+02 
  54071.3802     0.32510E+02 
  54103.6423     0.32190E+02 
  54135.9045     0.31873E+02 
  54168.1666     0.31558E+02 
  54200.4288     0.31245E+02 
  54232.6910     0.30935E+02 
  54264.9531     0.30627E+02 
  54297.2153     0.30321E+02 
  54329.4774     0.30018E+02 
  54361.7396     0.29717E+02 
  54394.0018     0.29418E+02 
  54426.2639     0.29121E+02 
  54458.5261     0.28827E+02 
  54490.7882     0.28535E+02 
  54523.0504     0.28245E+02 
  54555.3126     0.27957E+02 
  54587.5747     0.27672E+02 
  54619.8369     0.27388E+02 
  54652.0990     0.27107E+02 
  54684.3612     0.26828E+02 
  54716.6234     0.26552E+02 
  54748.8855     0.26277E+02 
  54781.1477     0.26004E+02 
  54813.4098     0.25734E+02 
  54845.6720     0.25466E+02 
  54877.9342     0.25200E+02 
  54910.1963     0.24935E+02 
  54942.4585     0.24673E+02 
  54974.7206     0.24414E+02 
  55006.9828     0.24156E+02 
  55039.2450     0.23900E+02 
  55071.5071     0.23646E+02 
  55103.7693     0.23394E+02 
  55136.0314     0.23144E+02 
  55168.2936     0.22896E+02 
  55200.5558     0.22650E+02 
  55232.8179     0.22407E+02 
  55265.0801     0.22165E+02 
  55297.3422     0.21925E+02 
  55329.6044     0.21687E+02 
  55361.8666     0.21450E+02 
  55394.1287     0.21216E+02 
  55426.3909     0.20984E+02 
  55458.6530     0.20753E+02 
  55490.9152     0.20525E+02 
  55523.1774     0.20298E+02 
  55555.4395     0.20073E+02 
  55587.7017     0.19850E+02 
  55619.9638     0.19629E+02 
  55652.2260     0.19410E+02 
  55684.4882     0.19192E+02 
  55716.7503     0.18976E+02 
  55749.0125     0.18762E+02 
  55781.2746     0.18550E+02 
  55813.5368     0.18340E+02 
  55845.7990     0.18131E+02 
  55878.0611     0.17924E+02 
  55910.3233     0.17719E+02 
  55942.5854     0.17516E+02 
  55974.8476     0.17314E+02 
  56007.1098     0.17114E+02 
  56039.3719     0.16915E+02 
  56071.6341     0.16719E+02 
  56103.8962     0.16523E+02 
  56136.1584     0.16330E+02 
  56168.4206     0.16138E+02 
  56200.6827     0.15948E+02 
  56232.9449     0.15760E+02 
  56265.2070     0.15573E+02 
  56297.4692     0.15387E+02 
  56329.7314     0.15204E+02 
  56361.9935     0.15022E+02 
  56394.2557     0.14841E+02 
  56426.5178     0.14662E+02 
  56458.7800     0.14484E+02 
  56491.0422     0.14309E+02 
  56523.3043     0.14134E+02 
  56555.5665     0.13961E+02 
  56587.8286     0.13790E+02 
  56620.0908     0.13620E+02 
  56652.3530     0.13452E+02 
  56684.6151     0.13285E+02 
  56716.8773     0.13119E+02 
  56749.1394     0.12955E+02 
  56781.4016     0.12793E+02 
  56813.6638     0.12632E+02 
  56845.9259     0.12472E+02 
  56878.1881     0.12314E+02 
  56910.4502     0.12157E+02 
  56942.7124     0.12001E+02 
  56974.9746     0.11847E+02 
  57007.2367     0.11694E+02 
  57039.4989     0.11543E+02 
  57071.7610     0.11393E+02 
  57104.0232     0.11244E+02 
  57136.2854     0.11097E+02 
  57168.5475     0.10951E+02 
  57200.8097     0.10807E+02 
  57233.0718     0.10663E+02 
  57265.3340     0.10521E+02 
  57297.5962     0.10380E+02 
  57329.8583     0.10241E+02 
  57362.1205     0.10103E+02 
  57394.3826     0.99659E+01 
  57426.6448     0.98303E+01 
  57458.9070     0.96959E+01 
  57491.1691     0.95627E+01 
  57523.4313     0.94308E+01 
  57555.6934     0.93001E+01 
  57587.9556     0.91706E+01 
  57620.2178     0.90423E+01 
  57652.4799     0.89153E+01 
  57684.7421     0.87894E+01 
  57717.0042     0.86647E+01 
  57749.2664     0.85412E+01 
  57781.5286     0.84188E+01 
  57813.7907     0.82976E+01 
  57846.0529     0.81776E+01 
  57878.3150     0.80586E+01 
  57910.5772     0.79409E+01 
  57942.8394     0.78242E+01 
  57975.1015     0.77087E+01 
  58007.3637     0.75943E+01 
  58039.6258     0.74809E+01 
  58071.8880     0.73687E+01 
  58104.1502     0.72576E+01 
  58136.4123     0.71475E+01 
  58168.6745     0.70385E+01 
  58200.9366     0.69306E+01 
  58233.1988     0.68238E+01 
  58265.4610     0.67180E+01 
  58297.7231     0.66132E+01 
  58329.9853     0.65095E+01 
  58362.2474     0.64068E+01 
  58394.5096     0.63051E+01 
  58426.7718     0.62045E+01 
  58459.0339     0.61048E+01 
  58491.2961     0.60062E+01 
  58523.5582     0.59085E+01 
  58555.8204     0.58119E+01 
  58588.0826     0.57162E+01 
  58620.3447     0.56215E+01 
  58652.6069     0.55278E+01 
  58684.8690     0.54350E+01 
  58717.1312     0.53432E+01 
  58749.3934     0.52523E+01 
  58781.6555     0.51624E+01 
  58813.9177     0.50734E+01 
  58846.1798     0.49854E+01 
  58878.4420     0.48983E+01 
  58910.7042     0.48121E+01 
  58942.9663     0.47268E+01 
  58975.2285     0.46424E+01 
  59007.4906     0.45590E+01 
  59039.7528     0.44764E+01 
  59072.0150     0.43948E+01 
  59104.2771     0.43140E+01 
  59136.5393     0.42341E+01 
  59168.8014     0.41550E+01 
  59201.0636     0.40769E+01 
  59233.3258     0.39996E+01 
  59265.5879     0.39232E+01 
  59297.8501     0.38476E+01 
  59330.1122     0.37729E+01 
  59362.3744     0.36990E+01 
  59394.6366     0.36260E+01 
  59426.8987     0.35538E+01 
  59459.1609     0.34825E+01 
  59491.4230     0.34119E+01 
  59523.6852     0.33422E+01 
  59555.9474     0.32733E+01 
  59588.2095     0.32053E+01 
  59620.4717     0.31380E+01 
  59652.7338     0.30715E+01 
  59684.9960     0.30059E+01 
  59717.2582     0.29410E+01 
  59749.5203     0.28770E+01 
  59781.7825     0.28137E+01 
  59814.0446     0.27512E+01 
  59846.3068     0.26895E+01 
  59878.5690     0.26286E+01 
  59910.8311     0.25684E+01 
  59943.0933     0.25091E+01 
  59975.3554     0.24505E+01 
  60007.6176     0.23926E+01 
  60039.8798     0.23355E+01 
  60072.1419     0.22792E+01 
  60104.4041     0.22236E+01 
  60136.6662     0.21688E+01 
  60168.9284     0.21148E+01 
  60201.1906     0.20614E+01 
  60233.4527     0.20089E+01 
  60265.7149     0.19570E+01 
  60297.9770     0.19059E+01 
  60330.2392     0.18556E+01 
  60362.5014     0.18060E+01 
  60394.7635     0.17571E+01 
  60427.0257     0.17089E+01 
  60459.2878     0.16615E+01 
  60491.5500     0.16148E+01 
  60523.8122     0.15688E+01 
  60556.0743     0.15235E+01 
  60588.3365     0.14789E+01 
  60620.5986     0.14351E+01 
  60652.8608     0.13920E+01 
  60685.1230     0.13496E+01 
  60717.3851     0.13079E+01 
  60749.6473     0.12669E+01 
  60781.9094     0.12266E+01 
  60814.1716     0.11871E+01 
  60846.4338     0.11482E+01 
  60878.6959     0.11101E+01 
  60910.9581     0.10726E+01 
  60943.2202     0.10359E+01 
  60975.4824     0.99986E+00 
  61007.7446     0.96452E+00 
  61040.0067     0.92989E+00 
  61072.2689     0.89597E+00 
  61104.5310     0.86274E+00 
  61136.7932     0.83021E+00 
  61169.0554     0.79839E+00 
  61201.3175     0.76727E+00 
  61233.5797     0.73685E+00 
  61265.8418     0.70713E+00 
  61298.1040     0.67811E+00 
  61330.3662     0.64979E+00 
  61362.6283     0.62218E+00 
  61394.8905     0.59527E+00 
  61427.1526     0.56907E+00 
  61459.4148     0.54357E+00 
  61491.6770     0.51877E+00 
  61523.9391     0.49469E+00 
  61556.2013     0.47131E+00 
  61588.4634     0.44864E+00 
  61620.7256     0.42668E+00 
  61652.9878     0.40543E+00 
  61685.2499     0.38490E+00 
  61717.5121     0.36508E+00 
  61749.7742     0.34598E+00 
  61782.0364     0.32760E+00 
  61814.2986     0.30995E+00 
  61846.5607     0.29301E+00 
  61878.8229     0.27681E+00 
  61911.0850     0.26133E+00 
  61943.3472     0.24658E+00 
  61975.6094     0.23257E+00 
  62007.8715     0.21930E+00 
  62040.1337     0.20677E+00 
  62072.3958     0.19498E+00 
  62104.6580     0.18394E+00 
  62136.9202     0.17365E+00 
  62169.1823     0.16412E+00 
  62201.4445     0.15534E+00 
  62233.7066     0.14733E+00 
  62265.9688     0.14009E+00 
  62298.2310     0.13361E+00 
  62330.4931     0.12792E+00 
  62362.7553     0.12300E+00 
  62395.0174     0.11887E+00 
  62427.2796     0.11552E+00 
  62459.5418     0.11298E+00 
  62491.8039     0.11123E+00 
  62524.0661     0.11029E+00 
  62556.3282     0.11016E+00 
  62588.5904     0.11086E+00 
  62620.8526     0.11237E+00 
  62653.1147     0.11472E+00 
  62685.3769     0.11790E+00 
  62717.6390     0.12192E+00 
  62749.9012     0.12680E+00 
  62782.1634     0.13253E+00 
  62814.4255     0.13913E+00 
  62846.6877     0.14660E+00 
  62878.9498     0.15495E+00 
  62911.2120     0.16419E+00 
  62943.4742     0.17432E+00 
  62975.7363     0.18536E+00 
  63007.9985     0.19731E+00 
  63040.2606     0.21019E+00 
  63072.5228     0.22399E+00 
  63104.7850     0.23873E+00 
  63137.0471     0.25443E+00 
  63169.3093     0.27108E+00 
  63201.5714     0.28870E+00 
  63233.8336     0.30731E+00 
  63266.0958     0.32690E+00 
  63298.3579     0.34750E+00 
  63330.6201     0.36911E+00 
  63362.8822     0.39174E+00 
  63395.1444     0.41541E+00 
  63427.4066     0.44012E+00 
  63459.6687     0.46590E+00 
  63491.9309     0.49275E+00 
  63524.1930     0.52069E+00 
  63556.4552     0.54972E+00 
  63588.7174     0.57987E+00 
  63620.9795     0.61114E+00 
  63653.2417     0.64356E+00 
  63685.5038     0.67713E+00 
  63717.7660     0.71187E+00 
  63750.0282     0.74779E+00 
  63782.2903     0.78492E+00 
  63814.5525     0.82327E+00 
  63846.8146     0.86284E+00 
  63879.0768     0.90367E+00 
  63911.3390     0.94577E+00 
  63943.6011     0.98915E+00 
  63975.8633     0.10338E+01 
  64008.1254     0.10798E+01 
  64040.3876     0.11272E+01 
  64072.6498     0.11759E+01 
  64104.9119     0.12260E+01 
  64137.1741     0.12775E+01 
  64169.4362     0.13304E+01 
  64201.6984     0.13847E+01 
  64233.9606     0.14405E+01 
  64266.2227     0.14978E+01 
  64298.4849     0.15566E+01 
  64330.7470     0.16170E+01 
  64363.0092     0.16789E+01 
  64395.2714     0.17423E+01 
  64427.5335     0.18074E+01 
  64459.7957     0.18741E+01 
  64492.0578     0.19424E+01 
  64524.3200     0.20125E+01 
  64556.5822     0.20842E+01 
  64588.8443     0.21577E+01 
  64621.1065     0.22329E+01 
  64653.3686     0.23099E+01 
  64685.6308     0.23888E+01 
  64717.8930     0.24695E+01 
  64750.1551     0.25521E+01 
  64782.4173     0.26366E+01 
  64814.6794     0.27230E+01 
  64846.9416     0.28114E+01 
  64879.2038     0.29018E+01 
  64911.4659     0.29943E+01 
  64943.7281     0.30889E+01 
  64975.9902     0.31855E+01 
  65008.2524     0.32843E+01 
  65040.5146     0.33853E+01 
  65072.7767     0.34886E+01 
  65105.0389     0.35941E+01 
  65137.3010     0.37019E+01 
  65169.5632     0.38120E+01 
  65201.8254     0.39246E+01 
  65234.0875     0.40395E+01 
  65266.3497     0.41570E+01 
  65298.6118     0.42770E+01 
  65330.8740     0.43995E+01 
  65363.1362     0.45246E+01 
  65395.3983     0.46524E+01 
  65427.6605     0.47829E+01 
  65459.9226     0.49161E+01 
  65492.1848     0.50522E+01 
  65524.4470     0.51910E+01 
  65556.7091     0.53328E+01 
  65588.9713     0.54776E+01 
  65621.2334     0.56254E+01 
  65653.4956     0.57762E+01 
  65685.7578     0.59302E+01 
  65718.0199     0.60873E+01 
  65750.2821     0.62477E+01 
  65782.5442     0.64114E+01 
  65814.8064     0.65784E+01 
  65847.0686     0.67489E+01 
  65879.3307     0.69229E+01 
  65911.5929     0.71004E+01 
  65943.8550     0.72815E+01 
  65976.1172     0.74664E+01 
  66008.3794     0.76549E+01 
  66040.6415     0.78474E+01 
  66072.9037     0.80437E+01 
  66105.1658     0.82440E+01 
  66137.4280     0.84483E+01 
  66169.6902     0.86568E+01 
  66201.9523     0.88694E+01 
  66234.2145     0.90864E+01 
  66266.4766     0.93077E+01 
  66298.7388     0.95335E+01 
  66331.0010     0.97638E+01 
  66363.2631     0.99987E+01 
  66395.5253     0.10238E+02 
  66427.7874     0.10483E+02 
  66460.0496     0.10732E+02 
  66492.3118     0.10986E+02 
  66524.5739     0.11246E+02 
  66556.8361     0.11510E+02 
  66589.0982     0.11780E+02 
  66621.3604     0.12055E+02 
  66653.6226     0.12336E+02 
  66685.8847     0.12622E+02 
  66718.1469     0.12914E+02 
  66750.4090     0.13212E+02 
  66782.6712     0.13516E+02 
  66814.9334     0.13825E+02 
  66847.1955     0.14141E+02 
  66879.4577     0.14463E+02 
  66911.7198     0.14792E+02 
  66943.9820     0.15127E+02 
  66976.2442     0.15468E+02 
  67008.5063     0.15817E+02 
  67040.7685     0.16172E+02 
  67073.0306     0.16534E+02 
  67105.2928     0.16903E+02 
  67137.5550     0.17280E+02 
  67169.8171     0.17664E+02 
  67202.0793     0.18056E+02 
  67234.3414     0.18455E+02 
  67266.6036     0.18862E+02 
  67298.8658     0.19277E+02 
  67331.1279     0.19700E+02 
  67363.3901     0.20132E+02 
  67395.6522     0.20572E+02 
  67427.9144     0.21021E+02 
  67460.1766     0.21478E+02 
  67492.4387     0.21944E+02 
  67524.7009     0.22420E+02 
  67556.9630     0.22905E+02 
  67589.2252     0.23399E+02 
  67621.4874     0.23903E+02 
  67653.7495     0.24416E+02 
  67686.0117     0.24940E+02 
  67718.2738     0.25474E+02 
  67750.5360     0.26018E+02 
  67782.7982     0.26573E+02 
  67815.0603     0.27139E+02 
  67847.3225     0.27715E+02 
  67879.5846     0.28303E+02 
  67911.8468     0.28902E+02 
  67944.1090     0.29513E+02 
  67976.3711     0.30135E+02 
  68008.6333     0.30770E+02 
  68040.8954     0.31416E+02 
  68073.1576     0.32076E+02 
  68105.4198     0.32747E+02 
  68137.6819     0.33432E+02 
  68169.9441     0.34130E+02 
  68202.2062     0.34842E+02 
  68234.4684     0.35567E+02 
  68266.7306     0.36305E+02 
  68298.9927     0.37058E+02 
  68331.2549     0.37826E+02 
  68363.5170     0.38608E+02 
  68395.7792     0.39405E+02 
  68428.0414     0.40217E+02 
  68460.3035     0.41044E+02 
  68492.5657     0.41888E+02 
  68524.8278     0.42747E+02 
  68557.0900     0.43622E+02 
  68589.3522     0.44515E+02 
  68621.6143     0.45423E+02 
  68653.8765     0.46350E+02 
  68686.1386     0.47293E+02 
  68718.4008     0.48254E+02 
  68750.6630     0.49234E+02 
  68782.9251     0.50231E+02 
  68815.1873     0.51248E+02 
  68847.4494     0.52283E+02 
  68879.7116     0.53338E+02 
  68911.9738     0.54412E+02 
  68944.2359     0.55506E+02 
  68976.4981     0.56621E+02 
  69008.7602     0.57756E+02 
  69041.0224     0.58913E+02 
  69073.2846     0.60090E+02 
  69105.5467     0.61290E+02 
  69137.8089     0.62511E+02 
  69170.0710     0.63755E+02 
  69202.3332     0.65022E+02 
  69234.5954     0.66312E+02 
  69266.8575     0.67625E+02 
  69299.1197     0.68963E+02 
  69331.3818     0.70325E+02 
  69363.6440     0.71711E+02 
  69395.9062     0.73123E+02 
  69428.1683     0.74560E+02 
  69460.4305     0.76023E+02 
  69492.6926     0.77513E+02 
  69524.9548     0.79029E+02 
  69557.2170     0.80573E+02 
  69589.4791     0.82144E+02 
  69621.7413     0.83743E+02 
  69654.0034     0.85371E+02 
  69686.2656     0.87027E+02 
  69718.5278     0.88713E+02 
  69750.7899     0.90429E+02 
  69783.0521     0.92175E+02 
  69815.3142     0.93952E+02 
  69847.5764     0.95760E+02 
  69879.8386     0.97600E+02 
  69912.1007     0.99472E+02 
  69944.3629     0.10138E+03 
  69976.6250     0.10331E+03 
  70008.8872     0.10529E+03 
  70041.1494     0.10729E+03 
  70073.4115     0.10933E+03 
  70105.6737     0.11141E+03 
  70137.9358     0.11352E+03 
  70170.1980     0.11566E+03 
  70202.4602     0.11785E+03 
  70234.7223     0.12007E+03 
  70266.9845     0.12233E+03 
  70299.2466     0.12462E+03 
  70331.5088     0.12696E+03 
  70363.7710     0.12933E+03 
  70396.0331     0.13175E+03 
  70428.2953     0.13420E+03 
  70460.5574     0.13670E+03 
  70492.8196     0.13924E+03 
  70525.0818     0.14181E+03 
  70557.3439     0.14444E+03 
  70589.6061     0.14710E+03 
  70621.8682     0.14981E+03 
  70654.1304     0.15256E+03 
  70686.3926     0.15536E+03 
  70718.6547     0.15821E+03 
  70750.9169     0.16109E+03 
  70783.1790     0.16403E+03 
  70815.4412     0.16701E+03 
  70847.7034     0.17005E+03 
  70879.9655     0.17313E+03 
  70912.2277     0.17625E+03 
  70944.4898     0.17943E+03 
  70976.7520     0.18266E+03 
  71009.0142     0.18594E+03 
  71041.2763     0.18927E+03 
  71073.5385     0.19265E+03 
  71105.8006     0.19609E+03 
  71138.0628     0.19958E+03 
  71170.3250     0.20312E+03 
  71202.5871     0.20672E+03 
  71234.8493     0.21037E+03 
  71267.1114     0.21408E+03 
  71299.3736     0.21785E+03 
  71331.6358     0.22167E+03 
  71363.8979     0.22555E+03 
  71396.1601     0.22949E+03 
  71428.4222     0.23349E+03 
  71460.6844     0.23754E+03 
  71492.9466     0.24166E+03 
  71525.2087     0.24584E+03 
  71557.4709     0.25008E+03 
  71589.7330     0.25438E+03 
  71621.9952     0.25875E+03 
  71654.2574     0.26318E+03 
  71686.5195     0.26767E+03 
  71718.7817     0.27223E+03 
  71751.0438     0.27685E+03 
  71783.3060     0.28154E+03 
  71815.5682     0.28630E+03 
  71847.8303     0.29112E+03 
  71880.0925     0.29602E+03 
  71912.3546     0.30098E+03 
  71944.6168     0.30601E+03 
  71976.8790     0.31111E+03 
  72009.1411     0.31628E+03 
  72041.4033     0.32152E+03 
  72073.6654     0.32684E+03 
  72105.9276     0.33222E+03 
  72138.1898     0.33768E+03 
  72170.4519     0.34322E+03 
  72202.7141     0.34883E+03 
  72234.9762     0.35451E+03 
  72267.2384     0.36027E+03 
  72299.5006     0.36611E+03 
  72331.7627     0.37202E+03 
  72364.0249     0.37801E+03 
  72396.2870     0.38408E+03 
  72428.5492     0.39023E+03 
  72460.8114     0.39645E+03 
  72493.0735     0.40276E+03 
  72525.3357     0.40915E+03 
  72557.5978     0.41562E+03 
  72589.8600     0.42217E+03 
