  32262.1600     0.15346E+02 
  32294.4222     0.15513E+02 
  32326.6843     0.15681E+02 
  32358.9465     0.15850E+02 
  32391.2086     0.16020E+02 
  32423.4708     0.16191E+02 
  32455.7330     0.16364E+02 
  32487.9951     0.16538E+02 
  32520.2573     0.16713E+02 
  32552.5194     0.16889E+02 
  32584.7816     0.17067E+02 
  32617.0438     0.17246E+02 
  32649.3059     0.17426E+02 
  32681.5681     0.17607E+02 
  32713.8302     0.17789E+02 
  32746.0924     0.17973E+02 
  32778.3546     0.18158E+02 
  32810.6167     0.18344E+02 
  32842.8789     0.18531E+02 
  32875.1410     0.18720E+02 
  32907.4032     0.18909E+02 
  32939.6654     0.19100E+02 
  32971.9275     0.19293E+02 
  33004.1897     0.19486E+02 
  33036.4518     0.19681E+02 
  33068.7140     0.19876E+02 
  33100.9762     0.20073E+02 
  33133.2383     0.20272E+02 
  33165.5005     0.20471E+02 
  33197.7626     0.20672E+02 
  33230.0248     0.20874E+02 
  33262.2870     0.21077E+02 
  33294.5491     0.21281E+02 
  33326.8113     0.21487E+02 
  33359.0734     0.21693E+02 
  33391.3356     0.21901E+02 
  33423.5978     0.22110E+02 
  33455.8599     0.22320E+02 
  33488.1221     0.22532E+02 
  33520.3842     0.22744E+02 
  33552.6464     0.22958E+02 
  33584.9086     0.23173E+02 
  33617.1707     0.23389E+02 
  33649.4329     0.23606E+02 
  33681.6950     0.23825E+02 
  33713.9572     0.24044E+02 
  33746.2194     0.24265E+02 
  33778.4815     0.24487E+02 
  33810.7437     0.24710E+02 
  33843.0058     0.24934E+02 
  33875.2680     0.25159E+02 
  33907.5302     0.25386E+02 
  33939.7923     0.25613E+02 
  33972.0545     0.25842E+02 
  34004.3166     0.26072E+02 
  34036.5788     0.26303E+02 
  34068.8410     0.26535E+02 
  34101.1031     0.26768E+02 
  34133.3653     0.27002E+02 
  34165.6274     0.27237E+02 
  34197.8896     0.27474E+02 
  34230.1518     0.27711E+02 
  34262.4139     0.27950E+02 
  34294.6761     0.28189E+02 
  34326.9382     0.28430E+02 
  34359.2004     0.28672E+02 
  34391.4626     0.28914E+02 
  34423.7247     0.29158E+02 
  34455.9869     0.29403E+02 
  34488.2490     0.29649E+02 
  34520.5112     0.29895E+02 
  34552.7734     0.30143E+02 
  34585.0355     0.30392E+02 
  34617.2977     0.30642E+02 
  34649.5598     0.30892E+02 
  34681.8220     0.31144E+02 
  34714.0842     0.31397E+02 
  34746.3463     0.31650E+02 
  34778.6085     0.31905E+02 
  34810.8706     0.32161E+02 
  34843.1328     0.32417E+02 
  34875.3950     0.32674E+02 
  34907.6571     0.32933E+02 
  34939.9193     0.33192E+02 
  34972.1814     0.33452E+02 
  35004.4436     0.33713E+02 
  35036.7058     0.33975E+02 
  35068.9679     0.34237E+02 
  35101.2301     0.34501E+02 
  35133.4922     0.34765E+02 
  35165.7544     0.35030E+02 
  35198.0166     0.35296E+02 
  35230.2787     0.35563E+02 
  35262.5409     0.35831E+02 
  35294.8030     0.36099E+02 
  35327.0652     0.36368E+02 
  35359.3274     0.36638E+02 
  35391.5895     0.36909E+02 
  35423.8517     0.37181E+02 
  35456.1138     0.37453E+02 
  35488.3760     0.37726E+02 
  35520.6382     0.37999E+02 
  35552.9003     0.38274E+02 
  35585.1625     0.38549E+02 
  35617.4246     0.38824E+02 
  35649.6868     0.39100E+02 
  35681.9490     0.39377E+02 
  35714.2111     0.39655E+02 
  35746.4733     0.39933E+02 
  35778.7354     0.40212E+02 
  35810.9976     0.40492E+02 
  35843.2598     0.40772E+02 
  35875.5219     0.41052E+02 
  35907.7841     0.41333E+02 
  35940.0462     0.41615E+02 
  35972.3084     0.41897E+02 
  36004.5706     0.42180E+02 
  36036.8327     0.42463E+02 
  36069.0949     0.42747E+02 
  36101.3570     0.43031E+02 
  36133.6192     0.43316E+02 
  36165.8814     0.43601E+02 
  36198.1435     0.43887E+02 
  36230.4057     0.44173E+02 
  36262.6678     0.44459E+02 
  36294.9300     0.44746E+02 
  36327.1922     0.45033E+02 
  36359.4543     0.45320E+02 
  36391.7165     0.45608E+02 
  36423.9786     0.45896E+02 
  36456.2408     0.46185E+02 
  36488.5030     0.46474E+02 
  36520.7651     0.46763E+02 
  36553.0273     0.47052E+02 
  36585.2894     0.47342E+02 
  36617.5516     0.47632E+02 
  36649.8138     0.47922E+02 
  36682.0759     0.48212E+02 
  36714.3381     0.48503E+02 
  36746.6002     0.48793E+02 
  36778.8624     0.49084E+02 
  36811.1246     0.49375E+02 
  36843.3867     0.49666E+02 
  36875.6489     0.49957E+02 
  36907.9110     0.50249E+02 
  36940.1732     0.50540E+02 
  36972.4354     0.50832E+02 
  37004.6975     0.51123E+02 
  37036.9597     0.51415E+02 
  37069.2218     0.51706E+02 
  37101.4840     0.51998E+02 
  37133.7462     0.52289E+02 
  37166.0083     0.52581E+02 
  37198.2705     0.52872E+02 
  37230.5326     0.53164E+02 
  37262.7948     0.53455E+02 
  37295.0570     0.53746E+02 
  37327.3191     0.54037E+02 
  37359.5813     0.54328E+02 
  37391.8434     0.54619E+02 
  37424.1056     0.54910E+02 
  37456.3678     0.55200E+02 
  37488.6299     0.55491E+02 
  37520.8921     0.55781E+02 
  37553.1542     0.56070E+02 
  37585.4164     0.56360E+02 
  37617.6786     0.56649E+02 
  37649.9407     0.56938E+02 
  37682.2029     0.57227E+02 
  37714.4650     0.57515E+02 
  37746.7272     0.57803E+02 
  37778.9894     0.58091E+02 
  37811.2515     0.58378E+02 
  37843.5137     0.58665E+02 
  37875.7758     0.58951E+02 
  37908.0380     0.59238E+02 
  37940.3002     0.59523E+02 
  37972.5623     0.59808E+02 
  38004.8245     0.60093E+02 
  38037.0866     0.60377E+02 
  38069.3488     0.60661E+02 
  38101.6110     0.60944E+02 
  38133.8731     0.61226E+02 
  38166.1353     0.61508E+02 
  38198.3974     0.61790E+02 
  38230.6596     0.62070E+02 
  38262.9218     0.62351E+02 
  38295.1839     0.62630E+02 
  38327.4461     0.62909E+02 
  38359.7082     0.63187E+02 
  38391.9704     0.63465E+02 
  38424.2326     0.63741E+02 
  38456.4947     0.64017E+02 
  38488.7569     0.64293E+02 
  38521.0190     0.64567E+02 
  38553.2812     0.64841E+02 
  38585.5434     0.65114E+02 
  38617.8055     0.65386E+02 
  38650.0677     0.65658E+02 
  38682.3298     0.65928E+02 
  38714.5920     0.66198E+02 
  38746.8542     0.66466E+02 
  38779.1163     0.66734E+02 
  38811.3785     0.67001E+02 
  38843.6406     0.67267E+02 
  38875.9028     0.67532E+02 
  38908.1650     0.67796E+02 
  38940.4271     0.68059E+02 
  38972.6893     0.68321E+02 
  39004.9514     0.68582E+02 
  39037.2136     0.68842E+02 
  39069.4758     0.69101E+02 
  39101.7379     0.69359E+02 
  39134.0001     0.69616E+02 
  39166.2622     0.69871E+02 
  39198.5244     0.70126E+02 
  39230.7866     0.70379E+02 
  39263.0487     0.70631E+02 
  39295.3109     0.70883E+02 
  39327.5730     0.71132E+02 
  39359.8352     0.71381E+02 
  39392.0974     0.71629E+02 
  39424.3595     0.71875E+02 
  39456.6217     0.72120E+02 
  39488.8838     0.72363E+02 
  39521.1460     0.72606E+02 
  39553.4082     0.72847E+02 
  39585.6703     0.73087E+02 
  39617.9325     0.73325E+02 
  39650.1946     0.73562E+02 
  39682.4568     0.73798E+02 
  39714.7190     0.74033E+02 
  39746.9811     0.74266E+02 
  39779.2433     0.74497E+02 
  39811.5054     0.74727E+02 
  39843.7676     0.74956E+02 
  39876.0298     0.75183E+02 
  39908.2919     0.75409E+02 
  39940.5541     0.75633E+02 
  39972.8162     0.75856E+02 
  40005.0784     0.76077E+02 
  40037.3406     0.76297E+02 
  40069.6027     0.76516E+02 
  40101.8649     0.76732E+02 
  40134.1270     0.76947E+02 
  40166.3892     0.77161E+02 
  40198.6514     0.77373E+02 
  40230.9135     0.77583E+02 
  40263.1757     0.77792E+02 
  40295.4378     0.77999E+02 
  40327.7000     0.78204E+02 
  40359.9622     0.78408E+02 
  40392.2243     0.78610E+02 
  40424.4865     0.78811E+02 
  40456.7486     0.79009E+02 
  40489.0108     0.79206E+02 
  40521.2730     0.79402E+02 
  40553.5351     0.79595E+02 
  40585.7973     0.79787E+02 
  40618.0594     0.79977E+02 
  40650.3216     0.80165E+02 
  40682.5838     0.80351E+02 
  40714.8459     0.80536E+02 
  40747.1081     0.80719E+02 
  40779.3702     0.80900E+02 
  40811.6324     0.81079E+02 
  40843.8946     0.81256E+02 
  40876.1567     0.81432E+02 
  40908.4189     0.81605E+02 
  40940.6810     0.81777E+02 
  40972.9432     0.81947E+02 
  41005.2054     0.82115E+02 
  41037.4675     0.82281E+02 
  41069.7297     0.82445E+02 
  41101.9918     0.82607E+02 
  41134.2540     0.82767E+02 
  41166.5162     0.82926E+02 
  41198.7783     0.83082E+02 
  41231.0405     0.83236E+02 
  41263.3026     0.83389E+02 
  41295.5648     0.83539E+02 
  41327.8270     0.83688E+02 
  41360.0891     0.83834E+02 
  41392.3513     0.83978E+02 
  41424.6134     0.84121E+02 
  41456.8756     0.84261E+02 
  41489.1378     0.84399E+02 
  41521.3999     0.84536E+02 
  41553.6621     0.84670E+02 
  41585.9242     0.84802E+02 
  41618.1864     0.84932E+02 
  41650.4486     0.85060E+02 
  41682.7107     0.85186E+02 
  41714.9729     0.85310E+02 
  41747.2350     0.85431E+02 
  41779.4972     0.85551E+02 
  41811.7594     0.85669E+02 
  41844.0215     0.85784E+02 
  41876.2837     0.85897E+02 
  41908.5458     0.86008E+02 
  41940.8080     0.86117E+02 
  41973.0702     0.86224E+02 
  42005.3323     0.86329E+02 
  42037.5945     0.86432E+02 
  42069.8566     0.86532E+02 
  42102.1188     0.86630E+02 
  42134.3810     0.86726E+02 
  42166.6431     0.86820E+02 
  42198.9053     0.86912E+02 
  42231.1674     0.87002E+02 
  42263.4296     0.87089E+02 
  42295.6918     0.87174E+02 
  42327.9539     0.87257E+02 
  42360.2161     0.87338E+02 
  42392.4782     0.87417E+02 
  42424.7404     0.87493E+02 
  42457.0026     0.87567E+02 
  42489.2647     0.87639E+02 
  42521.5269     0.87709E+02 
  42553.7890     0.87776E+02 
  42586.0512     0.87842E+02 
  42618.3134     0.87905E+02 
  42650.5755     0.87966E+02 
  42682.8377     0.88025E+02 
  42715.0998     0.88081E+02 
  42747.3620     0.88135E+02 
  42779.6242     0.88187E+02 
  42811.8863     0.88237E+02 
  42844.1485     0.88285E+02 
  42876.4106     0.88330E+02 
  42908.6728     0.88373E+02 
  42940.9350     0.88414E+02 
  42973.1971     0.88453E+02 
  43005.4593     0.88489E+02 
  43037.7214     0.88523E+02 
  43069.9836     0.88555E+02 
  43102.2458     0.88585E+02 
  43134.5079     0.88612E+02 
  43166.7701     0.88638E+02 
  43199.0322     0.88661E+02 
  43231.2944     0.88681E+02 
  43263.5566     0.88700E+02 
  43295.8187     0.88716E+02 
  43328.0809     0.88730E+02 
  43360.3430     0.88742E+02 
  43392.6052     0.88752E+02 
  43424.8674     0.88759E+02 
  43457.1295     0.88765E+02 
  43489.3917     0.88768E+02 
  43521.6538     0.88769E+02 
  43553.9160     0.88767E+02 
  43586.1782     0.88764E+02 
  43618.4403     0.88758E+02 
  43650.7025     0.88750E+02 
  43682.9646     0.88740E+02 
  43715.2268     0.88727E+02 
  43747.4890     0.88713E+02 
  43779.7511     0.88696E+02 
  43812.0133     0.88677E+02 
  43844.2754     0.88656E+02 
  43876.5376     0.88632E+02 
  43908.7998     0.88607E+02 
  43941.0619     0.88579E+02 
  43973.3241     0.88549E+02 
  44005.5862     0.88517E+02 
  44037.8484     0.88483E+02 
  44070.1106     0.88447E+02 
  44102.3727     0.88408E+02 
  44134.6349     0.88368E+02 
  44166.8970     0.88325E+02 
  44199.1592     0.88280E+02 
  44231.4214     0.88233E+02 
  44263.6835     0.88184E+02 
  44295.9457     0.88133E+02 
  44328.2078     0.88080E+02 
  44360.4700     0.88025E+02 
  44392.7322     0.87967E+02 
  44424.9943     0.87908E+02 
  44457.2565     0.87846E+02 
  44489.5186     0.87782E+02 
  44521.7808     0.87717E+02 
  44554.0430     0.87649E+02 
  44586.3051     0.87579E+02 
  44618.5673     0.87507E+02 
  44650.8294     0.87433E+02 
  44683.0916     0.87357E+02 
  44715.3538     0.87279E+02 
  44747.6159     0.87199E+02 
  44779.8781     0.87117E+02 
  44812.1402     0.87033E+02 
  44844.4024     0.86947E+02 
  44876.6646     0.86859E+02 
  44908.9267     0.86770E+02 
  44941.1889     0.86678E+02 
  44973.4510     0.86584E+02 
  45005.7132     0.86488E+02 
  45037.9754     0.86390E+02 
  45070.2375     0.86291E+02 
  45102.4997     0.86189E+02 
  45134.7618     0.86086E+02 
  45167.0240     0.85981E+02 
  45199.2862     0.85873E+02 
  45231.5483     0.85764E+02 
  45263.8105     0.85653E+02 
  45296.0726     0.85540E+02 
  45328.3348     0.85426E+02 
  45360.5970     0.85309E+02 
  45392.8591     0.85191E+02 
  45425.1213     0.85071E+02 
  45457.3834     0.84949E+02 
  45489.6456     0.84825E+02 
  45521.9078     0.84699E+02 
  45554.1699     0.84572E+02 
  45586.4321     0.84443E+02 
  45618.6942     0.84312E+02 
  45650.9564     0.84179E+02 
  45683.2186     0.84045E+02 
  45715.4807     0.83909E+02 
  45747.7429     0.83771E+02 
  45780.0050     0.83632E+02 
  45812.2672     0.83491E+02 
  45844.5294     0.83348E+02 
  45876.7915     0.83203E+02 
  45909.0537     0.83057E+02 
  45941.3158     0.82909E+02 
  45973.5780     0.82760E+02 
  46005.8402     0.82609E+02 
  46038.1023     0.82456E+02 
  46070.3645     0.82302E+02 
  46102.6266     0.82146E+02 
  46134.8888     0.81989E+02 
  46167.1510     0.81830E+02 
  46199.4131     0.81669E+02 
  46231.6753     0.81507E+02 
  46263.9374     0.81343E+02 
  46296.1996     0.81178E+02 
  46328.4618     0.81012E+02 
  46360.7239     0.80844E+02 
  46392.9861     0.80674E+02 
  46425.2482     0.80503E+02 
  46457.5104     0.80331E+02 
  46489.7726     0.80157E+02 
  46522.0347     0.79981E+02 
  46554.2969     0.79805E+02 
  46586.5590     0.79626E+02 
  46618.8212     0.79447E+02 
  46651.0834     0.79266E+02 
  46683.3455     0.79084E+02 
  46715.6077     0.78900E+02 
  46747.8698     0.78715E+02 
  46780.1320     0.78529E+02 
  46812.3942     0.78341E+02 
  46844.6563     0.78152E+02 
  46876.9185     0.77962E+02 
  46909.1806     0.77771E+02 
  46941.4428     0.77578E+02 
  46973.7050     0.77384E+02 
  47005.9671     0.77189E+02 
  47038.2293     0.76992E+02 
  47070.4914     0.76795E+02 
  47102.7536     0.76596E+02 
  47135.0158     0.76396E+02 
  47167.2779     0.76195E+02 
  47199.5401     0.75992E+02 
  47231.8022     0.75789E+02 
  47264.0644     0.75585E+02 
  47296.3266     0.75379E+02 
  47328.5887     0.75172E+02 
  47360.8509     0.74964E+02 
  47393.1130     0.74755E+02 
  47425.3752     0.74545E+02 
  47457.6374     0.74334E+02 
  47489.8995     0.74122E+02 
  47522.1617     0.73909E+02 
  47554.4238     0.73695E+02 
  47586.6860     0.73480E+02 
  47618.9482     0.73264E+02 
  47651.2103     0.73047E+02 
  47683.4725     0.72829E+02 
  47715.7346     0.72610E+02 
  47747.9968     0.72390E+02 
  47780.2590     0.72170E+02 
  47812.5211     0.71948E+02 
  47844.7833     0.71726E+02 
  47877.0454     0.71502E+02 
  47909.3076     0.71278E+02 
  47941.5698     0.71053E+02 
  47973.8319     0.70827E+02 
  48006.0941     0.70600E+02 
  48038.3562     0.70373E+02 
  48070.6184     0.70144E+02 
  48102.8806     0.69915E+02 
  48135.1427     0.69686E+02 
  48167.4049     0.69455E+02 
  48199.6670     0.69224E+02 
  48231.9292     0.68992E+02 
  48264.1914     0.68759E+02 
  48296.4535     0.68525E+02 
  48328.7157     0.68291E+02 
  48360.9778     0.68056E+02 
  48393.2400     0.67821E+02 
  48425.5022     0.67585E+02 
  48457.7643     0.67348E+02 
  48490.0265     0.67111E+02 
  48522.2886     0.66873E+02 
  48554.5508     0.66634E+02 
  48586.8130     0.66395E+02 
  48619.0751     0.66156E+02 
  48651.3373     0.65915E+02 
  48683.5994     0.65675E+02 
  48715.8616     0.65433E+02 
  48748.1238     0.65192E+02 
  48780.3859     0.64949E+02 
  48812.6481     0.64706E+02 
  48844.9102     0.64463E+02 
  48877.1724     0.64219E+02 
  48909.4346     0.63975E+02 
  48941.6967     0.63731E+02 
  48973.9589     0.63486E+02 
  49006.2210     0.63240E+02 
  49038.4832     0.62994E+02 
  49070.7454     0.62748E+02 
  49103.0075     0.62502E+02 
  49135.2697     0.62255E+02 
  49167.5318     0.62007E+02 
  49199.7940     0.61760E+02 
  49232.0562     0.61512E+02 
  49264.3183     0.61263E+02 
  49296.5805     0.61015E+02 
  49328.8426     0.60766E+02 
  49361.1048     0.60517E+02 
  49393.3670     0.60267E+02 
  49425.6291     0.60018E+02 
  49457.8913     0.59768E+02 
  49490.1534     0.59518E+02 
  49522.4156     0.59267E+02 
  49554.6778     0.59017E+02 
  49586.9399     0.58766E+02 
  49619.2021     0.58515E+02 
  49651.4642     0.58264E+02 
  49683.7264     0.58013E+02 
  49715.9886     0.57761E+02 
  49748.2507     0.57510E+02 
  49780.5129     0.57258E+02 
  49812.7750     0.57006E+02 
  49845.0372     0.56754E+02 
  49877.2994     0.56502E+02 
  49909.5615     0.56250E+02 
  49941.8237     0.55998E+02 
  49974.0858     0.55746E+02 
  50006.3480     0.55494E+02 
  50038.6102     0.55241E+02 
  50070.8723     0.54989E+02 
  50103.1345     0.54737E+02 
  50135.3966     0.54484E+02 
  50167.6588     0.54232E+02 
  50199.9210     0.53980E+02 
  50232.1831     0.53727E+02 
  50264.4453     0.53475E+02 
  50296.7074     0.53223E+02 
  50328.9696     0.52971E+02 
  50361.2318     0.52719E+02 
  50393.4939     0.52467E+02 
  50425.7561     0.52215E+02 
  50458.0182     0.51963E+02 
  50490.2804     0.51711E+02 
  50522.5426     0.51460E+02 
  50554.8047     0.51208E+02 
  50587.0669     0.50957E+02 
  50619.3290     0.50706E+02 
  50651.5912     0.50455E+02 
  50683.8534     0.50204E+02 
  50716.1155     0.49953E+02 
  50748.3777     0.49703E+02 
  50780.6398     0.49452E+02 
  50812.9020     0.49202E+02 
  50845.1642     0.48952E+02 
  50877.4263     0.48702E+02 
  50909.6885     0.48453E+02 
  50941.9506     0.48204E+02 
  50974.2128     0.47955E+02 
  51006.4750     0.47706E+02 
  51038.7371     0.47458E+02 
  51070.9993     0.47209E+02 
  51103.2614     0.46961E+02 
  51135.5236     0.46714E+02 
  51167.7858     0.46467E+02 
  51200.0479     0.46220E+02 
  51232.3101     0.45973E+02 
  51264.5722     0.45726E+02 
  51296.8344     0.45480E+02 
  51329.0966     0.45235E+02 
  51361.3587     0.44989E+02 
  51393.6209     0.44744E+02 
  51425.8830     0.44500E+02 
  51458.1452     0.44255E+02 
  51490.4074     0.44011E+02 
  51522.6695     0.43768E+02 
  51554.9317     0.43525E+02 
  51587.1938     0.43282E+02 
  51619.4560     0.43039E+02 
  51651.7182     0.42798E+02 
  51683.9803     0.42556E+02 
  51716.2425     0.42315E+02 
  51748.5046     0.42074E+02 
  51780.7668     0.41834E+02 
  51813.0290     0.41594E+02 
  51845.2911     0.41355E+02 
  51877.5533     0.41116E+02 
  51909.8154     0.40878E+02 
  51942.0776     0.40640E+02 
  51974.3398     0.40402E+02 
  52006.6019     0.40165E+02 
  52038.8641     0.39929E+02 
  52071.1262     0.39693E+02 
  52103.3884     0.39457E+02 
  52135.6506     0.39223E+02 
  52167.9127     0.38988E+02 
  52200.1749     0.38754E+02 
  52232.4370     0.38521E+02 
  52264.6992     0.38288E+02 
  52296.9614     0.38056E+02 
  52329.2235     0.37824E+02 
  52361.4857     0.37593E+02 
  52393.7478     0.37362E+02 
  52426.0100     0.37132E+02 
  52458.2722     0.36902E+02 
  52490.5343     0.36673E+02 
  52522.7965     0.36445E+02 
  52555.0586     0.36217E+02 
  52587.3208     0.35990E+02 
  52619.5830     0.35763E+02 
  52651.8451     0.35537E+02 
  52684.1073     0.35312E+02 
  52716.3694     0.35087E+02 
  52748.6316     0.34863E+02 
  52780.8938     0.34639E+02 
  52813.1559     0.34416E+02 
  52845.4181     0.34194E+02 
  52877.6802     0.33972E+02 
  52909.9424     0.33751E+02 
  52942.2046     0.33531E+02 
  52974.4667     0.33311E+02 
  53006.7289     0.33092E+02 
  53038.9910     0.32873E+02 
  53071.2532     0.32655E+02 
  53103.5154     0.32438E+02 
  53135.7775     0.32222E+02 
  53168.0397     0.32006E+02 
  53200.3018     0.31790E+02 
  53232.5640     0.31576E+02 
  53264.8262     0.31362E+02 
  53297.0883     0.31149E+02 
  53329.3505     0.30936E+02 
  53361.6126     0.30725E+02 
  53393.8748     0.30513E+02 
  53426.1370     0.30303E+02 
  53458.3991     0.30093E+02 
  53490.6613     0.29884E+02 
  53522.9234     0.29676E+02 
  53555.1856     0.29468E+02 
  53587.4478     0.29261E+02 
  53619.7099     0.29055E+02 
  53651.9721     0.28850E+02 
  53684.2342     0.28645E+02 
  53716.4964     0.28441E+02 
  53748.7586     0.28237E+02 
  53781.0207     0.28035E+02 
  53813.2829     0.27833E+02 
  53845.5450     0.27632E+02 
  53877.8072     0.27431E+02 
  53910.0694     0.27231E+02 
  53942.3315     0.27033E+02 
  53974.5937     0.26834E+02 
  54006.8558     0.26637E+02 
  54039.1180     0.26440E+02 
  54071.3802     0.26244E+02 
  54103.6423     0.26049E+02 
  54135.9045     0.25854E+02 
  54168.1666     0.25660E+02 
  54200.4288     0.25467E+02 
  54232.6910     0.25275E+02 
  54264.9531     0.25084E+02 
  54297.2153     0.24893E+02 
  54329.4774     0.24703E+02 
  54361.7396     0.24514E+02 
  54394.0018     0.24325E+02 
  54426.2639     0.24137E+02 
  54458.5261     0.23950E+02 
  54490.7882     0.23764E+02 
  54523.0504     0.23579E+02 
  54555.3126     0.23394E+02 
  54587.5747     0.23210E+02 
  54619.8369     0.23027E+02 
  54652.0990     0.22845E+02 
  54684.3612     0.22663E+02 
  54716.6234     0.22482E+02 
  54748.8855     0.22302E+02 
  54781.1477     0.22123E+02 
  54813.4098     0.21945E+02 
  54845.6720     0.21767E+02 
  54877.9342     0.21590E+02 
  54910.1963     0.21414E+02 
  54942.4585     0.21238E+02 
  54974.7206     0.21064E+02 
  55006.9828     0.20890E+02 
  55039.2450     0.20717E+02 
  55071.5071     0.20545E+02 
  55103.7693     0.20373E+02 
  55136.0314     0.20202E+02 
  55168.2936     0.20032E+02 
  55200.5558     0.19863E+02 
  55232.8179     0.19695E+02 
  55265.0801     0.19527E+02 
  55297.3422     0.19360E+02 
  55329.6044     0.19194E+02 
  55361.8666     0.19029E+02 
  55394.1287     0.18865E+02 
  55426.3909     0.18701E+02 
  55458.6530     0.18538E+02 
  55490.9152     0.18376E+02 
  55523.1774     0.18214E+02 
  55555.4395     0.18054E+02 
  55587.7017     0.17894E+02 
  55619.9638     0.17735E+02 
  55652.2260     0.17577E+02 
  55684.4882     0.17419E+02 
  55716.7503     0.17263E+02 
  55749.0125     0.17107E+02 
  55781.2746     0.16952E+02 
  55813.5368     0.16797E+02 
  55845.7990     0.16644E+02 
  55878.0611     0.16491E+02 
  55910.3233     0.16339E+02 
  55942.5854     0.16188E+02 
  55974.8476     0.16037E+02 
  56007.1098     0.15888E+02 
  56039.3719     0.15739E+02 
  56071.6341     0.15591E+02 
  56103.8962     0.15443E+02 
  56136.1584     0.15297E+02 
  56168.4206     0.15151E+02 
  56200.6827     0.15006E+02 
  56232.9449     0.14861E+02 
  56265.2070     0.14718E+02 
  56297.4692     0.14575E+02 
  56329.7314     0.14433E+02 
  56361.9935     0.14292E+02 
  56394.2557     0.14152E+02 
  56426.5178     0.14012E+02 
  56458.7800     0.13873E+02 
  56491.0422     0.13735E+02 
  56523.3043     0.13597E+02 
  56555.5665     0.13461E+02 
  56587.8286     0.13325E+02 
  56620.0908     0.13190E+02 
  56652.3530     0.13055E+02 
  56684.6151     0.12922E+02 
  56716.8773     0.12789E+02 
  56749.1394     0.12657E+02 
  56781.4016     0.12526E+02 
  56813.6638     0.12395E+02 
  56845.9259     0.12265E+02 
  56878.1881     0.12136E+02 
  56910.4502     0.12008E+02 
  56942.7124     0.11880E+02 
  56974.9746     0.11753E+02 
  57007.2367     0.11627E+02 
  57039.4989     0.11502E+02 
  57071.7610     0.11377E+02 
  57104.0232     0.11254E+02 
  57136.2854     0.11130E+02 
  57168.5475     0.11008E+02 
  57200.8097     0.10886E+02 
  57233.0718     0.10765E+02 
  57265.3340     0.10645E+02 
  57297.5962     0.10526E+02 
  57329.8583     0.10407E+02 
  57362.1205     0.10289E+02 
  57394.3826     0.10172E+02 
  57426.6448     0.10056E+02 
  57458.9070     0.99398E+01 
  57491.1691     0.98247E+01 
  57523.4313     0.97104E+01 
  57555.6934     0.95968E+01 
  57587.9556     0.94840E+01 
  57620.2178     0.93718E+01 
  57652.4799     0.92604E+01 
  57684.7421     0.91497E+01 
  57717.0042     0.90397E+01 
  57749.2664     0.89304E+01 
  57781.5286     0.88219E+01 
  57813.7907     0.87141E+01 
  57846.0529     0.86069E+01 
  57878.3150     0.85005E+01 
  57910.5772     0.83948E+01 
  57942.8394     0.82899E+01 
  57975.1015     0.81856E+01 
  58007.3637     0.80820E+01 
  58039.6258     0.79792E+01 
  58071.8880     0.78770E+01 
  58104.1502     0.77756E+01 
  58136.4123     0.76748E+01 
  58168.6745     0.75748E+01 
  58200.9366     0.74754E+01 
  58233.1988     0.73768E+01 
  58265.4610     0.72788E+01 
  58297.7231     0.71816E+01 
  58329.9853     0.70851E+01 
  58362.2474     0.69892E+01 
  58394.5096     0.68941E+01 
  58426.7718     0.67996E+01 
  58459.0339     0.67058E+01 
  58491.2961     0.66127E+01 
  58523.5582     0.65204E+01 
  58555.8204     0.64287E+01 
  58588.0826     0.63377E+01 
  58620.3447     0.62474E+01 
  58652.6069     0.61577E+01 
  58684.8690     0.60688E+01 
  58717.1312     0.59805E+01 
  58749.3934     0.58930E+01 
  58781.6555     0.58061E+01 
  58813.9177     0.57199E+01 
  58846.1798     0.56344E+01 
  58878.4420     0.55496E+01 
  58910.7042     0.54654E+01 
  58942.9663     0.53819E+01 
  58975.2285     0.52992E+01 
  59007.4906     0.52171E+01 
  59039.7528     0.51356E+01 
  59072.0150     0.50549E+01 
  59104.2771     0.49748E+01 
  59136.5393     0.48955E+01 
  59168.8014     0.48168E+01 
  59201.0636     0.47387E+01 
  59233.3258     0.46614E+01 
  59265.5879     0.45847E+01 
  59297.8501     0.45087E+01 
  59330.1122     0.44334E+01 
  59362.3744     0.43588E+01 
  59394.6366     0.42849E+01 
  59426.8987     0.42116E+01 
  59459.1609     0.41390E+01 
  59491.4230     0.40671E+01 
  59523.6852     0.39959E+01 
  59555.9474     0.39253E+01 
  59588.2095     0.38554E+01 
  59620.4717     0.37862E+01 
  59652.7338     0.37177E+01 
  59684.9960     0.36499E+01 
  59717.2582     0.35827E+01 
  59749.5203     0.35163E+01 
  59781.7825     0.34505E+01 
  59814.0446     0.33854E+01 
  59846.3068     0.33210E+01 
  59878.5690     0.32573E+01 
  59910.8311     0.31942E+01 
  59943.0933     0.31319E+01 
  59975.3554     0.30702E+01 
  60007.6176     0.30092E+01 
  60039.8798     0.29489E+01 
  60072.1419     0.28893E+01 
  60104.4041     0.28304E+01 
  60136.6662     0.27722E+01 
  60168.9284     0.27147E+01 
  60201.1906     0.26579E+01 
  60233.4527     0.26018E+01 
  60265.7149     0.25464E+01 
  60297.9770     0.24917E+01 
  60330.2392     0.24377E+01 
  60362.5014     0.23844E+01 
  60394.7635     0.23318E+01 
  60427.0257     0.22800E+01 
  60459.2878     0.22288E+01 
  60491.5500     0.21784E+01 
  60523.8122     0.21286E+01 
  60556.0743     0.20796E+01 
  60588.3365     0.20313E+01 
  60620.5986     0.19838E+01 
  60652.8608     0.19370E+01 
  60685.1230     0.18909E+01 
  60717.3851     0.18455E+01 
  60749.6473     0.18009E+01 
  60781.9094     0.17570E+01 
  60814.1716     0.17139E+01 
  60846.4338     0.16715E+01 
  60878.6959     0.16299E+01 
  60910.9581     0.15890E+01 
  60943.2202     0.15489E+01 
  60975.4824     0.15095E+01 
  61007.7446     0.14710E+01 
  61040.0067     0.14331E+01 
  61072.2689     0.13961E+01 
  61104.5310     0.13598E+01 
  61136.7932     0.13244E+01 
  61169.0554     0.12897E+01 
  61201.3175     0.12558E+01 
  61233.5797     0.12227E+01 
  61265.8418     0.11904E+01 
  61298.1040     0.11589E+01 
  61330.3662     0.11282E+01 
  61362.6283     0.10984E+01 
  61394.8905     0.10694E+01 
  61427.1526     0.10412E+01 
  61459.4148     0.10138E+01 
  61491.6770     0.98728E+00 
  61523.9391     0.96161E+00 
  61556.2013     0.93679E+00 
  61588.4634     0.91283E+00 
  61620.7256     0.88975E+00 
  61652.9878     0.86753E+00 
  61685.2499     0.84620E+00 
  61717.5121     0.82576E+00 
  61749.7742     0.80621E+00 
  61782.0364     0.78756E+00 
  61814.2986     0.76982E+00 
  61846.5607     0.75300E+00 
  61878.8229     0.73711E+00 
  61911.0850     0.72215E+00 
  61943.3472     0.70813E+00 
  61975.6094     0.69507E+00 
  62007.8715     0.68296E+00 
  62040.1337     0.67182E+00 
  62072.3958     0.66165E+00 
  62104.6580     0.65247E+00 
  62136.9202     0.64429E+00 
  62169.1823     0.63711E+00 
  62201.4445     0.63095E+00 
  62233.7066     0.62581E+00 
  62265.9688     0.62170E+00 
  62298.2310     0.61864E+00 
  62330.4931     0.61663E+00 
  62362.7553     0.61569E+00 
  62395.0174     0.61583E+00 
  62427.2796     0.61705E+00 
  62459.5418     0.61937E+00 
  62491.8039     0.62281E+00 
  62524.0661     0.62736E+00 
  62556.3282     0.63306E+00 
  62588.5904     0.63990E+00 
  62620.8526     0.64789E+00 
  62653.1147     0.65706E+00 
  62685.3769     0.66742E+00 
  62717.6390     0.67897E+00 
  62749.9012     0.69174E+00 
  62782.1634     0.70573E+00 
  62814.4255     0.72096E+00 
  62846.6877     0.73744E+00 
  62878.9498     0.75519E+00 
  62911.2120     0.77423E+00 
  62943.4742     0.79456E+00 
  62975.7363     0.81620E+00 
  63007.9985     0.83917E+00 
  63040.2606     0.86349E+00 
  63072.5228     0.88917E+00 
  63104.7850     0.91622E+00 
  63137.0471     0.94466E+00 
  63169.3093     0.97452E+00 
  63201.5714     0.10058E+01 
  63233.8336     0.10385E+01 
  63266.0958     0.10727E+01 
  63298.3579     0.11084E+01 
  63330.6201     0.11455E+01 
  63362.8822     0.11842E+01 
  63395.1444     0.12244E+01 
  63427.4066     0.12662E+01 
  63459.6687     0.13096E+01 
  63491.9309     0.13545E+01 
  63524.1930     0.14010E+01 
  63556.4552     0.14492E+01 
  63588.7174     0.14991E+01 
  63620.9795     0.15506E+01 
  63653.2417     0.16038E+01 
  63685.5038     0.16587E+01 
  63717.7660     0.17154E+01 
  63750.0282     0.17738E+01 
  63782.2903     0.18341E+01 
  63814.5525     0.18961E+01 
  63846.8146     0.19600E+01 
  63879.0768     0.20257E+01 
  63911.3390     0.20933E+01 
  63943.6011     0.21628E+01 
  63975.8633     0.22342E+01 
  64008.1254     0.23076E+01 
  64040.3876     0.23830E+01 
  64072.6498     0.24603E+01 
  64104.9119     0.25397E+01 
  64137.1741     0.26212E+01 
  64169.4362     0.27048E+01 
  64201.6984     0.27904E+01 
  64233.9606     0.28782E+01 
  64266.2227     0.29682E+01 
  64298.4849     0.30604E+01 
  64330.7470     0.31548E+01 
  64363.0092     0.32514E+01 
  64395.2714     0.33504E+01 
  64427.5335     0.34516E+01 
  64459.7957     0.35552E+01 
  64492.0578     0.36612E+01 
  64524.3200     0.37696E+01 
  64556.5822     0.38804E+01 
  64588.8443     0.39937E+01 
  64621.1065     0.41095E+01 
  64653.3686     0.42278E+01 
  64685.6308     0.43487E+01 
  64717.8930     0.44722E+01 
  64750.1551     0.45984E+01 
  64782.4173     0.47272E+01 
  64814.6794     0.48587E+01 
  64846.9416     0.49930E+01 
  64879.2038     0.51301E+01 
  64911.4659     0.52700E+01 
  64943.7281     0.54127E+01 
  64975.9902     0.55583E+01 
  65008.2524     0.57068E+01 
  65040.5146     0.58584E+01 
  65072.7767     0.60129E+01 
  65105.0389     0.61704E+01 
  65137.3010     0.63311E+01 
  65169.5632     0.64949E+01 
  65201.8254     0.66618E+01 
  65234.0875     0.68319E+01 
  65266.3497     0.70053E+01 
  65298.6118     0.71820E+01 
  65330.8740     0.73620E+01 
  65363.1362     0.75454E+01 
  65395.3983     0.77322E+01 
  65427.6605     0.79225E+01 
  65459.9226     0.81163E+01 
  65492.1848     0.83136E+01 
  65524.4470     0.85145E+01 
  65556.7091     0.87191E+01 
  65588.9713     0.89273E+01 
  65621.2334     0.91393E+01 
  65653.4956     0.93551E+01 
  65685.7578     0.95747E+01 
  65718.0199     0.97982E+01 
  65750.2821     0.10026E+02 
  65782.5442     0.10257E+02 
  65814.8064     0.10492E+02 
  65847.0686     0.10732E+02 
  65879.3307     0.10976E+02 
  65911.5929     0.11223E+02 
  65943.8550     0.11475E+02 
  65976.1172     0.11732E+02 
  66008.3794     0.11992E+02 
  66040.6415     0.12257E+02 
  66072.9037     0.12527E+02 
  66105.1658     0.12801E+02 
  66137.4280     0.13079E+02 
  66169.6902     0.13363E+02 
  66201.9523     0.13650E+02 
  66234.2145     0.13943E+02 
  66266.4766     0.14240E+02 
  66298.7388     0.14542E+02 
  66331.0010     0.14849E+02 
  66363.2631     0.15161E+02 
  66395.5253     0.15478E+02 
  66427.7874     0.15801E+02 
  66460.0496     0.16128E+02 
  66492.3118     0.16460E+02 
  66524.5739     0.16798E+02 
  66556.8361     0.17141E+02 
  66589.0982     0.17489E+02 
  66621.3604     0.17843E+02 
  66653.6226     0.18202E+02 
  66685.8847     0.18567E+02 
  66718.1469     0.18938E+02 
  66750.4090     0.19314E+02 
  66782.6712     0.19696E+02 
  66814.9334     0.20084E+02 
  66847.1955     0.20477E+02 
  66879.4577     0.20877E+02 
  66911.7198     0.21283E+02 
  66943.9820     0.21694E+02 
  66976.2442     0.22112E+02 
  67008.5063     0.22537E+02 
  67040.7685     0.22967E+02 
  67073.0306     0.23404E+02 
  67105.2928     0.23847E+02 
  67137.5550     0.24297E+02 
  67169.8171     0.24753E+02 
  67202.0793     0.25216E+02 
  67234.3414     0.25686E+02 
  67266.6036     0.26163E+02 
  67298.8658     0.26646E+02 
  67331.1279     0.27137E+02 
  67363.3901     0.27634E+02 
  67395.6522     0.28139E+02 
  67427.9144     0.28651E+02 
  67460.1766     0.29170E+02 
  67492.4387     0.29696E+02 
  67524.7009     0.30230E+02 
  67556.9630     0.30771E+02 
  67589.2252     0.31320E+02 
  67621.4874     0.31876E+02 
  67653.7495     0.32440E+02 
  67686.0117     0.33012E+02 
  67718.2738     0.33592E+02 
  67750.5360     0.34180E+02 
  67782.7982     0.34775E+02 
  67815.0603     0.35379E+02 
  67847.3225     0.35991E+02 
  67879.5846     0.36612E+02 
  67911.8468     0.37241E+02 
  67944.1090     0.37878E+02 
  67976.3711     0.38523E+02 
  68008.6333     0.39178E+02 
  68040.8954     0.39841E+02 
  68073.1576     0.40513E+02 
  68105.4198     0.41193E+02 
  68137.6819     0.41883E+02 
  68169.9441     0.42581E+02 
  68202.2062     0.43289E+02 
  68234.4684     0.44006E+02 
  68266.7306     0.44732E+02 
  68298.9927     0.45468E+02 
  68331.2549     0.46213E+02 
  68363.5170     0.46968E+02 
  68395.7792     0.47732E+02 
  68428.0414     0.48506E+02 
  68460.3035     0.49290E+02 
  68492.5657     0.50084E+02 
  68524.8278     0.50887E+02 
  68557.0900     0.51701E+02 
  68589.3522     0.52525E+02 
  68621.6143     0.53359E+02 
  68653.8765     0.54204E+02 
  68686.1386     0.55059E+02 
  68718.4008     0.55924E+02 
  68750.6630     0.56800E+02 
  68782.9251     0.57687E+02 
  68815.1873     0.58585E+02 
  68847.4494     0.59493E+02 
  68879.7116     0.60413E+02 
  68911.9738     0.61343E+02 
  68944.2359     0.62285E+02 
  68976.4981     0.63238E+02 
  69008.7602     0.64202E+02 
  69041.0224     0.65178E+02 
  69073.2846     0.66165E+02 
  69105.5467     0.67164E+02 
  69137.8089     0.68175E+02 
  69170.0710     0.69197E+02 
  69202.3332     0.70231E+02 
  69234.5954     0.71278E+02 
  69266.8575     0.72336E+02 
  69299.1197     0.73407E+02 
  69331.3818     0.74489E+02 
  69363.6440     0.75585E+02 
  69395.9062     0.76692E+02 
  69428.1683     0.77812E+02 
  69460.4305     0.78945E+02 
  69492.6926     0.80091E+02 
  69524.9548     0.81249E+02 
  69557.2170     0.82420E+02 
  69589.4791     0.83605E+02 
  69621.7413     0.84802E+02 
  69654.0034     0.86012E+02 
  69686.2656     0.87236E+02 
  69718.5278     0.88473E+02 
  69750.7899     0.89724E+02 
  69783.0521     0.90988E+02 
  69815.3142     0.92266E+02 
  69847.5764     0.93558E+02 
  69879.8386     0.94863E+02 
  69912.1007     0.96182E+02 
  69944.3629     0.97516E+02 
  69976.6250     0.98863E+02 
  70008.8872     0.10022E+03 
  70041.1494     0.10160E+03 
  70073.4115     0.10299E+03 
  70105.6737     0.10440E+03 
  70137.9358     0.10581E+03 
  70170.1980     0.10725E+03 
  70202.4602     0.10870E+03 
  70234.7223     0.11016E+03 
  70266.9845     0.11164E+03 
  70299.2466     0.11313E+03 
  70331.5088     0.11464E+03 
  70363.7710     0.11616E+03 
  70396.0331     0.11770E+03 
  70428.2953     0.11926E+03 
  70460.5574     0.12083E+03 
  70492.8196     0.12241E+03 
  70525.0818     0.12401E+03 
  70557.3439     0.12563E+03 
  70589.6061     0.12726E+03 
  70621.8682     0.12891E+03 
  70654.1304     0.13057E+03 
  70686.3926     0.13225E+03 
  70718.6547     0.13395E+03 
  70750.9169     0.13566E+03 
  70783.1790     0.13739E+03 
  70815.4412     0.13913E+03 
  70847.7034     0.14089E+03 
  70879.9655     0.14267E+03 
  70912.2277     0.14446E+03 
  70944.4898     0.14627E+03 
  70976.7520     0.14810E+03 
  71009.0142     0.14994E+03 
  71041.2763     0.15180E+03 
  71073.5385     0.15368E+03 
  71105.8006     0.15557E+03 
  71138.0628     0.15749E+03 
  71170.3250     0.15941E+03 
  71202.5871     0.16136E+03 
  71234.8493     0.16332E+03 
  71267.1114     0.16530E+03 
  71299.3736     0.16730E+03 
  71331.6358     0.16931E+03 
  71363.8979     0.17135E+03 
  71396.1601     0.17340E+03 
  71428.4222     0.17546E+03 
  71460.6844     0.17755E+03 
  71492.9466     0.17965E+03 
  71525.2087     0.18177E+03 
  71557.4709     0.18391E+03 
  71589.7330     0.18607E+03 
  71621.9952     0.18824E+03 
  71654.2574     0.19044E+03 
  71686.5195     0.19265E+03 
  71718.7817     0.19488E+03 
  71751.0438     0.19712E+03 
  71783.3060     0.19939E+03 
  71815.5682     0.20167E+03 
  71847.8303     0.20397E+03 
  71880.0925     0.20629E+03 
  71912.3546     0.20863E+03 
  71944.6168     0.21099E+03 
  71976.8790     0.21336E+03 
  72009.1411     0.21576E+03 
  72041.4033     0.21817E+03 
  72073.6654     0.22060E+03 
  72105.9276     0.22305E+03 
  72138.1898     0.22552E+03 
  72170.4519     0.22800E+03 
  72202.7141     0.23051E+03 
  72234.9762     0.23304E+03 
  72267.2384     0.23558E+03 
  72299.5006     0.23814E+03 
  72331.7627     0.24072E+03 
  72364.0249     0.24332E+03 
  72396.2870     0.24594E+03 
  72428.5492     0.24858E+03 
  72460.8114     0.25123E+03 
  72493.0735     0.25391E+03 
  72525.3357     0.25660E+03 
  72557.5978     0.25932E+03 
  72589.8600     0.26205E+03 
