  32262.1600     0.30467E+01 
  32294.4222     0.30827E+01 
  32326.6843     0.31189E+01 
  32358.9465     0.31553E+01 
  32391.2086     0.31921E+01 
  32423.4708     0.32291E+01 
  32455.7330     0.32664E+01 
  32487.9951     0.33040E+01 
  32520.2573     0.33419E+01 
  32552.5194     0.33801E+01 
  32584.7816     0.34185E+01 
  32617.0438     0.34572E+01 
  32649.3059     0.34962E+01 
  32681.5681     0.35354E+01 
  32713.8302     0.35750E+01 
  32746.0924     0.36148E+01 
  32778.3546     0.36549E+01 
  32810.6167     0.36952E+01 
  32842.8789     0.37359E+01 
  32875.1410     0.37768E+01 
  32907.4032     0.38180E+01 
  32939.6654     0.38595E+01 
  32971.9275     0.39012E+01 
  33004.1897     0.39432E+01 
  33036.4518     0.39855E+01 
  33068.7140     0.40281E+01 
  33100.9762     0.40709E+01 
  33133.2383     0.41140E+01 
  33165.5005     0.41573E+01 
  33197.7626     0.42010E+01 
  33230.0248     0.42449E+01 
  33262.2870     0.42891E+01 
  33294.5491     0.43335E+01 
  33326.8113     0.43782E+01 
  33359.0734     0.44232E+01 
  33391.3356     0.44684E+01 
  33423.5978     0.45139E+01 
  33455.8599     0.45596E+01 
  33488.1221     0.46057E+01 
  33520.3842     0.46519E+01 
  33552.6464     0.46985E+01 
  33584.9086     0.47452E+01 
  33617.1707     0.47923E+01 
  33649.4329     0.48396E+01 
  33681.6950     0.48871E+01 
  33713.9572     0.49349E+01 
  33746.2194     0.49830E+01 
  33778.4815     0.50313E+01 
  33810.7437     0.50798E+01 
  33843.0058     0.51286E+01 
  33875.2680     0.51776E+01 
  33907.5302     0.52269E+01 
  33939.7923     0.52764E+01 
  33972.0545     0.53262E+01 
  34004.3166     0.53761E+01 
  34036.5788     0.54264E+01 
  34068.8410     0.54768E+01 
  34101.1031     0.55275E+01 
  34133.3653     0.55784E+01 
  34165.6274     0.56296E+01 
  34197.8896     0.56809E+01 
  34230.1518     0.57325E+01 
  34262.4139     0.57843E+01 
  34294.6761     0.58364E+01 
  34326.9382     0.58886E+01 
  34359.2004     0.59411E+01 
  34391.4626     0.59937E+01 
  34423.7247     0.60466E+01 
  34455.9869     0.60997E+01 
  34488.2490     0.61530E+01 
  34520.5112     0.62065E+01 
  34552.7734     0.62602E+01 
  34585.0355     0.63141E+01 
  34617.2977     0.63682E+01 
  34649.5598     0.64225E+01 
  34681.8220     0.64770E+01 
  34714.0842     0.65317E+01 
  34746.3463     0.65866E+01 
  34778.6085     0.66416E+01 
  34810.8706     0.66969E+01 
  34843.1328     0.67523E+01 
  34875.3950     0.68078E+01 
  34907.6571     0.68636E+01 
  34939.9193     0.69195E+01 
  34972.1814     0.69756E+01 
  35004.4436     0.70319E+01 
  35036.7058     0.70883E+01 
  35068.9679     0.71449E+01 
  35101.2301     0.72016E+01 
  35133.4922     0.72585E+01 
  35165.7544     0.73156E+01 
  35198.0166     0.73728E+01 
  35230.2787     0.74301E+01 
  35262.5409     0.74876E+01 
  35294.8030     0.75452E+01 
  35327.0652     0.76029E+01 
  35359.3274     0.76608E+01 
  35391.5895     0.77188E+01 
  35423.8517     0.77770E+01 
  35456.1138     0.78352E+01 
  35488.3760     0.78936E+01 
  35520.6382     0.79521E+01 
  35552.9003     0.80107E+01 
  35585.1625     0.80694E+01 
  35617.4246     0.81282E+01 
  35649.6868     0.81871E+01 
  35681.9490     0.82462E+01 
  35714.2111     0.83053E+01 
  35746.4733     0.83645E+01 
  35778.7354     0.84238E+01 
  35810.9976     0.84832E+01 
  35843.2598     0.85426E+01 
  35875.5219     0.86022E+01 
  35907.7841     0.86618E+01 
  35940.0462     0.87215E+01 
  35972.3084     0.87812E+01 
  36004.5706     0.88410E+01 
  36036.8327     0.89009E+01 
  36069.0949     0.89608E+01 
  36101.3570     0.90208E+01 
  36133.6192     0.90808E+01 
  36165.8814     0.91409E+01 
  36198.1435     0.92010E+01 
  36230.4057     0.92612E+01 
  36262.6678     0.93213E+01 
  36294.9300     0.93816E+01 
  36327.1922     0.94418E+01 
  36359.4543     0.95020E+01 
  36391.7165     0.95623E+01 
  36423.9786     0.96226E+01 
  36456.2408     0.96829E+01 
  36488.5030     0.97432E+01 
  36520.7651     0.98035E+01 
  36553.0273     0.98638E+01 
  36585.2894     0.99241E+01 
  36617.5516     0.99844E+01 
  36649.8138     0.10045E+02 
  36682.0759     0.10105E+02 
  36714.3381     0.10165E+02 
  36746.6002     0.10225E+02 
  36778.8624     0.10286E+02 
  36811.1246     0.10346E+02 
  36843.3867     0.10406E+02 
  36875.6489     0.10466E+02 
  36907.9110     0.10526E+02 
  36940.1732     0.10586E+02 
  36972.4354     0.10646E+02 
  37004.6975     0.10706E+02 
  37036.9597     0.10765E+02 
  37069.2218     0.10825E+02 
  37101.4840     0.10885E+02 
  37133.7462     0.10944E+02 
  37166.0083     0.11004E+02 
  37198.2705     0.11063E+02 
  37230.5326     0.11123E+02 
  37262.7948     0.11182E+02 
  37295.0570     0.11241E+02 
  37327.3191     0.11300E+02 
  37359.5813     0.11359E+02 
  37391.8434     0.11418E+02 
  37424.1056     0.11477E+02 
  37456.3678     0.11535E+02 
  37488.6299     0.11594E+02 
  37520.8921     0.11652E+02 
  37553.1542     0.11710E+02 
  37585.4164     0.11768E+02 
  37617.6786     0.11826E+02 
  37649.9407     0.11884E+02 
  37682.2029     0.11942E+02 
  37714.4650     0.11999E+02 
  37746.7272     0.12057E+02 
  37778.9894     0.12114E+02 
  37811.2515     0.12171E+02 
  37843.5137     0.12228E+02 
  37875.7758     0.12285E+02 
  37908.0380     0.12341E+02 
  37940.3002     0.12398E+02 
  37972.5623     0.12454E+02 
  38004.8245     0.12510E+02 
  38037.0866     0.12566E+02 
  38069.3488     0.12621E+02 
  38101.6110     0.12677E+02 
  38133.8731     0.12732E+02 
  38166.1353     0.12787E+02 
  38198.3974     0.12842E+02 
  38230.6596     0.12896E+02 
  38262.9218     0.12951E+02 
  38295.1839     0.13005E+02 
  38327.4461     0.13059E+02 
  38359.7082     0.13112E+02 
  38391.9704     0.13166E+02 
  38424.2326     0.13219E+02 
  38456.4947     0.13272E+02 
  38488.7569     0.13325E+02 
  38521.0190     0.13377E+02 
  38553.2812     0.13430E+02 
  38585.5434     0.13482E+02 
  38617.8055     0.13533E+02 
  38650.0677     0.13585E+02 
  38682.3298     0.13636E+02 
  38714.5920     0.13687E+02 
  38746.8542     0.13738E+02 
  38779.1163     0.13788E+02 
  38811.3785     0.13838E+02 
  38843.6406     0.13888E+02 
  38875.9028     0.13937E+02 
  38908.1650     0.13987E+02 
  38940.4271     0.14036E+02 
  38972.6893     0.14084E+02 
  39004.9514     0.14133E+02 
  39037.2136     0.14181E+02 
  39069.4758     0.14228E+02 
  39101.7379     0.14276E+02 
  39134.0001     0.14323E+02 
  39166.2622     0.14370E+02 
  39198.5244     0.14416E+02 
  39230.7866     0.14462E+02 
  39263.0487     0.14508E+02 
  39295.3109     0.14554E+02 
  39327.5730     0.14599E+02 
  39359.8352     0.14643E+02 
  39392.0974     0.14688E+02 
  39424.3595     0.14732E+02 
  39456.6217     0.14776E+02 
  39488.8838     0.14819E+02 
  39521.1460     0.14862E+02 
  39553.4082     0.14905E+02 
  39585.6703     0.14947E+02 
  39617.9325     0.14989E+02 
  39650.1946     0.15031E+02 
  39682.4568     0.15072E+02 
  39714.7190     0.15113E+02 
  39746.9811     0.15154E+02 
  39779.2433     0.15194E+02 
  39811.5054     0.15233E+02 
  39843.7676     0.15273E+02 
  39876.0298     0.15312E+02 
  39908.2919     0.15350E+02 
  39940.5541     0.15389E+02 
  39972.8162     0.15426E+02 
  40005.0784     0.15464E+02 
  40037.3406     0.15501E+02 
  40069.6027     0.15538E+02 
  40101.8649     0.15574E+02 
  40134.1270     0.15610E+02 
  40166.3892     0.15645E+02 
  40198.6514     0.15680E+02 
  40230.9135     0.15715E+02 
  40263.1757     0.15749E+02 
  40295.4378     0.15783E+02 
  40327.7000     0.15816E+02 
  40359.9622     0.15849E+02 
  40392.2243     0.15881E+02 
  40424.4865     0.15913E+02 
  40456.7486     0.15945E+02 
  40489.0108     0.15976E+02 
  40521.2730     0.16007E+02 
  40553.5351     0.16038E+02 
  40585.7973     0.16067E+02 
  40618.0594     0.16097E+02 
  40650.3216     0.16126E+02 
  40682.5838     0.16155E+02 
  40714.8459     0.16183E+02 
  40747.1081     0.16211E+02 
  40779.3702     0.16238E+02 
  40811.6324     0.16265E+02 
  40843.8946     0.16291E+02 
  40876.1567     0.16317E+02 
  40908.4189     0.16343E+02 
  40940.6810     0.16368E+02 
  40972.9432     0.16392E+02 
  41005.2054     0.16417E+02 
  41037.4675     0.16440E+02 
  41069.7297     0.16464E+02 
  41101.9918     0.16486E+02 
  41134.2540     0.16509E+02 
  41166.5162     0.16531E+02 
  41198.7783     0.16552E+02 
  41231.0405     0.16573E+02 
  41263.3026     0.16593E+02 
  41295.5648     0.16613E+02 
  41327.8270     0.16633E+02 
  41360.0891     0.16652E+02 
  41392.3513     0.16671E+02 
  41424.6134     0.16689E+02 
  41456.8756     0.16707E+02 
  41489.1378     0.16724E+02 
  41521.3999     0.16741E+02 
  41553.6621     0.16757E+02 
  41585.9242     0.16773E+02 
  41618.1864     0.16788E+02 
  41650.4486     0.16803E+02 
  41682.7107     0.16818E+02 
  41714.9729     0.16832E+02 
  41747.2350     0.16845E+02 
  41779.4972     0.16858E+02 
  41811.7594     0.16871E+02 
  41844.0215     0.16883E+02 
  41876.2837     0.16894E+02 
  41908.5458     0.16905E+02 
  41940.8080     0.16916E+02 
  41973.0702     0.16926E+02 
  42005.3323     0.16936E+02 
  42037.5945     0.16945E+02 
  42069.8566     0.16954E+02 
  42102.1188     0.16962E+02 
  42134.3810     0.16970E+02 
  42166.6431     0.16977E+02 
  42198.9053     0.16984E+02 
  42231.1674     0.16991E+02 
  42263.4296     0.16997E+02 
  42295.6918     0.17002E+02 
  42327.9539     0.17007E+02 
  42360.2161     0.17012E+02 
  42392.4782     0.17016E+02 
  42424.7404     0.17019E+02 
  42457.0026     0.17022E+02 
  42489.2647     0.17025E+02 
  42521.5269     0.17027E+02 
  42553.7890     0.17029E+02 
  42586.0512     0.17030E+02 
  42618.3134     0.17031E+02 
  42650.5755     0.17031E+02 
  42682.8377     0.17031E+02 
  42715.0998     0.17031E+02 
  42747.3620     0.17029E+02 
  42779.6242     0.17028E+02 
  42811.8863     0.17026E+02 
  42844.1485     0.17023E+02 
  42876.4106     0.17021E+02 
  42908.6728     0.17017E+02 
  42940.9350     0.17013E+02 
  42973.1971     0.17009E+02 
  43005.4593     0.17004E+02 
  43037.7214     0.16999E+02 
  43069.9836     0.16993E+02 
  43102.2458     0.16987E+02 
  43134.5079     0.16981E+02 
  43166.7701     0.16974E+02 
  43199.0322     0.16966E+02 
  43231.2944     0.16958E+02 
  43263.5566     0.16950E+02 
  43295.8187     0.16941E+02 
  43328.0809     0.16932E+02 
  43360.3430     0.16922E+02 
  43392.6052     0.16912E+02 
  43424.8674     0.16902E+02 
  43457.1295     0.16891E+02 
  43489.3917     0.16879E+02 
  43521.6538     0.16868E+02 
  43553.9160     0.16855E+02 
  43586.1782     0.16843E+02 
  43618.4403     0.16830E+02 
  43650.7025     0.16816E+02 
  43682.9646     0.16802E+02 
  43715.2268     0.16788E+02 
  43747.4890     0.16773E+02 
  43779.7511     0.16758E+02 
  43812.0133     0.16742E+02 
  43844.2754     0.16726E+02 
  43876.5376     0.16709E+02 
  43908.7998     0.16692E+02 
  43941.0619     0.16675E+02 
  43973.3241     0.16657E+02 
  44005.5862     0.16639E+02 
  44037.8484     0.16621E+02 
  44070.1106     0.16602E+02 
  44102.3727     0.16583E+02 
  44134.6349     0.16563E+02 
  44166.8970     0.16543E+02 
  44199.1592     0.16522E+02 
  44231.4214     0.16501E+02 
  44263.6835     0.16480E+02 
  44295.9457     0.16458E+02 
  44328.2078     0.16436E+02 
  44360.4700     0.16414E+02 
  44392.7322     0.16391E+02 
  44424.9943     0.16368E+02 
  44457.2565     0.16344E+02 
  44489.5186     0.16320E+02 
  44521.7808     0.16296E+02 
  44554.0430     0.16271E+02 
  44586.3051     0.16246E+02 
  44618.5673     0.16221E+02 
  44650.8294     0.16195E+02 
  44683.0916     0.16169E+02 
  44715.3538     0.16143E+02 
  44747.6159     0.16116E+02 
  44779.8781     0.16089E+02 
  44812.1402     0.16061E+02 
  44844.4024     0.16033E+02 
  44876.6646     0.16005E+02 
  44908.9267     0.15977E+02 
  44941.1889     0.15948E+02 
  44973.4510     0.15918E+02 
  45005.7132     0.15889E+02 
  45037.9754     0.15859E+02 
  45070.2375     0.15829E+02 
  45102.4997     0.15798E+02 
  45134.7618     0.15767E+02 
  45167.0240     0.15736E+02 
  45199.2862     0.15705E+02 
  45231.5483     0.15673E+02 
  45263.8105     0.15641E+02 
  45296.0726     0.15608E+02 
  45328.3348     0.15576E+02 
  45360.5970     0.15543E+02 
  45392.8591     0.15509E+02 
  45425.1213     0.15476E+02 
  45457.3834     0.15442E+02 
  45489.6456     0.15408E+02 
  45521.9078     0.15373E+02 
  45554.1699     0.15338E+02 
  45586.4321     0.15303E+02 
  45618.6942     0.15268E+02 
  45650.9564     0.15232E+02 
  45683.2186     0.15196E+02 
  45715.4807     0.15160E+02 
  45747.7429     0.15124E+02 
  45780.0050     0.15087E+02 
  45812.2672     0.15050E+02 
  45844.5294     0.15013E+02 
  45876.7915     0.14976E+02 
  45909.0537     0.14938E+02 
  45941.3158     0.14900E+02 
  45973.5780     0.14862E+02 
  46005.8402     0.14823E+02 
  46038.1023     0.14784E+02 
  46070.3645     0.14745E+02 
  46102.6266     0.14706E+02 
  46134.8888     0.14667E+02 
  46167.1510     0.14627E+02 
  46199.4131     0.14587E+02 
  46231.6753     0.14547E+02 
  46263.9374     0.14507E+02 
  46296.1996     0.14466E+02 
  46328.4618     0.14425E+02 
  46360.7239     0.14384E+02 
  46392.9861     0.14343E+02 
  46425.2482     0.14302E+02 
  46457.5104     0.14260E+02 
  46489.7726     0.14218E+02 
  46522.0347     0.14176E+02 
  46554.2969     0.14134E+02 
  46586.5590     0.14092E+02 
  46618.8212     0.14049E+02 
  46651.0834     0.14007E+02 
  46683.3455     0.13964E+02 
  46715.6077     0.13920E+02 
  46747.8698     0.13877E+02 
  46780.1320     0.13834E+02 
  46812.3942     0.13790E+02 
  46844.6563     0.13746E+02 
  46876.9185     0.13702E+02 
  46909.1806     0.13658E+02 
  46941.4428     0.13614E+02 
  46973.7050     0.13569E+02 
  47005.9671     0.13524E+02 
  47038.2293     0.13480E+02 
  47070.4914     0.13435E+02 
  47102.7536     0.13390E+02 
  47135.0158     0.13344E+02 
  47167.2779     0.13299E+02 
  47199.5401     0.13254E+02 
  47231.8022     0.13208E+02 
  47264.0644     0.13162E+02 
  47296.3266     0.13116E+02 
  47328.5887     0.13070E+02 
  47360.8509     0.13024E+02 
  47393.1130     0.12978E+02 
  47425.3752     0.12931E+02 
  47457.6374     0.12885E+02 
  47489.8995     0.12838E+02 
  47522.1617     0.12791E+02 
  47554.4238     0.12745E+02 
  47586.6860     0.12698E+02 
  47618.9482     0.12650E+02 
  47651.2103     0.12603E+02 
  47683.4725     0.12556E+02 
  47715.7346     0.12509E+02 
  47747.9968     0.12461E+02 
  47780.2590     0.12414E+02 
  47812.5211     0.12366E+02 
  47844.7833     0.12318E+02 
  47877.0454     0.12271E+02 
  47909.3076     0.12223E+02 
  47941.5698     0.12175E+02 
  47973.8319     0.12127E+02 
  48006.0941     0.12079E+02 
  48038.3562     0.12031E+02 
  48070.6184     0.11982E+02 
  48102.8806     0.11934E+02 
  48135.1427     0.11886E+02 
  48167.4049     0.11837E+02 
  48199.6670     0.11789E+02 
  48231.9292     0.11740E+02 
  48264.1914     0.11692E+02 
  48296.4535     0.11643E+02 
  48328.7157     0.11595E+02 
  48360.9778     0.11546E+02 
  48393.2400     0.11497E+02 
  48425.5022     0.11448E+02 
  48457.7643     0.11400E+02 
  48490.0265     0.11351E+02 
  48522.2886     0.11302E+02 
  48554.5508     0.11253E+02 
  48586.8130     0.11204E+02 
  48619.0751     0.11155E+02 
  48651.3373     0.11106E+02 
  48683.5994     0.11057E+02 
  48715.8616     0.11008E+02 
  48748.1238     0.10959E+02 
  48780.3859     0.10910E+02 
  48812.6481     0.10861E+02 
  48844.9102     0.10812E+02 
  48877.1724     0.10763E+02 
  48909.4346     0.10714E+02 
  48941.6967     0.10665E+02 
  48973.9589     0.10616E+02 
  49006.2210     0.10567E+02 
  49038.4832     0.10518E+02 
  49070.7454     0.10469E+02 
  49103.0075     0.10420E+02 
  49135.2697     0.10371E+02 
  49167.5318     0.10322E+02 
  49199.7940     0.10273E+02 
  49232.0562     0.10224E+02 
  49264.3183     0.10175E+02 
  49296.5805     0.10126E+02 
  49328.8426     0.10077E+02 
  49361.1048     0.10028E+02 
  49393.3670     0.99797E+01 
  49425.6291     0.99309E+01 
  49457.8913     0.98821E+01 
  49490.1534     0.98334E+01 
  49522.4156     0.97847E+01 
  49554.6778     0.97360E+01 
  49586.9399     0.96874E+01 
  49619.2021     0.96389E+01 
  49651.4642     0.95903E+01 
  49683.7264     0.95419E+01 
  49715.9886     0.94934E+01 
  49748.2507     0.94451E+01 
  49780.5129     0.93967E+01 
  49812.7750     0.93485E+01 
  49845.0372     0.93002E+01 
  49877.2994     0.92521E+01 
  49909.5615     0.92040E+01 
  49941.8237     0.91559E+01 
  49974.0858     0.91080E+01 
  50006.3480     0.90600E+01 
  50038.6102     0.90122E+01 
  50070.8723     0.89644E+01 
  50103.1345     0.89167E+01 
  50135.3966     0.88690E+01 
  50167.6588     0.88215E+01 
  50199.9210     0.87740E+01 
  50232.1831     0.87265E+01 
  50264.4453     0.86792E+01 
  50296.7074     0.86319E+01 
  50328.9696     0.85847E+01 
  50361.2318     0.85376E+01 
  50393.4939     0.84906E+01 
  50425.7561     0.84437E+01 
  50458.0182     0.83968E+01 
  50490.2804     0.83500E+01 
  50522.5426     0.83033E+01 
  50554.8047     0.82568E+01 
  50587.0669     0.82103E+01 
  50619.3290     0.81638E+01 
  50651.5912     0.81175E+01 
  50683.8534     0.80713E+01 
  50716.1155     0.80252E+01 
  50748.3777     0.79792E+01 
  50780.6398     0.79332E+01 
  50812.9020     0.78874E+01 
  50845.1642     0.78417E+01 
  50877.4263     0.77961E+01 
  50909.6885     0.77506E+01 
  50941.9506     0.77051E+01 
  50974.2128     0.76598E+01 
  51006.4750     0.76146E+01 
  51038.7371     0.75695E+01 
  51070.9993     0.75246E+01 
  51103.2614     0.74797E+01 
  51135.5236     0.74349E+01 
  51167.7858     0.73903E+01 
  51200.0479     0.73458E+01 
  51232.3101     0.73014E+01 
  51264.5722     0.72571E+01 
  51296.8344     0.72129E+01 
  51329.0966     0.71688E+01 
  51361.3587     0.71249E+01 
  51393.6209     0.70811E+01 
  51425.8830     0.70374E+01 
  51458.1452     0.69938E+01 
  51490.4074     0.69503E+01 
  51522.6695     0.69070E+01 
  51554.9317     0.68638E+01 
  51587.1938     0.68207E+01 
  51619.4560     0.67778E+01 
  51651.7182     0.67349E+01 
  51683.9803     0.66922E+01 
  51716.2425     0.66497E+01 
  51748.5046     0.66072E+01 
  51780.7668     0.65649E+01 
  51813.0290     0.65228E+01 
  51845.2911     0.64807E+01 
  51877.5533     0.64388E+01 
  51909.8154     0.63970E+01 
  51942.0776     0.63554E+01 
  51974.3398     0.63139E+01 
  52006.6019     0.62725E+01 
  52038.8641     0.62313E+01 
  52071.1262     0.61902E+01 
  52103.3884     0.61492E+01 
  52135.6506     0.61084E+01 
  52167.9127     0.60677E+01 
  52200.1749     0.60272E+01 
  52232.4370     0.59868E+01 
  52264.6992     0.59465E+01 
  52296.9614     0.59064E+01 
  52329.2235     0.58665E+01 
  52361.4857     0.58266E+01 
  52393.7478     0.57869E+01 
  52426.0100     0.57474E+01 
  52458.2722     0.57080E+01 
  52490.5343     0.56687E+01 
  52522.7965     0.56296E+01 
  52555.0586     0.55907E+01 
  52587.3208     0.55518E+01 
  52619.5830     0.55132E+01 
  52651.8451     0.54746E+01 
  52684.1073     0.54363E+01 
  52716.3694     0.53980E+01 
  52748.6316     0.53599E+01 
  52780.8938     0.53220E+01 
  52813.1559     0.52842E+01 
  52845.4181     0.52466E+01 
  52877.6802     0.52091E+01 
  52909.9424     0.51718E+01 
  52942.2046     0.51346E+01 
  52974.4667     0.50975E+01 
  53006.7289     0.50607E+01 
  53038.9910     0.50239E+01 
  53071.2532     0.49873E+01 
  53103.5154     0.49509E+01 
  53135.7775     0.49146E+01 
  53168.0397     0.48785E+01 
  53200.3018     0.48425E+01 
  53232.5640     0.48067E+01 
  53264.8262     0.47710E+01 
  53297.0883     0.47355E+01 
  53329.3505     0.47001E+01 
  53361.6126     0.46649E+01 
  53393.8748     0.46299E+01 
  53426.1370     0.45950E+01 
  53458.3991     0.45602E+01 
  53490.6613     0.45256E+01 
  53522.9234     0.44912E+01 
  53555.1856     0.44569E+01 
  53587.4478     0.44227E+01 
  53619.7099     0.43888E+01 
  53651.9721     0.43549E+01 
  53684.2342     0.43213E+01 
  53716.4964     0.42877E+01 
  53748.7586     0.42544E+01 
  53781.0207     0.42212E+01 
  53813.2829     0.41881E+01 
  53845.5450     0.41552E+01 
  53877.8072     0.41224E+01 
  53910.0694     0.40899E+01 
  53942.3315     0.40574E+01 
  53974.5937     0.40251E+01 
  54006.8558     0.39930E+01 
  54039.1180     0.39610E+01 
  54071.3802     0.39292E+01 
  54103.6423     0.38975E+01 
  54135.9045     0.38660E+01 
  54168.1666     0.38346E+01 
  54200.4288     0.38034E+01 
  54232.6910     0.37724E+01 
  54264.9531     0.37415E+01 
  54297.2153     0.37107E+01 
  54329.4774     0.36801E+01 
  54361.7396     0.36497E+01 
  54394.0018     0.36194E+01 
  54426.2639     0.35893E+01 
  54458.5261     0.35593E+01 
  54490.7882     0.35295E+01 
  54523.0504     0.34998E+01 
  54555.3126     0.34703E+01 
  54587.5747     0.34409E+01 
  54619.8369     0.34117E+01 
  54652.0990     0.33826E+01 
  54684.3612     0.33537E+01 
  54716.6234     0.33250E+01 
  54748.8855     0.32963E+01 
  54781.1477     0.32679E+01 
  54813.4098     0.32396E+01 
  54845.6720     0.32114E+01 
  54877.9342     0.31834E+01 
  54910.1963     0.31556E+01 
  54942.4585     0.31279E+01 
  54974.7206     0.31003E+01 
  55006.9828     0.30729E+01 
  55039.2450     0.30456E+01 
  55071.5071     0.30185E+01 
  55103.7693     0.29916E+01 
  55136.0314     0.29648E+01 
  55168.2936     0.29381E+01 
  55200.5558     0.29116E+01 
  55232.8179     0.28852E+01 
  55265.0801     0.28590E+01 
  55297.3422     0.28329E+01 
  55329.6044     0.28070E+01 
  55361.8666     0.27812E+01 
  55394.1287     0.27556E+01 
  55426.3909     0.27301E+01 
  55458.6530     0.27047E+01 
  55490.9152     0.26796E+01 
  55523.1774     0.26545E+01 
  55555.4395     0.26296E+01 
  55587.7017     0.26048E+01 
  55619.9638     0.25802E+01 
  55652.2260     0.25557E+01 
  55684.4882     0.25314E+01 
  55716.7503     0.25072E+01 
  55749.0125     0.24832E+01 
  55781.2746     0.24593E+01 
  55813.5368     0.24355E+01 
  55845.7990     0.24119E+01 
  55878.0611     0.23884E+01 
  55910.3233     0.23651E+01 
  55942.5854     0.23419E+01 
  55974.8476     0.23188E+01 
  56007.1098     0.22959E+01 
  56039.3719     0.22731E+01 
  56071.6341     0.22505E+01 
  56103.8962     0.22280E+01 
  56136.1584     0.22056E+01 
  56168.4206     0.21834E+01 
  56200.6827     0.21613E+01 
  56232.9449     0.21393E+01 
  56265.2070     0.21175E+01 
  56297.4692     0.20958E+01 
  56329.7314     0.20743E+01 
  56361.9935     0.20529E+01 
  56394.2557     0.20316E+01 
  56426.5178     0.20105E+01 
  56458.7800     0.19895E+01 
  56491.0422     0.19686E+01 
  56523.3043     0.19479E+01 
  56555.5665     0.19273E+01 
  56587.8286     0.19068E+01 
  56620.0908     0.18864E+01 
  56652.3530     0.18662E+01 
  56684.6151     0.18462E+01 
  56716.8773     0.18262E+01 
  56749.1394     0.18064E+01 
  56781.4016     0.17867E+01 
  56813.6638     0.17671E+01 
  56845.9259     0.17477E+01 
  56878.1881     0.17284E+01 
  56910.4502     0.17092E+01 
  56942.7124     0.16902E+01 
  56974.9746     0.16713E+01 
  57007.2367     0.16525E+01 
  57039.4989     0.16338E+01 
  57071.7610     0.16153E+01 
  57104.0232     0.15969E+01 
  57136.2854     0.15786E+01 
  57168.5475     0.15604E+01 
  57200.8097     0.15424E+01 
  57233.0718     0.15245E+01 
  57265.3340     0.15067E+01 
  57297.5962     0.14890E+01 
  57329.8583     0.14715E+01 
  57362.1205     0.14541E+01 
  57394.3826     0.14368E+01 
  57426.6448     0.14196E+01 
  57458.9070     0.14025E+01 
  57491.1691     0.13856E+01 
  57523.4313     0.13688E+01 
  57555.6934     0.13521E+01 
  57587.9556     0.13355E+01 
  57620.2178     0.13190E+01 
  57652.4799     0.13027E+01 
  57684.7421     0.12865E+01 
  57717.0042     0.12704E+01 
  57749.2664     0.12544E+01 
  57781.5286     0.12385E+01 
  57813.7907     0.12228E+01 
  57846.0529     0.12071E+01 
  57878.3150     0.11916E+01 
  57910.5772     0.11762E+01 
  57942.8394     0.11609E+01 
  57975.1015     0.11457E+01 
  58007.3637     0.11307E+01 
  58039.6258     0.11157E+01 
  58071.8880     0.11009E+01 
  58104.1502     0.10861E+01 
  58136.4123     0.10715E+01 
  58168.6745     0.10570E+01 
  58200.9366     0.10426E+01 
  58233.1988     0.10284E+01 
  58265.4610     0.10142E+01 
  58297.7231     0.10001E+01 
  58329.9853     0.98620E+00 
  58362.2474     0.97236E+00 
  58394.5096     0.95863E+00 
  58426.7718     0.94502E+00 
  58459.0339     0.93151E+00 
  58491.2961     0.91811E+00 
  58523.5582     0.90482E+00 
  58555.8204     0.89164E+00 
  58588.0826     0.87856E+00 
  58620.3447     0.86559E+00 
  58652.6069     0.85273E+00 
  58684.8690     0.83997E+00 
  58717.1312     0.82732E+00 
  58749.3934     0.81478E+00 
  58781.6555     0.80234E+00 
  58813.9177     0.79000E+00 
  58846.1798     0.77777E+00 
  58878.4420     0.76565E+00 
  58910.7042     0.75363E+00 
  58942.9663     0.74171E+00 
  58975.2285     0.72990E+00 
  59007.4906     0.71819E+00 
  59039.7528     0.70658E+00 
  59072.0150     0.69508E+00 
  59104.2771     0.68367E+00 
  59136.5393     0.67238E+00 
  59168.8014     0.66118E+00 
  59201.0636     0.65008E+00 
  59233.3258     0.63909E+00 
  59265.5879     0.62819E+00 
  59297.8501     0.61740E+00 
  59330.1122     0.60671E+00 
  59362.3744     0.59612E+00 
  59394.6366     0.58563E+00 
  59426.8987     0.57524E+00 
  59459.1609     0.56494E+00 
  59491.4230     0.55475E+00 
  59523.6852     0.54466E+00 
  59555.9474     0.53467E+00 
  59588.2095     0.52477E+00 
  59620.4717     0.51498E+00 
  59652.7338     0.50528E+00 
  59684.9960     0.49569E+00 
  59717.2582     0.48619E+00 
  59749.5203     0.47679E+00 
  59781.7825     0.46748E+00 
  59814.0446     0.45828E+00 
  59846.3068     0.44917E+00 
  59878.5690     0.44016E+00 
  59910.8311     0.43125E+00 
  59943.0933     0.42244E+00 
  59975.3554     0.41372E+00 
  60007.6176     0.40510E+00 
  60039.8798     0.39658E+00 
  60072.1419     0.38816E+00 
  60104.4041     0.37983E+00 
  60136.6662     0.37160E+00 
  60168.9284     0.36347E+00 
  60201.1906     0.35543E+00 
  60233.4527     0.34750E+00 
  60265.7149     0.33966E+00 
  60297.9770     0.33191E+00 
  60330.2392     0.32427E+00 
  60362.5014     0.31672E+00 
  60394.7635     0.30926E+00 
  60427.0257     0.30191E+00 
  60459.2878     0.29465E+00 
  60491.5500     0.28749E+00 
  60523.8122     0.28043E+00 
  60556.0743     0.27346E+00 
  60588.3365     0.26660E+00 
  60620.5986     0.25983E+00 
  60652.8608     0.25316E+00 
  60685.1230     0.24658E+00 
  60717.3851     0.24011E+00 
  60749.6473     0.23373E+00 
  60781.9094     0.22746E+00 
  60814.1716     0.22128E+00 
  60846.4338     0.21520E+00 
  60878.6959     0.20922E+00 
  60910.9581     0.20334E+00 
  60943.2202     0.19756E+00 
  60975.4824     0.19188E+00 
  61007.7446     0.18630E+00 
  61040.0067     0.18082E+00 
  61072.2689     0.17544E+00 
  61104.5310     0.17016E+00 
  61136.7932     0.16499E+00 
  61169.0554     0.15992E+00 
  61201.3175     0.15494E+00 
  61233.5797     0.15008E+00 
  61265.8418     0.14531E+00 
  61298.1040     0.14065E+00 
  61330.3662     0.13610E+00 
  61362.6283     0.13165E+00 
  61394.8905     0.12730E+00 
  61427.1526     0.12306E+00 
  61459.4148     0.11892E+00 
  61491.6770     0.11490E+00 
  61523.9391     0.11098E+00 
  61556.2013     0.10717E+00 
  61588.4634     0.10346E+00 
  61620.7256     0.99868E-01 
  61652.9878     0.96384E-01 
  61685.2499     0.93011E-01 
  61717.5121     0.89749E-01 
  61749.7742     0.86599E-01 
  61782.0364     0.83562E-01 
  61814.2986     0.80638E-01 
  61846.5607     0.77829E-01 
  61878.8229     0.75135E-01 
  61911.0850     0.72558E-01 
  61943.3472     0.70097E-01 
  61975.6094     0.67754E-01 
  62007.8715     0.65530E-01 
  62040.1337     0.63426E-01 
  62072.3958     0.61442E-01 
  62104.6580     0.59580E-01 
  62136.9202     0.57841E-01 
  62169.1823     0.56226E-01 
  62201.4445     0.54736E-01 
  62233.7066     0.53372E-01 
  62265.9688     0.52135E-01 
  62298.2310     0.51027E-01 
  62330.4931     0.50049E-01 
  62362.7553     0.49201E-01 
  62395.0174     0.48486E-01 
  62427.2796     0.47904E-01 
  62459.5418     0.47457E-01 
  62491.8039     0.47147E-01 
  62524.0661     0.46974E-01 
  62556.3282     0.46940E-01 
  62588.5904     0.47048E-01 
  62620.8526     0.47297E-01 
  62653.1147     0.47690E-01 
  62685.3769     0.48229E-01 
  62717.6390     0.48915E-01 
  62749.9012     0.49749E-01 
  62782.1634     0.50734E-01 
  62814.4255     0.51872E-01 
  62846.6877     0.53163E-01 
  62878.9498     0.54611E-01 
  62911.2120     0.56216E-01 
  62943.4742     0.57981E-01 
  62975.7363     0.59908E-01 
  63007.9985     0.61998E-01 
  63040.2606     0.64255E-01 
  63072.5228     0.66679E-01 
  63104.7850     0.69274E-01 
  63137.0471     0.72041E-01 
  63169.3093     0.74983E-01 
  63201.5714     0.78102E-01 
  63233.8336     0.81400E-01 
  63266.0958     0.84880E-01 
  63298.3579     0.88544E-01 
  63330.6201     0.92395E-01 
  63362.8822     0.96435E-01 
  63395.1444     0.10067E+00 
  63427.4066     0.10509E+00 
  63459.6687     0.10972E+00 
  63491.9309     0.11454E+00 
  63524.1930     0.11957E+00 
  63556.4552     0.12480E+00 
  63588.7174     0.13025E+00 
  63620.9795     0.13590E+00 
  63653.2417     0.14177E+00 
  63685.5038     0.14786E+00 
  63717.7660     0.15417E+00 
  63750.0282     0.16070E+00 
  63782.2903     0.16747E+00 
  63814.5525     0.17446E+00 
  63846.8146     0.18169E+00 
  63879.0768     0.18916E+00 
  63911.3390     0.19687E+00 
  63943.6011     0.20482E+00 
  63975.8633     0.21303E+00 
  64008.1254     0.22149E+00 
  64040.3876     0.23021E+00 
  64072.6498     0.23918E+00 
  64104.9119     0.24843E+00 
  64137.1741     0.25794E+00 
  64169.4362     0.26773E+00 
  64201.6984     0.27780E+00 
  64233.9606     0.28815E+00 
  64266.2227     0.29878E+00 
  64298.4849     0.30971E+00 
  64330.7470     0.32093E+00 
  64363.0092     0.33246E+00 
  64395.2714     0.34429E+00 
  64427.5335     0.35643E+00 
  64459.7957     0.36889E+00 
  64492.0578     0.38167E+00 
  64524.3200     0.39477E+00 
  64556.5822     0.40821E+00 
  64588.8443     0.42198E+00 
  64621.1065     0.43609E+00 
  64653.3686     0.45055E+00 
  64685.6308     0.46537E+00 
  64717.8930     0.48054E+00 
  64750.1551     0.49608E+00 
  64782.4173     0.51199E+00 
  64814.6794     0.52827E+00 
  64846.9416     0.54494E+00 
  64879.2038     0.56199E+00 
  64911.4659     0.57945E+00 
  64943.7281     0.59730E+00 
  64975.9902     0.61556E+00 
  65008.2524     0.63424E+00 
  65040.5146     0.65334E+00 
  65072.7767     0.67286E+00 
  65105.0389     0.69282E+00 
  65137.3010     0.71323E+00 
  65169.5632     0.73408E+00 
  65201.8254     0.75539E+00 
  65234.0875     0.77717E+00 
  65266.3497     0.79942E+00 
  65298.6118     0.82215E+00 
  65330.8740     0.84536E+00 
  65363.1362     0.86907E+00 
  65395.3983     0.89329E+00 
  65427.6605     0.91801E+00 
  65459.9226     0.94326E+00 
  65492.1848     0.96904E+00 
  65524.4470     0.99535E+00 
  65556.7091     0.10222E+01 
  65588.9713     0.10496E+01 
  65621.2334     0.10776E+01 
  65653.4956     0.11061E+01 
  65685.7578     0.11353E+01 
  65718.0199     0.11650E+01 
  65750.2821     0.11953E+01 
  65782.5442     0.12262E+01 
  65814.8064     0.12578E+01 
  65847.0686     0.12900E+01 
  65879.3307     0.13228E+01 
  65911.5929     0.13563E+01 
  65943.8550     0.13904E+01 
  65976.1172     0.14252E+01 
  66008.3794     0.14607E+01 
  66040.6415     0.14968E+01 
  66072.9037     0.15337E+01 
  66105.1658     0.15713E+01 
  66137.4280     0.16096E+01 
  66169.6902     0.16487E+01 
  66201.9523     0.16885E+01 
  66234.2145     0.17290E+01 
  66266.4766     0.17704E+01 
  66298.7388     0.18125E+01 
  66331.0010     0.18554E+01 
  66363.2631     0.18991E+01 
  66395.5253     0.19436E+01 
  66427.7874     0.19890E+01 
  66460.0496     0.20352E+01 
  66492.3118     0.20823E+01 
  66524.5739     0.21302E+01 
  66556.8361     0.21791E+01 
  66589.0982     0.22288E+01 
  66621.3604     0.22794E+01 
  66653.6226     0.23310E+01 
  66685.8847     0.23835E+01 
  66718.1469     0.24369E+01 
  66750.4090     0.24914E+01 
  66782.6712     0.25468E+01 
  66814.9334     0.26032E+01 
  66847.1955     0.26606E+01 
  66879.4577     0.27190E+01 
  66911.7198     0.27785E+01 
  66943.9820     0.28390E+01 
  66976.2442     0.29006E+01 
  67008.5063     0.29633E+01 
  67040.7685     0.30271E+01 
  67073.0306     0.30920E+01 
  67105.2928     0.31580E+01 
  67137.5550     0.32252E+01 
  67169.8171     0.32935E+01 
  67202.0793     0.33631E+01 
  67234.3414     0.34338E+01 
  67266.6036     0.35058E+01 
  67298.8658     0.35790E+01 
  67331.1279     0.36534E+01 
  67363.3901     0.37291E+01 
  67395.6522     0.38061E+01 
  67427.9144     0.38844E+01 
  67460.1766     0.39640E+01 
  67492.4387     0.40449E+01 
  67524.7009     0.41273E+01 
  67556.9630     0.42109E+01 
  67589.2252     0.42960E+01 
  67621.4874     0.43825E+01 
  67653.7495     0.44704E+01 
  67686.0117     0.45598E+01 
  67718.2738     0.46506E+01 
  67750.5360     0.47430E+01 
  67782.7982     0.48368E+01 
  67815.0603     0.49322E+01 
  67847.3225     0.50291E+01 
  67879.5846     0.51276E+01 
  67911.8468     0.52277E+01 
  67944.1090     0.53293E+01 
  67976.3711     0.54327E+01 
  68008.6333     0.55376E+01 
  68040.8954     0.56443E+01 
  68073.1576     0.57526E+01 
  68105.4198     0.58626E+01 
  68137.6819     0.59744E+01 
  68169.9441     0.60879E+01 
  68202.2062     0.62032E+01 
  68234.4684     0.63203E+01 
  68266.7306     0.64393E+01 
  68298.9927     0.65600E+01 
  68331.2549     0.66827E+01 
  68363.5170     0.68072E+01 
  68395.7792     0.69336E+01 
  68428.0414     0.70620E+01 
  68460.3035     0.71923E+01 
  68492.5657     0.73246E+01 
  68524.8278     0.74589E+01 
  68557.0900     0.75952E+01 
  68589.3522     0.77336E+01 
  68621.6143     0.78740E+01 
  68653.8765     0.80165E+01 
  68686.1386     0.81612E+01 
  68718.4008     0.83080E+01 
  68750.6630     0.84569E+01 
  68782.9251     0.86081E+01 
  68815.1873     0.87614E+01 
  68847.4494     0.89170E+01 
  68879.7116     0.90749E+01 
  68911.9738     0.92350E+01 
  68944.2359     0.93975E+01 
  68976.4981     0.95623E+01 
  69008.7602     0.97294E+01 
  69041.0224     0.98990E+01 
  69073.2846     0.10071E+02 
  69105.5467     0.10245E+02 
  69137.8089     0.10422E+02 
  69170.0710     0.10601E+02 
  69202.3332     0.10783E+02 
  69234.5954     0.10968E+02 
  69266.8575     0.11155E+02 
  69299.1197     0.11344E+02 
  69331.3818     0.11536E+02 
  69363.6440     0.11731E+02 
  69395.9062     0.11928E+02 
  69428.1683     0.12129E+02 
  69460.4305     0.12331E+02 
  69492.6926     0.12537E+02 
  69524.9548     0.12745E+02 
  69557.2170     0.12957E+02 
  69589.4791     0.13170E+02 
  69621.7413     0.13387E+02 
  69654.0034     0.13607E+02 
  69686.2656     0.13830E+02 
  69718.5278     0.14055E+02 
  69750.7899     0.14283E+02 
  69783.0521     0.14515E+02 
  69815.3142     0.14749E+02 
  69847.5764     0.14987E+02 
  69879.8386     0.15227E+02 
  69912.1007     0.15471E+02 
  69944.3629     0.15717E+02 
  69976.6250     0.15967E+02 
  70008.8872     0.16220E+02 
  70041.1494     0.16476E+02 
  70073.4115     0.16736E+02 
  70105.6737     0.16998E+02 
  70137.9358     0.17264E+02 
  70170.1980     0.17533E+02 
  70202.4602     0.17806E+02 
  70234.7223     0.18081E+02 
  70266.9845     0.18361E+02 
  70299.2466     0.18643E+02 
  70331.5088     0.18929E+02 
  70363.7710     0.19218E+02 
  70396.0331     0.19511E+02 
  70428.2953     0.19808E+02 
  70460.5574     0.20107E+02 
  70492.8196     0.20411E+02 
  70525.0818     0.20718E+02 
  70557.3439     0.21028E+02 
  70589.6061     0.21342E+02 
  70621.8682     0.21660E+02 
  70654.1304     0.21982E+02 
  70686.3926     0.22307E+02 
  70718.6547     0.22635E+02 
  70750.9169     0.22968E+02 
  70783.1790     0.23304E+02 
  70815.4412     0.23644E+02 
  70847.7034     0.23988E+02 
  70879.9655     0.24336E+02 
  70912.2277     0.24688E+02 
  70944.4898     0.25043E+02 
  70976.7520     0.25402E+02 
  71009.0142     0.25766E+02 
  71041.2763     0.26133E+02 
  71073.5385     0.26504E+02 
  71105.8006     0.26879E+02 
  71138.0628     0.27258E+02 
  71170.3250     0.27641E+02 
  71202.5871     0.28028E+02 
  71234.8493     0.28420E+02 
  71267.1114     0.28815E+02 
  71299.3736     0.29215E+02 
  71331.6358     0.29618E+02 
  71363.8979     0.30026E+02 
  71396.1601     0.30438E+02 
  71428.4222     0.30854E+02 
  71460.6844     0.31274E+02 
  71492.9466     0.31699E+02 
  71525.2087     0.32127E+02 
  71557.4709     0.32560E+02 
  71589.7330     0.32998E+02 
  71621.9952     0.33439E+02 
  71654.2574     0.33885E+02 
  71686.5195     0.34335E+02 
  71718.7817     0.34790E+02 
  71751.0438     0.35249E+02 
  71783.3060     0.35712E+02 
  71815.5682     0.36180E+02 
  71847.8303     0.36652E+02 
  71880.0925     0.37129E+02 
  71912.3546     0.37610E+02 
  71944.6168     0.38095E+02 
  71976.8790     0.38585E+02 
  72009.1411     0.39079E+02 
  72041.4033     0.39578E+02 
  72073.6654     0.40081E+02 
  72105.9276     0.40589E+02 
  72138.1898     0.41102E+02 
  72170.4519     0.41618E+02 
  72202.7141     0.42140E+02 
  72234.9762     0.42666E+02 
  72267.2384     0.43197E+02 
  72299.5006     0.43732E+02 
  72331.7627     0.44271E+02 
  72364.0249     0.44816E+02 
  72396.2870     0.45365E+02 
  72428.5492     0.45918E+02 
  72460.8114     0.46476E+02 
  72493.0735     0.47039E+02 
  72525.3357     0.47606E+02 
  72557.5978     0.48178E+02 
  72589.8600     0.48755E+02 
