  32262.1600     0.77629E-02 
  32294.4222     0.78754E-02 
  32326.6843     0.79890E-02 
  32358.9465     0.81037E-02 
  32391.2086     0.82196E-02 
  32423.4708     0.83367E-02 
  32455.7330     0.84549E-02 
  32487.9951     0.85743E-02 
  32520.2573     0.86949E-02 
  32552.5194     0.88166E-02 
  32584.7816     0.89395E-02 
  32617.0438     0.90636E-02 
  32649.3059     0.91888E-02 
  32681.5681     0.93152E-02 
  32713.8302     0.94428E-02 
  32746.0924     0.95716E-02 
  32778.3546     0.97016E-02 
  32810.6167     0.98327E-02 
  32842.8789     0.99650E-02 
  32875.1410     0.10099E-01 
  32907.4032     0.10233E-01 
  32939.6654     0.10369E-01 
  32971.9275     0.10506E-01 
  33004.1897     0.10644E-01 
  33036.4518     0.10784E-01 
  33068.7140     0.10924E-01 
  33100.9762     0.11066E-01 
  33133.2383     0.11209E-01 
  33165.5005     0.11353E-01 
  33197.7626     0.11498E-01 
  33230.0248     0.11645E-01 
  33262.2870     0.11792E-01 
  33294.5491     0.11941E-01 
  33326.8113     0.12091E-01 
  33359.0734     0.12242E-01 
  33391.3356     0.12394E-01 
  33423.5978     0.12548E-01 
  33455.8599     0.12702E-01 
  33488.1221     0.12858E-01 
  33520.3842     0.13015E-01 
  33552.6464     0.13173E-01 
  33584.9086     0.13332E-01 
  33617.1707     0.13492E-01 
  33649.4329     0.13654E-01 
  33681.6950     0.13816E-01 
  33713.9572     0.13980E-01 
  33746.2194     0.14144E-01 
  33778.4815     0.14310E-01 
  33810.7437     0.14477E-01 
  33843.0058     0.14645E-01 
  33875.2680     0.14814E-01 
  33907.5302     0.14985E-01 
  33939.7923     0.15156E-01 
  33972.0545     0.15328E-01 
  34004.3166     0.15502E-01 
  34036.5788     0.15676E-01 
  34068.8410     0.15852E-01 
  34101.1031     0.16028E-01 
  34133.3653     0.16206E-01 
  34165.6274     0.16385E-01 
  34197.8896     0.16564E-01 
  34230.1518     0.16745E-01 
  34262.4139     0.16927E-01 
  34294.6761     0.17109E-01 
  34326.9382     0.17293E-01 
  34359.2004     0.17478E-01 
  34391.4626     0.17663E-01 
  34423.7247     0.17850E-01 
  34455.9869     0.18037E-01 
  34488.2490     0.18226E-01 
  34520.5112     0.18415E-01 
  34552.7734     0.18605E-01 
  34585.0355     0.18797E-01 
  34617.2977     0.18989E-01 
  34649.5598     0.19182E-01 
  34681.8220     0.19375E-01 
  34714.0842     0.19570E-01 
  34746.3463     0.19766E-01 
  34778.6085     0.19962E-01 
  34810.8706     0.20159E-01 
  34843.1328     0.20357E-01 
  34875.3950     0.20556E-01 
  34907.6571     0.20756E-01 
  34939.9193     0.20956E-01 
  34972.1814     0.21157E-01 
  35004.4436     0.21359E-01 
  35036.7058     0.21562E-01 
  35068.9679     0.21765E-01 
  35101.2301     0.21969E-01 
  35133.4922     0.22174E-01 
  35165.7544     0.22379E-01 
  35198.0166     0.22585E-01 
  35230.2787     0.22792E-01 
  35262.5409     0.22999E-01 
  35294.8030     0.23207E-01 
  35327.0652     0.23416E-01 
  35359.3274     0.23625E-01 
  35391.5895     0.23835E-01 
  35423.8517     0.24045E-01 
  35456.1138     0.24256E-01 
  35488.3760     0.24467E-01 
  35520.6382     0.24679E-01 
  35552.9003     0.24892E-01 
  35585.1625     0.25104E-01 
  35617.4246     0.25318E-01 
  35649.6868     0.25531E-01 
  35681.9490     0.25746E-01 
  35714.2111     0.25960E-01 
  35746.4733     0.26175E-01 
  35778.7354     0.26391E-01 
  35810.9976     0.26606E-01 
  35843.2598     0.26822E-01 
  35875.5219     0.27039E-01 
  35907.7841     0.27256E-01 
  35940.0462     0.27473E-01 
  35972.3084     0.27690E-01 
  36004.5706     0.27907E-01 
  36036.8327     0.28125E-01 
  36069.0949     0.28343E-01 
  36101.3570     0.28561E-01 
  36133.6192     0.28780E-01 
  36165.8814     0.28998E-01 
  36198.1435     0.29217E-01 
  36230.4057     0.29436E-01 
  36262.6678     0.29654E-01 
  36294.9300     0.29873E-01 
  36327.1922     0.30092E-01 
  36359.4543     0.30312E-01 
  36391.7165     0.30531E-01 
  36423.9786     0.30750E-01 
  36456.2408     0.30969E-01 
  36488.5030     0.31188E-01 
  36520.7651     0.31407E-01 
  36553.0273     0.31626E-01 
  36585.2894     0.31845E-01 
  36617.5516     0.32064E-01 
  36649.8138     0.32282E-01 
  36682.0759     0.32501E-01 
  36714.3381     0.32719E-01 
  36746.6002     0.32938E-01 
  36778.8624     0.33155E-01 
  36811.1246     0.33373E-01 
  36843.3867     0.33591E-01 
  36875.6489     0.33808E-01 
  36907.9110     0.34025E-01 
  36940.1732     0.34242E-01 
  36972.4354     0.34458E-01 
  37004.6975     0.34674E-01 
  37036.9597     0.34890E-01 
  37069.2218     0.35105E-01 
  37101.4840     0.35320E-01 
  37133.7462     0.35534E-01 
  37166.0083     0.35748E-01 
  37198.2705     0.35961E-01 
  37230.5326     0.36174E-01 
  37262.7948     0.36387E-01 
  37295.0570     0.36599E-01 
  37327.3191     0.36810E-01 
  37359.5813     0.37021E-01 
  37391.8434     0.37232E-01 
  37424.1056     0.37441E-01 
  37456.3678     0.37651E-01 
  37488.6299     0.37859E-01 
  37520.8921     0.38067E-01 
  37553.1542     0.38274E-01 
  37585.4164     0.38480E-01 
  37617.6786     0.38686E-01 
  37649.9407     0.38891E-01 
  37682.2029     0.39095E-01 
  37714.4650     0.39299E-01 
  37746.7272     0.39501E-01 
  37778.9894     0.39703E-01 
  37811.2515     0.39904E-01 
  37843.5137     0.40104E-01 
  37875.7758     0.40304E-01 
  37908.0380     0.40502E-01 
  37940.3002     0.40699E-01 
  37972.5623     0.40896E-01 
  38004.8245     0.41092E-01 
  38037.0866     0.41286E-01 
  38069.3488     0.41480E-01 
  38101.6110     0.41673E-01 
  38133.8731     0.41864E-01 
  38166.1353     0.42055E-01 
  38198.3974     0.42244E-01 
  38230.6596     0.42433E-01 
  38262.9218     0.42620E-01 
  38295.1839     0.42807E-01 
  38327.4461     0.42992E-01 
  38359.7082     0.43176E-01 
  38391.9704     0.43359E-01 
  38424.2326     0.43541E-01 
  38456.4947     0.43721E-01 
  38488.7569     0.43900E-01 
  38521.0190     0.44079E-01 
  38553.2812     0.44255E-01 
  38585.5434     0.44431E-01 
  38617.8055     0.44605E-01 
  38650.0677     0.44778E-01 
  38682.3298     0.44950E-01 
  38714.5920     0.45121E-01 
  38746.8542     0.45290E-01 
  38779.1163     0.45458E-01 
  38811.3785     0.45624E-01 
  38843.6406     0.45789E-01 
  38875.9028     0.45953E-01 
  38908.1650     0.46115E-01 
  38940.4271     0.46276E-01 
  38972.6893     0.46435E-01 
  39004.9514     0.46593E-01 
  39037.2136     0.46749E-01 
  39069.4758     0.46904E-01 
  39101.7379     0.47058E-01 
  39134.0001     0.47210E-01 
  39166.2622     0.47360E-01 
  39198.5244     0.47509E-01 
  39230.7866     0.47657E-01 
  39263.0487     0.47803E-01 
  39295.3109     0.47947E-01 
  39327.5730     0.48090E-01 
  39359.8352     0.48231E-01 
  39392.0974     0.48370E-01 
  39424.3595     0.48508E-01 
  39456.6217     0.48644E-01 
  39488.8838     0.48779E-01 
  39521.1460     0.48912E-01 
  39553.4082     0.49043E-01 
  39585.6703     0.49173E-01 
  39617.9325     0.49301E-01 
  39650.1946     0.49427E-01 
  39682.4568     0.49552E-01 
  39714.7190     0.49675E-01 
  39746.9811     0.49796E-01 
  39779.2433     0.49915E-01 
  39811.5054     0.50033E-01 
  39843.7676     0.50149E-01 
  39876.0298     0.50263E-01 
  39908.2919     0.50376E-01 
  39940.5541     0.50486E-01 
  39972.8162     0.50595E-01 
  40005.0784     0.50703E-01 
  40037.3406     0.50808E-01 
  40069.6027     0.50911E-01 
  40101.8649     0.51013E-01 
  40134.1270     0.51113E-01 
  40166.3892     0.51211E-01 
  40198.6514     0.51307E-01 
  40230.9135     0.51402E-01 
  40263.1757     0.51494E-01 
  40295.4378     0.51585E-01 
  40327.7000     0.51674E-01 
  40359.9622     0.51761E-01 
  40392.2243     0.51846E-01 
  40424.4865     0.51930E-01 
  40456.7486     0.52011E-01 
  40489.0108     0.52091E-01 
  40521.2730     0.52169E-01 
  40553.5351     0.52244E-01 
  40585.7973     0.52318E-01 
  40618.0594     0.52390E-01 
  40650.3216     0.52461E-01 
  40682.5838     0.52529E-01 
  40714.8459     0.52595E-01 
  40747.1081     0.52660E-01 
  40779.3702     0.52722E-01 
  40811.6324     0.52783E-01 
  40843.8946     0.52842E-01 
  40876.1567     0.52898E-01 
  40908.4189     0.52953E-01 
  40940.6810     0.53006E-01 
  40972.9432     0.53058E-01 
  41005.2054     0.53107E-01 
  41037.4675     0.53154E-01 
  41069.7297     0.53199E-01 
  41101.9918     0.53243E-01 
  41134.2540     0.53284E-01 
  41166.5162     0.53324E-01 
  41198.7783     0.53362E-01 
  41231.0405     0.53398E-01 
  41263.3026     0.53431E-01 
  41295.5648     0.53463E-01 
  41327.8270     0.53493E-01 
  41360.0891     0.53522E-01 
  41392.3513     0.53548E-01 
  41424.6134     0.53572E-01 
  41456.8756     0.53595E-01 
  41489.1378     0.53615E-01 
  41521.3999     0.53634E-01 
  41553.6621     0.53650E-01 
  41585.9242     0.53665E-01 
  41618.1864     0.53678E-01 
  41650.4486     0.53689E-01 
  41682.7107     0.53698E-01 
  41714.9729     0.53706E-01 
  41747.2350     0.53711E-01 
  41779.4972     0.53715E-01 
  41811.7594     0.53716E-01 
  41844.0215     0.53716E-01 
  41876.2837     0.53714E-01 
  41908.5458     0.53710E-01 
  41940.8080     0.53704E-01 
  41973.0702     0.53697E-01 
  42005.3323     0.53687E-01 
  42037.5945     0.53676E-01 
  42069.8566     0.53663E-01 
  42102.1188     0.53648E-01 
  42134.3810     0.53631E-01 
  42166.6431     0.53612E-01 
  42198.9053     0.53592E-01 
  42231.1674     0.53570E-01 
  42263.4296     0.53546E-01 
  42295.6918     0.53520E-01 
  42327.9539     0.53492E-01 
  42360.2161     0.53463E-01 
  42392.4782     0.53432E-01 
  42424.7404     0.53399E-01 
  42457.0026     0.53364E-01 
  42489.2647     0.53328E-01 
  42521.5269     0.53290E-01 
  42553.7890     0.53250E-01 
  42586.0512     0.53209E-01 
  42618.3134     0.53165E-01 
  42650.5755     0.53120E-01 
  42682.8377     0.53074E-01 
  42715.0998     0.53025E-01 
  42747.3620     0.52975E-01 
  42779.6242     0.52924E-01 
  42811.8863     0.52870E-01 
  42844.1485     0.52815E-01 
  42876.4106     0.52759E-01 
  42908.6728     0.52700E-01 
  42940.9350     0.52640E-01 
  42973.1971     0.52579E-01 
  43005.4593     0.52516E-01 
  43037.7214     0.52451E-01 
  43069.9836     0.52385E-01 
  43102.2458     0.52317E-01 
  43134.5079     0.52248E-01 
  43166.7701     0.52177E-01 
  43199.0322     0.52104E-01 
  43231.2944     0.52030E-01 
  43263.5566     0.51954E-01 
  43295.8187     0.51877E-01 
  43328.0809     0.51799E-01 
  43360.3430     0.51719E-01 
  43392.6052     0.51637E-01 
  43424.8674     0.51554E-01 
  43457.1295     0.51470E-01 
  43489.3917     0.51384E-01 
  43521.6538     0.51296E-01 
  43553.9160     0.51208E-01 
  43586.1782     0.51117E-01 
  43618.4403     0.51026E-01 
  43650.7025     0.50933E-01 
  43682.9646     0.50838E-01 
  43715.2268     0.50743E-01 
  43747.4890     0.50646E-01 
  43779.7511     0.50547E-01 
  43812.0133     0.50448E-01 
  43844.2754     0.50346E-01 
  43876.5376     0.50244E-01 
  43908.7998     0.50140E-01 
  43941.0619     0.50036E-01 
  43973.3241     0.49929E-01 
  44005.5862     0.49822E-01 
  44037.8484     0.49713E-01 
  44070.1106     0.49603E-01 
  44102.3727     0.49492E-01 
  44134.6349     0.49380E-01 
  44166.8970     0.49266E-01 
  44199.1592     0.49152E-01 
  44231.4214     0.49036E-01 
  44263.6835     0.48919E-01 
  44295.9457     0.48801E-01 
  44328.2078     0.48681E-01 
  44360.4700     0.48561E-01 
  44392.7322     0.48439E-01 
  44424.9943     0.48317E-01 
  44457.2565     0.48193E-01 
  44489.5186     0.48068E-01 
  44521.7808     0.47943E-01 
  44554.0430     0.47816E-01 
  44586.3051     0.47688E-01 
  44618.5673     0.47559E-01 
  44650.8294     0.47429E-01 
  44683.0916     0.47298E-01 
  44715.3538     0.47167E-01 
  44747.6159     0.47034E-01 
  44779.8781     0.46900E-01 
  44812.1402     0.46766E-01 
  44844.4024     0.46630E-01 
  44876.6646     0.46494E-01 
  44908.9267     0.46356E-01 
  44941.1889     0.46218E-01 
  44973.4510     0.46079E-01 
  45005.7132     0.45939E-01 
  45037.9754     0.45798E-01 
  45070.2375     0.45656E-01 
  45102.4997     0.45514E-01 
  45134.7618     0.45371E-01 
  45167.0240     0.45227E-01 
  45199.2862     0.45082E-01 
  45231.5483     0.44936E-01 
  45263.8105     0.44790E-01 
  45296.0726     0.44643E-01 
  45328.3348     0.44495E-01 
  45360.5970     0.44347E-01 
  45392.8591     0.44198E-01 
  45425.1213     0.44048E-01 
  45457.3834     0.43897E-01 
  45489.6456     0.43746E-01 
  45521.9078     0.43594E-01 
  45554.1699     0.43442E-01 
  45586.4321     0.43289E-01 
  45618.6942     0.43135E-01 
  45650.9564     0.42981E-01 
  45683.2186     0.42826E-01 
  45715.4807     0.42670E-01 
  45747.7429     0.42514E-01 
  45780.0050     0.42358E-01 
  45812.2672     0.42201E-01 
  45844.5294     0.42043E-01 
  45876.7915     0.41885E-01 
  45909.0537     0.41726E-01 
  45941.3158     0.41567E-01 
  45973.5780     0.41408E-01 
  46005.8402     0.41248E-01 
  46038.1023     0.41087E-01 
  46070.3645     0.40927E-01 
  46102.6266     0.40765E-01 
  46134.8888     0.40604E-01 
  46167.1510     0.40442E-01 
  46199.4131     0.40279E-01 
  46231.6753     0.40116E-01 
  46263.9374     0.39953E-01 
  46296.1996     0.39790E-01 
  46328.4618     0.39626E-01 
  46360.7239     0.39461E-01 
  46392.9861     0.39297E-01 
  46425.2482     0.39132E-01 
  46457.5104     0.38967E-01 
  46489.7726     0.38802E-01 
  46522.0347     0.38636E-01 
  46554.2969     0.38470E-01 
  46586.5590     0.38304E-01 
  46618.8212     0.38138E-01 
  46651.0834     0.37971E-01 
  46683.3455     0.37804E-01 
  46715.6077     0.37637E-01 
  46747.8698     0.37470E-01 
  46780.1320     0.37303E-01 
  46812.3942     0.37135E-01 
  46844.6563     0.36967E-01 
  46876.9185     0.36799E-01 
  46909.1806     0.36632E-01 
  46941.4428     0.36463E-01 
  46973.7050     0.36295E-01 
  47005.9671     0.36127E-01 
  47038.2293     0.35959E-01 
  47070.4914     0.35790E-01 
  47102.7536     0.35621E-01 
  47135.0158     0.35453E-01 
  47167.2779     0.35284E-01 
  47199.5401     0.35115E-01 
  47231.8022     0.34947E-01 
  47264.0644     0.34778E-01 
  47296.3266     0.34609E-01 
  47328.5887     0.34440E-01 
  47360.8509     0.34272E-01 
  47393.1130     0.34103E-01 
  47425.3752     0.33934E-01 
  47457.6374     0.33766E-01 
  47489.8995     0.33597E-01 
  47522.1617     0.33428E-01 
  47554.4238     0.33260E-01 
  47586.6860     0.33091E-01 
  47618.9482     0.32923E-01 
  47651.2103     0.32755E-01 
  47683.4725     0.32586E-01 
  47715.7346     0.32418E-01 
  47747.9968     0.32250E-01 
  47780.2590     0.32083E-01 
  47812.5211     0.31915E-01 
  47844.7833     0.31747E-01 
  47877.0454     0.31580E-01 
  47909.3076     0.31413E-01 
  47941.5698     0.31246E-01 
  47973.8319     0.31079E-01 
  48006.0941     0.30912E-01 
  48038.3562     0.30745E-01 
  48070.6184     0.30579E-01 
  48102.8806     0.30413E-01 
  48135.1427     0.30247E-01 
  48167.4049     0.30081E-01 
  48199.6670     0.29916E-01 
  48231.9292     0.29751E-01 
  48264.1914     0.29586E-01 
  48296.4535     0.29421E-01 
  48328.7157     0.29256E-01 
  48360.9778     0.29092E-01 
  48393.2400     0.28928E-01 
  48425.5022     0.28765E-01 
  48457.7643     0.28601E-01 
  48490.0265     0.28438E-01 
  48522.2886     0.28275E-01 
  48554.5508     0.28113E-01 
  48586.8130     0.27951E-01 
  48619.0751     0.27789E-01 
  48651.3373     0.27627E-01 
  48683.5994     0.27466E-01 
  48715.8616     0.27305E-01 
  48748.1238     0.27145E-01 
  48780.3859     0.26984E-01 
  48812.6481     0.26825E-01 
  48844.9102     0.26665E-01 
  48877.1724     0.26506E-01 
  48909.4346     0.26347E-01 
  48941.6967     0.26189E-01 
  48973.9589     0.26031E-01 
  49006.2210     0.25873E-01 
  49038.4832     0.25716E-01 
  49070.7454     0.25559E-01 
  49103.0075     0.25403E-01 
  49135.2697     0.25247E-01 
  49167.5318     0.25091E-01 
  49199.7940     0.24936E-01 
  49232.0562     0.24782E-01 
  49264.3183     0.24627E-01 
  49296.5805     0.24473E-01 
  49328.8426     0.24320E-01 
  49361.1048     0.24167E-01 
  49393.3670     0.24014E-01 
  49425.6291     0.23862E-01 
  49457.8913     0.23711E-01 
  49490.1534     0.23560E-01 
  49522.4156     0.23409E-01 
  49554.6778     0.23259E-01 
  49586.9399     0.23109E-01 
  49619.2021     0.22960E-01 
  49651.4642     0.22811E-01 
  49683.7264     0.22662E-01 
  49715.9886     0.22515E-01 
  49748.2507     0.22367E-01 
  49780.5129     0.22220E-01 
  49812.7750     0.22074E-01 
  49845.0372     0.21928E-01 
  49877.2994     0.21783E-01 
  49909.5615     0.21638E-01 
  49941.8237     0.21494E-01 
  49974.0858     0.21350E-01 
  50006.3480     0.21206E-01 
  50038.6102     0.21064E-01 
  50070.8723     0.20921E-01 
  50103.1345     0.20780E-01 
  50135.3966     0.20638E-01 
  50167.6588     0.20498E-01 
  50199.9210     0.20357E-01 
  50232.1831     0.20218E-01 
  50264.4453     0.20079E-01 
  50296.7074     0.19940E-01 
  50328.9696     0.19802E-01 
  50361.2318     0.19665E-01 
  50393.4939     0.19528E-01 
  50425.7561     0.19391E-01 
  50458.0182     0.19256E-01 
  50490.2804     0.19120E-01 
  50522.5426     0.18986E-01 
  50554.8047     0.18852E-01 
  50587.0669     0.18718E-01 
  50619.3290     0.18585E-01 
  50651.5912     0.18452E-01 
  50683.8534     0.18321E-01 
  50716.1155     0.18189E-01 
  50748.3777     0.18058E-01 
  50780.6398     0.17928E-01 
  50812.9020     0.17799E-01 
  50845.1642     0.17670E-01 
  50877.4263     0.17541E-01 
  50909.6885     0.17413E-01 
  50941.9506     0.17286E-01 
  50974.2128     0.17159E-01 
  51006.4750     0.17033E-01 
  51038.7371     0.16907E-01 
  51070.9993     0.16782E-01 
  51103.2614     0.16658E-01 
  51135.5236     0.16534E-01 
  51167.7858     0.16411E-01 
  51200.0479     0.16288E-01 
  51232.3101     0.16166E-01 
  51264.5722     0.16044E-01 
  51296.8344     0.15923E-01 
  51329.0966     0.15803E-01 
  51361.3587     0.15683E-01 
  51393.6209     0.15564E-01 
  51425.8830     0.15445E-01 
  51458.1452     0.15327E-01 
  51490.4074     0.15210E-01 
  51522.6695     0.15093E-01 
  51554.9317     0.14977E-01 
  51587.1938     0.14861E-01 
  51619.4560     0.14746E-01 
  51651.7182     0.14632E-01 
  51683.9803     0.14518E-01 
  51716.2425     0.14404E-01 
  51748.5046     0.14292E-01 
  51780.7668     0.14179E-01 
  51813.0290     0.14068E-01 
  51845.2911     0.13957E-01 
  51877.5533     0.13847E-01 
  51909.8154     0.13737E-01 
  51942.0776     0.13628E-01 
  51974.3398     0.13519E-01 
  52006.6019     0.13411E-01 
  52038.8641     0.13303E-01 
  52071.1262     0.13197E-01 
  52103.3884     0.13090E-01 
  52135.6506     0.12985E-01 
  52167.9127     0.12879E-01 
  52200.1749     0.12775E-01 
  52232.4370     0.12671E-01 
  52264.6992     0.12568E-01 
  52296.9614     0.12465E-01 
  52329.2235     0.12363E-01 
  52361.4857     0.12261E-01 
  52393.7478     0.12160E-01 
  52426.0100     0.12059E-01 
  52458.2722     0.11959E-01 
  52490.5343     0.11860E-01 
  52522.7965     0.11761E-01 
  52555.0586     0.11663E-01 
  52587.3208     0.11566E-01 
  52619.5830     0.11469E-01 
  52651.8451     0.11372E-01 
  52684.1073     0.11276E-01 
  52716.3694     0.11181E-01 
  52748.6316     0.11086E-01 
  52780.8938     0.10992E-01 
  52813.1559     0.10898E-01 
  52845.4181     0.10805E-01 
  52877.6802     0.10713E-01 
  52909.9424     0.10621E-01 
  52942.2046     0.10529E-01 
  52974.4667     0.10438E-01 
  53006.7289     0.10348E-01 
  53038.9910     0.10258E-01 
  53071.2532     0.10169E-01 
  53103.5154     0.10081E-01 
  53135.7775     0.99925E-02 
  53168.0397     0.99050E-02 
  53200.3018     0.98180E-02 
  53232.5640     0.97316E-02 
  53264.8262     0.96457E-02 
  53297.0883     0.95604E-02 
  53329.3505     0.94755E-02 
  53361.6126     0.93913E-02 
  53393.8748     0.93076E-02 
  53426.1370     0.92244E-02 
  53458.3991     0.91417E-02 
  53490.6613     0.90596E-02 
  53522.9234     0.89780E-02 
  53555.1856     0.88969E-02 
  53587.4478     0.88164E-02 
  53619.7099     0.87364E-02 
  53651.9721     0.86569E-02 
  53684.2342     0.85779E-02 
  53716.4964     0.84995E-02 
  53748.7586     0.84215E-02 
  53781.0207     0.83441E-02 
  53813.2829     0.82672E-02 
  53845.5450     0.81908E-02 
  53877.8072     0.81150E-02 
  53910.0694     0.80396E-02 
  53942.3315     0.79647E-02 
  53974.5937     0.78904E-02 
  54006.8558     0.78165E-02 
  54039.1180     0.77432E-02 
  54071.3802     0.76703E-02 
  54103.6423     0.75980E-02 
  54135.9045     0.75261E-02 
  54168.1666     0.74548E-02 
  54200.4288     0.73839E-02 
  54232.6910     0.73135E-02 
  54264.9531     0.72436E-02 
  54297.2153     0.71742E-02 
  54329.4774     0.71053E-02 
  54361.7396     0.70368E-02 
  54394.0018     0.69689E-02 
  54426.2639     0.69014E-02 
  54458.5261     0.68344E-02 
  54490.7882     0.67678E-02 
  54523.0504     0.67017E-02 
  54555.3126     0.66361E-02 
  54587.5747     0.65710E-02 
  54619.8369     0.65063E-02 
  54652.0990     0.64421E-02 
  54684.3612     0.63784E-02 
  54716.6234     0.63151E-02 
  54748.8855     0.62522E-02 
  54781.1477     0.61899E-02 
  54813.4098     0.61279E-02 
  54845.6720     0.60664E-02 
  54877.9342     0.60054E-02 
  54910.1963     0.59448E-02 
  54942.4585     0.58847E-02 
  54974.7206     0.58250E-02 
  55006.9828     0.57657E-02 
  55039.2450     0.57069E-02 
  55071.5071     0.56485E-02 
  55103.7693     0.55905E-02 
  55136.0314     0.55330E-02 
  55168.2936     0.54759E-02 
  55200.5558     0.54192E-02 
  55232.8179     0.53629E-02 
  55265.0801     0.53071E-02 
  55297.3422     0.52517E-02 
  55329.6044     0.51967E-02 
  55361.8666     0.51421E-02 
  55394.1287     0.50879E-02 
  55426.3909     0.50341E-02 
  55458.6530     0.49808E-02 
  55490.9152     0.49278E-02 
  55523.1774     0.48753E-02 
  55555.4395     0.48231E-02 
  55587.7017     0.47714E-02 
  55619.9638     0.47201E-02 
  55652.2260     0.46691E-02 
  55684.4882     0.46185E-02 
  55716.7503     0.45684E-02 
  55749.0125     0.45186E-02 
  55781.2746     0.44692E-02 
  55813.5368     0.44202E-02 
  55845.7990     0.43716E-02 
  55878.0611     0.43233E-02 
  55910.3233     0.42755E-02 
  55942.5854     0.42280E-02 
  55974.8476     0.41809E-02 
  56007.1098     0.41341E-02 
  56039.3719     0.40878E-02 
  56071.6341     0.40418E-02 
  56103.8962     0.39961E-02 
  56136.1584     0.39508E-02 
  56168.4206     0.39059E-02 
  56200.6827     0.38614E-02 
  56232.9449     0.38172E-02 
  56265.2070     0.37733E-02 
  56297.4692     0.37298E-02 
  56329.7314     0.36867E-02 
  56361.9935     0.36439E-02 
  56394.2557     0.36014E-02 
  56426.5178     0.35593E-02 
  56458.7800     0.35176E-02 
  56491.0422     0.34762E-02 
  56523.3043     0.34351E-02 
  56555.5665     0.33943E-02 
  56587.8286     0.33539E-02 
  56620.0908     0.33139E-02 
  56652.3530     0.32741E-02 
  56684.6151     0.32347E-02 
  56716.8773     0.31956E-02 
  56749.1394     0.31568E-02 
  56781.4016     0.31184E-02 
  56813.6638     0.30803E-02 
  56845.9259     0.30425E-02 
  56878.1881     0.30050E-02 
  56910.4502     0.29678E-02 
  56942.7124     0.29310E-02 
  56974.9746     0.28944E-02 
  57007.2367     0.28582E-02 
  57039.4989     0.28222E-02 
  57071.7610     0.27866E-02 
  57104.0232     0.27513E-02 
  57136.2854     0.27163E-02 
  57168.5475     0.26815E-02 
  57200.8097     0.26471E-02 
  57233.0718     0.26130E-02 
  57265.3340     0.25791E-02 
  57297.5962     0.25456E-02 
  57329.8583     0.25124E-02 
  57362.1205     0.24794E-02 
  57394.3826     0.24467E-02 
  57426.6448     0.24143E-02 
  57458.9070     0.23822E-02 
  57491.1691     0.23504E-02 
  57523.4313     0.23188E-02 
  57555.6934     0.22876E-02 
  57587.9556     0.22566E-02 
  57620.2178     0.22259E-02 
  57652.4799     0.21954E-02 
  57684.7421     0.21652E-02 
  57717.0042     0.21353E-02 
  57749.2664     0.21057E-02 
  57781.5286     0.20763E-02 
  57813.7907     0.20472E-02 
  57846.0529     0.20184E-02 
  57878.3150     0.19898E-02 
  57910.5772     0.19615E-02 
  57942.8394     0.19334E-02 
  57975.1015     0.19056E-02 
  58007.3637     0.18780E-02 
  58039.6258     0.18507E-02 
  58071.8880     0.18237E-02 
  58104.1502     0.17969E-02 
  58136.4123     0.17703E-02 
  58168.6745     0.17440E-02 
  58200.9366     0.17180E-02 
  58233.1988     0.16921E-02 
  58265.4610     0.16666E-02 
  58297.7231     0.16412E-02 
  58329.9853     0.16161E-02 
  58362.2474     0.15913E-02 
  58394.5096     0.15667E-02 
  58426.7718     0.15423E-02 
  58459.0339     0.15181E-02 
  58491.2961     0.14942E-02 
  58523.5582     0.14705E-02 
  58555.8204     0.14471E-02 
  58588.0826     0.14238E-02 
  58620.3447     0.14008E-02 
  58652.6069     0.13781E-02 
  58684.8690     0.13555E-02 
  58717.1312     0.13332E-02 
  58749.3934     0.13111E-02 
  58781.6555     0.12892E-02 
  58813.9177     0.12675E-02 
  58846.1798     0.12461E-02 
  58878.4420     0.12249E-02 
  58910.7042     0.12038E-02 
  58942.9663     0.11830E-02 
  58975.2285     0.11624E-02 
  59007.4906     0.11421E-02 
  59039.7528     0.11219E-02 
  59072.0150     0.11019E-02 
  59104.2771     0.10822E-02 
  59136.5393     0.10627E-02 
  59168.8014     0.10433E-02 
  59201.0636     0.10242E-02 
  59233.3258     0.10053E-02 
  59265.5879     0.98654E-03 
  59297.8501     0.96801E-03 
  59330.1122     0.94969E-03 
  59362.3744     0.93157E-03 
  59394.6366     0.91365E-03 
  59426.8987     0.89593E-03 
  59459.1609     0.87840E-03 
  59491.4230     0.86107E-03 
  59523.6852     0.84393E-03 
  59555.9474     0.82699E-03 
  59588.2095     0.81024E-03 
  59620.4717     0.79368E-03 
  59652.7338     0.77731E-03 
  59684.9960     0.76114E-03 
  59717.2582     0.74515E-03 
  59749.5203     0.72936E-03 
  59781.7825     0.71375E-03 
  59814.0446     0.69833E-03 
  59846.3068     0.68309E-03 
  59878.5690     0.66804E-03 
  59910.8311     0.65318E-03 
  59943.0933     0.63850E-03 
  59975.3554     0.62400E-03 
  60007.6176     0.60969E-03 
  60039.8798     0.59555E-03 
  60072.1419     0.58160E-03 
  60104.4041     0.56783E-03 
  60136.6662     0.55425E-03 
  60168.9284     0.54084E-03 
  60201.1906     0.52761E-03 
  60233.4527     0.51455E-03 
  60265.7149     0.50168E-03 
  60297.9770     0.48898E-03 
  60330.2392     0.47646E-03 
  60362.5014     0.46412E-03 
  60394.7635     0.45195E-03 
  60427.0257     0.43996E-03 
  60459.2878     0.42814E-03 
  60491.5500     0.41650E-03 
  60523.8122     0.40503E-03 
  60556.0743     0.39374E-03 
  60588.3365     0.38262E-03 
  60620.5986     0.37167E-03 
  60652.8608     0.36089E-03 
  60685.1230     0.35029E-03 
  60717.3851     0.33986E-03 
  60749.6473     0.32960E-03 
  60781.9094     0.31952E-03 
  60814.1716     0.30960E-03 
  60846.4338     0.29986E-03 
  60878.6959     0.29029E-03 
  60910.9581     0.28089E-03 
  60943.2202     0.27166E-03 
  60975.4824     0.26260E-03 
  61007.7446     0.25371E-03 
  61040.0067     0.24499E-03 
  61072.2689     0.23644E-03 
  61104.5310     0.22807E-03 
  61136.7932     0.21986E-03 
  61169.0554     0.21183E-03 
  61201.3175     0.20396E-03 
  61233.5797     0.19627E-03 
  61265.8418     0.18875E-03 
  61298.1040     0.18140E-03 
  61330.3662     0.17422E-03 
  61362.6283     0.16721E-03 
  61394.8905     0.16037E-03 
  61427.1526     0.15371E-03 
  61459.4148     0.14721E-03 
  61491.6770     0.14089E-03 
  61523.9391     0.13475E-03 
  61556.2013     0.12877E-03 
  61588.4634     0.12297E-03 
  61620.7256     0.11735E-03 
  61652.9878     0.11189E-03 
  61685.2499     0.10662E-03 
  61717.5121     0.10152E-03 
  61749.7742     0.96590E-04 
  61782.0364     0.91840E-04 
  61814.2986     0.87268E-04 
  61846.5607     0.82874E-04 
  61878.8229     0.78658E-04 
  61911.0850     0.74621E-04 
  61943.3472     0.70764E-04 
  61975.6094     0.67087E-04 
  62007.8715     0.63591E-04 
  62040.1337     0.60278E-04 
  62072.3958     0.57148E-04 
  62104.6580     0.54202E-04 
  62136.9202     0.51440E-04 
  62169.1823     0.48864E-04 
  62201.4445     0.46475E-04 
  62233.7066     0.44274E-04 
  62265.9688     0.42262E-04 
  62298.2310     0.40440E-04 
  62330.4931     0.38809E-04 
  62362.7553     0.37371E-04 
  62395.0174     0.36126E-04 
  62427.2796     0.35076E-04 
  62459.5418     0.34223E-04 
  62491.8039     0.33567E-04 
  62524.0661     0.33110E-04 
  62556.3282     0.32854E-04 
  62588.5904     0.32800E-04 
  62620.8526     0.32949E-04 
  62653.1147     0.33304E-04 
  62685.3769     0.33866E-04 
  62717.6390     0.34636E-04 
  62749.9012     0.35616E-04 
  62782.1634     0.36809E-04 
  62814.4255     0.38216E-04 
  62846.6877     0.39838E-04 
  62878.9498     0.41678E-04 
  62911.2120     0.43739E-04 
  62943.4742     0.46021E-04 
  62975.7363     0.48527E-04 
  63007.9985     0.51260E-04 
  63040.2606     0.54221E-04 
  63072.5228     0.57413E-04 
  63104.7850     0.60838E-04 
  63137.0471     0.64499E-04 
  63169.3093     0.68398E-04 
  63201.5714     0.72538E-04 
  63233.8336     0.76921E-04 
  63266.0958     0.81550E-04 
  63298.3579     0.86428E-04 
  63330.6201     0.91557E-04 
  63362.8822     0.96942E-04 
  63395.1444     0.10258E-03 
  63427.4066     0.10849E-03 
  63459.6687     0.11465E-03 
  63491.9309     0.12109E-03 
  63524.1930     0.12779E-03 
  63556.4552     0.13477E-03 
  63588.7174     0.14202E-03 
  63620.9795     0.14955E-03 
  63653.2417     0.15737E-03 
  63685.5038     0.16548E-03 
  63717.7660     0.17388E-03 
  63750.0282     0.18258E-03 
  63782.2903     0.19157E-03 
  63814.5525     0.20087E-03 
  63846.8146     0.21047E-03 
  63879.0768     0.22039E-03 
  63911.3390     0.23063E-03 
  63943.6011     0.24119E-03 
  63975.8633     0.25207E-03 
  64008.1254     0.26328E-03 
  64040.3876     0.27483E-03 
  64072.6498     0.28672E-03 
  64104.9119     0.29895E-03 
  64137.1741     0.31154E-03 
  64169.4362     0.32448E-03 
  64201.6984     0.33778E-03 
  64233.9606     0.35144E-03 
  64266.2227     0.36548E-03 
  64298.4849     0.37990E-03 
  64330.7470     0.39470E-03 
  64363.0092     0.40990E-03 
  64395.2714     0.42549E-03 
  64427.5335     0.44148E-03 
  64459.7957     0.45788E-03 
  64492.0578     0.47469E-03 
  64524.3200     0.49193E-03 
  64556.5822     0.50960E-03 
  64588.8443     0.52770E-03 
  64621.1065     0.54625E-03 
  64653.3686     0.56525E-03 
  64685.6308     0.58471E-03 
  64717.8930     0.60464E-03 
  64750.1551     0.62503E-03 
  64782.4173     0.64592E-03 
  64814.6794     0.66729E-03 
  64846.9416     0.68916E-03 
  64879.2038     0.71154E-03 
  64911.4659     0.73444E-03 
  64943.7281     0.75786E-03 
  64975.9902     0.78181E-03 
  65008.2524     0.80632E-03 
  65040.5146     0.83137E-03 
  65072.7767     0.85699E-03 
  65105.0389     0.88318E-03 
  65137.3010     0.90996E-03 
  65169.5632     0.93733E-03 
  65201.8254     0.96531E-03 
  65234.0875     0.99390E-03 
  65266.3497     0.10231E-02 
  65298.6118     0.10530E-02 
  65330.8740     0.10835E-02 
  65363.1362     0.11147E-02 
  65395.3983     0.11465E-02 
  65427.6605     0.11791E-02 
  65459.9226     0.12123E-02 
  65492.1848     0.12462E-02 
  65524.4470     0.12809E-02 
  65556.7091     0.13163E-02 
  65588.9713     0.13525E-02 
  65621.2334     0.13894E-02 
  65653.4956     0.14272E-02 
  65685.7578     0.14657E-02 
  65718.0199     0.15050E-02 
  65750.2821     0.15452E-02 
  65782.5442     0.15862E-02 
  65814.8064     0.16280E-02 
  65847.0686     0.16707E-02 
  65879.3307     0.17144E-02 
  65911.5929     0.17589E-02 
  65943.8550     0.18044E-02 
  65976.1172     0.18508E-02 
  66008.3794     0.18981E-02 
  66040.6415     0.19465E-02 
  66072.9037     0.19958E-02 
  66105.1658     0.20462E-02 
  66137.4280     0.20976E-02 
  66169.6902     0.21501E-02 
  66201.9523     0.22036E-02 
  66234.2145     0.22583E-02 
  66266.4766     0.23140E-02 
  66298.7388     0.23710E-02 
  66331.0010     0.24290E-02 
  66363.2631     0.24883E-02 
  66395.5253     0.25488E-02 
  66427.7874     0.26105E-02 
  66460.0496     0.26734E-02 
  66492.3118     0.27377E-02 
  66524.5739     0.28032E-02 
  66556.8361     0.28701E-02 
  66589.0982     0.29384E-02 
  66621.3604     0.30080E-02 
  66653.6226     0.30790E-02 
  66685.8847     0.31515E-02 
  66718.1469     0.32255E-02 
  66750.4090     0.33009E-02 
  66782.6712     0.33779E-02 
  66814.9334     0.34564E-02 
  66847.1955     0.35365E-02 
  66879.4577     0.36182E-02 
  66911.7198     0.37016E-02 
  66943.9820     0.37866E-02 
  66976.2442     0.38734E-02 
  67008.5063     0.39619E-02 
  67040.7685     0.40521E-02 
  67073.0306     0.41442E-02 
  67105.2928     0.42382E-02 
  67137.5550     0.43340E-02 
  67169.8171     0.44317E-02 
  67202.0793     0.45314E-02 
  67234.3414     0.46330E-02 
  67266.6036     0.47367E-02 
  67298.8658     0.48425E-02 
  67331.1279     0.49503E-02 
  67363.3901     0.50604E-02 
  67395.6522     0.51726E-02 
  67427.9144     0.52870E-02 
  67460.1766     0.54037E-02 
  67492.4387     0.55227E-02 
  67524.7009     0.56441E-02 
  67556.9630     0.57679E-02 
  67589.2252     0.58941E-02 
  67621.4874     0.60228E-02 
  67653.7495     0.61541E-02 
  67686.0117     0.62879E-02 
  67718.2738     0.64244E-02 
  67750.5360     0.65635E-02 
  67782.7982     0.67054E-02 
  67815.0603     0.68501E-02 
  67847.3225     0.69976E-02 
  67879.5846     0.71480E-02 
  67911.8468     0.73014E-02 
  67944.1090     0.74577E-02 
  67976.3711     0.76171E-02 
  68008.6333     0.77796E-02 
  68040.8954     0.79453E-02 
  68073.1576     0.81141E-02 
  68105.4198     0.82863E-02 
  68137.6819     0.84618E-02 
  68169.9441     0.86407E-02 
  68202.2062     0.88230E-02 
  68234.4684     0.90089E-02 
  68266.7306     0.91983E-02 
  68298.9927     0.93914E-02 
  68331.2549     0.95882E-02 
  68363.5170     0.97888E-02 
  68395.7792     0.99932E-02 
  68428.0414     0.10202E-01 
  68460.3035     0.10414E-01 
  68492.5657     0.10630E-01 
  68524.8278     0.10851E-01 
  68557.0900     0.11075E-01 
  68589.3522     0.11304E-01 
  68621.6143     0.11537E-01 
  68653.8765     0.11775E-01 
  68686.1386     0.12017E-01 
  68718.4008     0.12264E-01 
  68750.6630     0.12515E-01 
  68782.9251     0.12771E-01 
  68815.1873     0.13032E-01 
  68847.4494     0.13298E-01 
  68879.7116     0.13569E-01 
  68911.9738     0.13844E-01 
  68944.2359     0.14125E-01 
  68976.4981     0.14411E-01 
  69008.7602     0.14702E-01 
  69041.0224     0.14999E-01 
  69073.2846     0.15301E-01 
  69105.5467     0.15609E-01 
  69137.8089     0.15922E-01 
  69170.0710     0.16241E-01 
  69202.3332     0.16566E-01 
  69234.5954     0.16897E-01 
  69266.8575     0.17234E-01 
  69299.1197     0.17576E-01 
  69331.3818     0.17926E-01 
  69363.6440     0.18281E-01 
  69395.9062     0.18643E-01 
  69428.1683     0.19011E-01 
  69460.4305     0.19386E-01 
  69492.6926     0.19767E-01 
  69524.9548     0.20155E-01 
  69557.2170     0.20551E-01 
  69589.4791     0.20953E-01 
  69621.7413     0.21362E-01 
  69654.0034     0.21778E-01 
  69686.2656     0.22202E-01 
  69718.5278     0.22633E-01 
  69750.7899     0.23072E-01 
  69783.0521     0.23518E-01 
  69815.3142     0.23972E-01 
  69847.5764     0.24434E-01 
  69879.8386     0.24904E-01 
  69912.1007     0.25382E-01 
  69944.3629     0.25868E-01 
  69976.6250     0.26362E-01 
  70008.8872     0.26865E-01 
  70041.1494     0.27377E-01 
  70073.4115     0.27897E-01 
  70105.6737     0.28425E-01 
  70137.9358     0.28963E-01 
  70170.1980     0.29510E-01 
  70202.4602     0.30065E-01 
  70234.7223     0.30630E-01 
  70266.9845     0.31205E-01 
  70299.2466     0.31788E-01 
  70331.5088     0.32382E-01 
  70363.7710     0.32985E-01 
  70396.0331     0.33598E-01 
  70428.2953     0.34221E-01 
  70460.5574     0.34854E-01 
  70492.8196     0.35498E-01 
  70525.0818     0.36151E-01 
  70557.3439     0.36816E-01 
  70589.6061     0.37490E-01 
  70621.8682     0.38176E-01 
  70654.1304     0.38873E-01 
  70686.3926     0.39580E-01 
  70718.6547     0.40299E-01 
  70750.9169     0.41028E-01 
  70783.1790     0.41770E-01 
  70815.4412     0.42522E-01 
  70847.7034     0.43287E-01 
  70879.9655     0.44063E-01 
  70912.2277     0.44851E-01 
  70944.4898     0.45651E-01 
  70976.7520     0.46464E-01 
  71009.0142     0.47289E-01 
  71041.2763     0.48126E-01 
  71073.5385     0.48976E-01 
  71105.8006     0.49838E-01 
  71138.0628     0.50713E-01 
  71170.3250     0.51602E-01 
  71202.5871     0.52503E-01 
  71234.8493     0.53418E-01 
  71267.1114     0.54346E-01 
  71299.3736     0.55288E-01 
  71331.6358     0.56243E-01 
  71363.8979     0.57212E-01 
  71396.1601     0.58195E-01 
  71428.4222     0.59192E-01 
  71460.6844     0.60204E-01 
  71492.9466     0.61229E-01 
  71525.2087     0.62269E-01 
  71557.4709     0.63324E-01 
  71589.7330     0.64393E-01 
  71621.9952     0.65478E-01 
  71654.2574     0.66577E-01 
  71686.5195     0.67691E-01 
  71718.7817     0.68821E-01 
  71751.0438     0.69966E-01 
  71783.3060     0.71127E-01 
  71815.5682     0.72303E-01 
  71847.8303     0.73495E-01 
  71880.0925     0.74703E-01 
  71912.3546     0.75927E-01 
  71944.6168     0.77167E-01 
  71976.8790     0.78423E-01 
  72009.1411     0.79696E-01 
  72041.4033     0.80985E-01 
  72073.6654     0.82291E-01 
  72105.9276     0.83613E-01 
  72138.1898     0.84953E-01 
  72170.4519     0.86309E-01 
  72202.7141     0.87683E-01 
  72234.9762     0.89074E-01 
  72267.2384     0.90482E-01 
  72299.5006     0.91908E-01 
  72331.7627     0.93351E-01 
  72364.0249     0.94812E-01 
  72396.2870     0.96290E-01 
  72428.5492     0.97787E-01 
  72460.8114     0.99302E-01 
  72493.0735     0.10083E+00 
  72525.3357     0.10239E+00 
  72557.5978     0.10395E+00 
  72589.8600     0.10554E+00 
