  32262.1600     0.30866E+02 
  32294.4222     0.31241E+02 
  32326.6843     0.31619E+02 
  32358.9465     0.31999E+02 
  32391.2086     0.32383E+02 
  32423.4708     0.32770E+02 
  32455.7330     0.33160E+02 
  32487.9951     0.33553E+02 
  32520.2573     0.33949E+02 
  32552.5194     0.34348E+02 
  32584.7816     0.34750E+02 
  32617.0438     0.35156E+02 
  32649.3059     0.35564E+02 
  32681.5681     0.35976E+02 
  32713.8302     0.36390E+02 
  32746.0924     0.36808E+02 
  32778.3546     0.37229E+02 
  32810.6167     0.37653E+02 
  32842.8789     0.38080E+02 
  32875.1410     0.38510E+02 
  32907.4032     0.38943E+02 
  32939.6654     0.39379E+02 
  32971.9275     0.39819E+02 
  33004.1897     0.40261E+02 
  33036.4518     0.40706E+02 
  33068.7140     0.41155E+02 
  33100.9762     0.41606E+02 
  33133.2383     0.42061E+02 
  33165.5005     0.42518E+02 
  33197.7626     0.42979E+02 
  33230.0248     0.43443E+02 
  33262.2870     0.43909E+02 
  33294.5491     0.44379E+02 
  33326.8113     0.44852E+02 
  33359.0734     0.45327E+02 
  33391.3356     0.45806E+02 
  33423.5978     0.46287E+02 
  33455.8599     0.46772E+02 
  33488.1221     0.47260E+02 
  33520.3842     0.47750E+02 
  33552.6464     0.48243E+02 
  33584.9086     0.48740E+02 
  33617.1707     0.49239E+02 
  33649.4329     0.49741E+02 
  33681.6950     0.50246E+02 
  33713.9572     0.50754E+02 
  33746.2194     0.51264E+02 
  33778.4815     0.51778E+02 
  33810.7437     0.52294E+02 
  33843.0058     0.52814E+02 
  33875.2680     0.53335E+02 
  33907.5302     0.53860E+02 
  33939.7923     0.54388E+02 
  33972.0545     0.54918E+02 
  34004.3166     0.55451E+02 
  34036.5788     0.55987E+02 
  34068.8410     0.56525E+02 
  34101.1031     0.57066E+02 
  34133.3653     0.57610E+02 
  34165.6274     0.58156E+02 
  34197.8896     0.58705E+02 
  34230.1518     0.59256E+02 
  34262.4139     0.59810E+02 
  34294.6761     0.60367E+02 
  34326.9382     0.60926E+02 
  34359.2004     0.61488E+02 
  34391.4626     0.62052E+02 
  34423.7247     0.62618E+02 
  34455.9869     0.63187E+02 
  34488.2490     0.63759E+02 
  34520.5112     0.64333E+02 
  34552.7734     0.64909E+02 
  34585.0355     0.65487E+02 
  34617.2977     0.66068E+02 
  34649.5598     0.66651E+02 
  34681.8220     0.67237E+02 
  34714.0842     0.67824E+02 
  34746.3463     0.68414E+02 
  34778.6085     0.69006E+02 
  34810.8706     0.69600E+02 
  34843.1328     0.70196E+02 
  34875.3950     0.70795E+02 
  34907.6571     0.71395E+02 
  34939.9193     0.71998E+02 
  34972.1814     0.72602E+02 
  35004.4436     0.73209E+02 
  35036.7058     0.73817E+02 
  35068.9679     0.74427E+02 
  35101.2301     0.75039E+02 
  35133.4922     0.75653E+02 
  35165.7544     0.76269E+02 
  35198.0166     0.76887E+02 
  35230.2787     0.77506E+02 
  35262.5409     0.78127E+02 
  35294.8030     0.78750E+02 
  35327.0652     0.79374E+02 
  35359.3274     0.80000E+02 
  35391.5895     0.80628E+02 
  35423.8517     0.81257E+02 
  35456.1138     0.81887E+02 
  35488.3760     0.82519E+02 
  35520.6382     0.83153E+02 
  35552.9003     0.83788E+02 
  35585.1625     0.84424E+02 
  35617.4246     0.85062E+02 
  35649.6868     0.85700E+02 
  35681.9490     0.86340E+02 
  35714.2111     0.86982E+02 
  35746.4733     0.87624E+02 
  35778.7354     0.88268E+02 
  35810.9976     0.88912E+02 
  35843.2598     0.89558E+02 
  35875.5219     0.90205E+02 
  35907.7841     0.90853E+02 
  35940.0462     0.91501E+02 
  35972.3084     0.92151E+02 
  36004.5706     0.92801E+02 
  36036.8327     0.93452E+02 
  36069.0949     0.94104E+02 
  36101.3570     0.94757E+02 
  36133.6192     0.95410E+02 
  36165.8814     0.96064E+02 
  36198.1435     0.96719E+02 
  36230.4057     0.97374E+02 
  36262.6678     0.98030E+02 
  36294.9300     0.98686E+02 
  36327.1922     0.99342E+02 
  36359.4543     0.99999E+02 
  36391.7165     0.10066E+03 
  36423.9786     0.10131E+03 
  36456.2408     0.10197E+03 
  36488.5030     0.10263E+03 
  36520.7651     0.10329E+03 
  36553.0273     0.10395E+03 
  36585.2894     0.10460E+03 
  36617.5516     0.10526E+03 
  36649.8138     0.10592E+03 
  36682.0759     0.10658E+03 
  36714.3381     0.10724E+03 
  36746.6002     0.10790E+03 
  36778.8624     0.10855E+03 
  36811.1246     0.10921E+03 
  36843.3867     0.10987E+03 
  36875.6489     0.11053E+03 
  36907.9110     0.11118E+03 
  36940.1732     0.11184E+03 
  36972.4354     0.11249E+03 
  37004.6975     0.11315E+03 
  37036.9597     0.11380E+03 
  37069.2218     0.11446E+03 
  37101.4840     0.11511E+03 
  37133.7462     0.11576E+03 
  37166.0083     0.11641E+03 
  37198.2705     0.11706E+03 
  37230.5326     0.11771E+03 
  37262.7948     0.11836E+03 
  37295.0570     0.11901E+03 
  37327.3191     0.11966E+03 
  37359.5813     0.12031E+03 
  37391.8434     0.12095E+03 
  37424.1056     0.12159E+03 
  37456.3678     0.12224E+03 
  37488.6299     0.12288E+03 
  37520.8921     0.12352E+03 
  37553.1542     0.12416E+03 
  37585.4164     0.12480E+03 
  37617.6786     0.12543E+03 
  37649.9407     0.12607E+03 
  37682.2029     0.12670E+03 
  37714.4650     0.12733E+03 
  37746.7272     0.12796E+03 
  37778.9894     0.12859E+03 
  37811.2515     0.12922E+03 
  37843.5137     0.12984E+03 
  37875.7758     0.13046E+03 
  37908.0380     0.13108E+03 
  37940.3002     0.13170E+03 
  37972.5623     0.13232E+03 
  38004.8245     0.13294E+03 
  38037.0866     0.13355E+03 
  38069.3488     0.13416E+03 
  38101.6110     0.13477E+03 
  38133.8731     0.13538E+03 
  38166.1353     0.13598E+03 
  38198.3974     0.13658E+03 
  38230.6596     0.13718E+03 
  38262.9218     0.13778E+03 
  38295.1839     0.13838E+03 
  38327.4461     0.13897E+03 
  38359.7082     0.13956E+03 
  38391.9704     0.14015E+03 
  38424.2326     0.14073E+03 
  38456.4947     0.14132E+03 
  38488.7569     0.14190E+03 
  38521.0190     0.14247E+03 
  38553.2812     0.14305E+03 
  38585.5434     0.14362E+03 
  38617.8055     0.14419E+03 
  38650.0677     0.14475E+03 
  38682.3298     0.14532E+03 
  38714.5920     0.14588E+03 
  38746.8542     0.14644E+03 
  38779.1163     0.14699E+03 
  38811.3785     0.14754E+03 
  38843.6406     0.14809E+03 
  38875.9028     0.14863E+03 
  38908.1650     0.14917E+03 
  38940.4271     0.14971E+03 
  38972.6893     0.15025E+03 
  39004.9514     0.15078E+03 
  39037.2136     0.15131E+03 
  39069.4758     0.15183E+03 
  39101.7379     0.15235E+03 
  39134.0001     0.15287E+03 
  39166.2622     0.15339E+03 
  39198.5244     0.15390E+03 
  39230.7866     0.15440E+03 
  39263.0487     0.15491E+03 
  39295.3109     0.15541E+03 
  39327.5730     0.15590E+03 
  39359.8352     0.15640E+03 
  39392.0974     0.15689E+03 
  39424.3595     0.15737E+03 
  39456.6217     0.15785E+03 
  39488.8838     0.15833E+03 
  39521.1460     0.15880E+03 
  39553.4082     0.15927E+03 
  39585.6703     0.15974E+03 
  39617.9325     0.16020E+03 
  39650.1946     0.16066E+03 
  39682.4568     0.16111E+03 
  39714.7190     0.16156E+03 
  39746.9811     0.16200E+03 
  39779.2433     0.16244E+03 
  39811.5054     0.16288E+03 
  39843.7676     0.16331E+03 
  39876.0298     0.16374E+03 
  39908.2919     0.16416E+03 
  39940.5541     0.16458E+03 
  39972.8162     0.16500E+03 
  40005.0784     0.16541E+03 
  40037.3406     0.16581E+03 
  40069.6027     0.16621E+03 
  40101.8649     0.16661E+03 
  40134.1270     0.16700E+03 
  40166.3892     0.16739E+03 
  40198.6514     0.16778E+03 
  40230.9135     0.16816E+03 
  40263.1757     0.16853E+03 
  40295.4378     0.16890E+03 
  40327.7000     0.16926E+03 
  40359.9622     0.16962E+03 
  40392.2243     0.16998E+03 
  40424.4865     0.17033E+03 
  40456.7486     0.17068E+03 
  40489.0108     0.17102E+03 
  40521.2730     0.17136E+03 
  40553.5351     0.17169E+03 
  40585.7973     0.17201E+03 
  40618.0594     0.17234E+03 
  40650.3216     0.17265E+03 
  40682.5838     0.17297E+03 
  40714.8459     0.17327E+03 
  40747.1081     0.17358E+03 
  40779.3702     0.17387E+03 
  40811.6324     0.17417E+03 
  40843.8946     0.17445E+03 
  40876.1567     0.17474E+03 
  40908.4189     0.17501E+03 
  40940.6810     0.17529E+03 
  40972.9432     0.17555E+03 
  41005.2054     0.17582E+03 
  41037.4675     0.17607E+03 
  41069.7297     0.17633E+03 
  41101.9918     0.17657E+03 
  41134.2540     0.17682E+03 
  41166.5162     0.17705E+03 
  41198.7783     0.17728E+03 
  41231.0405     0.17751E+03 
  41263.3026     0.17773E+03 
  41295.5648     0.17795E+03 
  41327.8270     0.17816E+03 
  41360.0891     0.17837E+03 
  41392.3513     0.17857E+03 
  41424.6134     0.17876E+03 
  41456.8756     0.17895E+03 
  41489.1378     0.17914E+03 
  41521.3999     0.17932E+03 
  41553.6621     0.17949E+03 
  41585.9242     0.17966E+03 
  41618.1864     0.17983E+03 
  41650.4486     0.17999E+03 
  41682.7107     0.18014E+03 
  41714.9729     0.18029E+03 
  41747.2350     0.18043E+03 
  41779.4972     0.18057E+03 
  41811.7594     0.18070E+03 
  41844.0215     0.18083E+03 
  41876.2837     0.18095E+03 
  41908.5458     0.18107E+03 
  41940.8080     0.18118E+03 
  41973.0702     0.18129E+03 
  42005.3323     0.18139E+03 
  42037.5945     0.18149E+03 
  42069.8566     0.18158E+03 
  42102.1188     0.18166E+03 
  42134.3810     0.18174E+03 
  42166.6431     0.18182E+03 
  42198.9053     0.18189E+03 
  42231.1674     0.18195E+03 
  42263.4296     0.18201E+03 
  42295.6918     0.18206E+03 
  42327.9539     0.18211E+03 
  42360.2161     0.18216E+03 
  42392.4782     0.18219E+03 
  42424.7404     0.18223E+03 
  42457.0026     0.18225E+03 
  42489.2647     0.18228E+03 
  42521.5269     0.18229E+03 
  42553.7890     0.18231E+03 
  42586.0512     0.18231E+03 
  42618.3134     0.18231E+03 
  42650.5755     0.18231E+03 
  42682.8377     0.18230E+03 
  42715.0998     0.18229E+03 
  42747.3620     0.18227E+03 
  42779.6242     0.18225E+03 
  42811.8863     0.18222E+03 
  42844.1485     0.18218E+03 
  42876.4106     0.18214E+03 
  42908.6728     0.18210E+03 
  42940.9350     0.18205E+03 
  42973.1971     0.18200E+03 
  43005.4593     0.18194E+03 
  43037.7214     0.18187E+03 
  43069.9836     0.18180E+03 
  43102.2458     0.18173E+03 
  43134.5079     0.18165E+03 
  43166.7701     0.18156E+03 
  43199.0322     0.18148E+03 
  43231.2944     0.18138E+03 
  43263.5566     0.18128E+03 
  43295.8187     0.18118E+03 
  43328.0809     0.18107E+03 
  43360.3430     0.18095E+03 
  43392.6052     0.18084E+03 
  43424.8674     0.18071E+03 
  43457.1295     0.18058E+03 
  43489.3917     0.18045E+03 
  43521.6538     0.18031E+03 
  43553.9160     0.18017E+03 
  43586.1782     0.18002E+03 
  43618.4403     0.17987E+03 
  43650.7025     0.17971E+03 
  43682.9646     0.17955E+03 
  43715.2268     0.17939E+03 
  43747.4890     0.17922E+03 
  43779.7511     0.17904E+03 
  43812.0133     0.17886E+03 
  43844.2754     0.17868E+03 
  43876.5376     0.17849E+03 
  43908.7998     0.17829E+03 
  43941.0619     0.17810E+03 
  43973.3241     0.17789E+03 
  44005.5862     0.17769E+03 
  44037.8484     0.17748E+03 
  44070.1106     0.17726E+03 
  44102.3727     0.17704E+03 
  44134.6349     0.17682E+03 
  44166.8970     0.17659E+03 
  44199.1592     0.17635E+03 
  44231.4214     0.17612E+03 
  44263.6835     0.17588E+03 
  44295.9457     0.17563E+03 
  44328.2078     0.17538E+03 
  44360.4700     0.17513E+03 
  44392.7322     0.17487E+03 
  44424.9943     0.17460E+03 
  44457.2565     0.17434E+03 
  44489.5186     0.17407E+03 
  44521.7808     0.17379E+03 
  44554.0430     0.17352E+03 
  44586.3051     0.17323E+03 
  44618.5673     0.17295E+03 
  44650.8294     0.17266E+03 
  44683.0916     0.17236E+03 
  44715.3538     0.17206E+03 
  44747.6159     0.17176E+03 
  44779.8781     0.17146E+03 
  44812.1402     0.17115E+03 
  44844.4024     0.17083E+03 
  44876.6646     0.17052E+03 
  44908.9267     0.17020E+03 
  44941.1889     0.16987E+03 
  44973.4510     0.16954E+03 
  45005.7132     0.16921E+03 
  45037.9754     0.16888E+03 
  45070.2375     0.16854E+03 
  45102.4997     0.16820E+03 
  45134.7618     0.16785E+03 
  45167.0240     0.16750E+03 
  45199.2862     0.16715E+03 
  45231.5483     0.16680E+03 
  45263.8105     0.16644E+03 
  45296.0726     0.16607E+03 
  45328.3348     0.16571E+03 
  45360.5970     0.16534E+03 
  45392.8591     0.16497E+03 
  45425.1213     0.16459E+03 
  45457.3834     0.16421E+03 
  45489.6456     0.16383E+03 
  45521.9078     0.16345E+03 
  45554.1699     0.16306E+03 
  45586.4321     0.16267E+03 
  45618.6942     0.16228E+03 
  45650.9564     0.16188E+03 
  45683.2186     0.16148E+03 
  45715.4807     0.16108E+03 
  45747.7429     0.16067E+03 
  45780.0050     0.16026E+03 
  45812.2672     0.15985E+03 
  45844.5294     0.15944E+03 
  45876.7915     0.15902E+03 
  45909.0537     0.15860E+03 
  45941.3158     0.15818E+03 
  45973.5780     0.15776E+03 
  46005.8402     0.15733E+03 
  46038.1023     0.15690E+03 
  46070.3645     0.15647E+03 
  46102.6266     0.15604E+03 
  46134.8888     0.15560E+03 
  46167.1510     0.15516E+03 
  46199.4131     0.15472E+03 
  46231.6753     0.15427E+03 
  46263.9374     0.15383E+03 
  46296.1996     0.15338E+03 
  46328.4618     0.15293E+03 
  46360.7239     0.15247E+03 
  46392.9861     0.15202E+03 
  46425.2482     0.15156E+03 
  46457.5104     0.15110E+03 
  46489.7726     0.15064E+03 
  46522.0347     0.15018E+03 
  46554.2969     0.14971E+03 
  46586.5590     0.14924E+03 
  46618.8212     0.14877E+03 
  46651.0834     0.14830E+03 
  46683.3455     0.14783E+03 
  46715.6077     0.14735E+03 
  46747.8698     0.14687E+03 
  46780.1320     0.14639E+03 
  46812.3942     0.14591E+03 
  46844.6563     0.14543E+03 
  46876.9185     0.14495E+03 
  46909.1806     0.14446E+03 
  46941.4428     0.14397E+03 
  46973.7050     0.14348E+03 
  47005.9671     0.14299E+03 
  47038.2293     0.14250E+03 
  47070.4914     0.14200E+03 
  47102.7536     0.14151E+03 
  47135.0158     0.14101E+03 
  47167.2779     0.14051E+03 
  47199.5401     0.14001E+03 
  47231.8022     0.13951E+03 
  47264.0644     0.13901E+03 
  47296.3266     0.13851E+03 
  47328.5887     0.13800E+03 
  47360.8509     0.13750E+03 
  47393.1130     0.13699E+03 
  47425.3752     0.13648E+03 
  47457.6374     0.13597E+03 
  47489.8995     0.13546E+03 
  47522.1617     0.13495E+03 
  47554.4238     0.13443E+03 
  47586.6860     0.13392E+03 
  47618.9482     0.13340E+03 
  47651.2103     0.13289E+03 
  47683.4725     0.13237E+03 
  47715.7346     0.13185E+03 
  47747.9968     0.13134E+03 
  47780.2590     0.13082E+03 
  47812.5211     0.13030E+03 
  47844.7833     0.12977E+03 
  47877.0454     0.12925E+03 
  47909.3076     0.12873E+03 
  47941.5698     0.12821E+03 
  47973.8319     0.12768E+03 
  48006.0941     0.12716E+03 
  48038.3562     0.12663E+03 
  48070.6184     0.12611E+03 
  48102.8806     0.12558E+03 
  48135.1427     0.12505E+03 
  48167.4049     0.12453E+03 
  48199.6670     0.12400E+03 
  48231.9292     0.12347E+03 
  48264.1914     0.12294E+03 
  48296.4535     0.12241E+03 
  48328.7157     0.12188E+03 
  48360.9778     0.12136E+03 
  48393.2400     0.12083E+03 
  48425.5022     0.12029E+03 
  48457.7643     0.11976E+03 
  48490.0265     0.11923E+03 
  48522.2886     0.11870E+03 
  48554.5508     0.11817E+03 
  48586.8130     0.11764E+03 
  48619.0751     0.11711E+03 
  48651.3373     0.11658E+03 
  48683.5994     0.11605E+03 
  48715.8616     0.11552E+03 
  48748.1238     0.11498E+03 
  48780.3859     0.11445E+03 
  48812.6481     0.11392E+03 
  48844.9102     0.11339E+03 
  48877.1724     0.11286E+03 
  48909.4346     0.11233E+03 
  48941.6967     0.11180E+03 
  48973.9589     0.11126E+03 
  49006.2210     0.11073E+03 
  49038.4832     0.11020E+03 
  49070.7454     0.10967E+03 
  49103.0075     0.10914E+03 
  49135.2697     0.10861E+03 
  49167.5318     0.10808E+03 
  49199.7940     0.10755E+03 
  49232.0562     0.10703E+03 
  49264.3183     0.10650E+03 
  49296.5805     0.10597E+03 
  49328.8426     0.10544E+03 
  49361.1048     0.10491E+03 
  49393.3670     0.10439E+03 
  49425.6291     0.10386E+03 
  49457.8913     0.10334E+03 
  49490.1534     0.10281E+03 
  49522.4156     0.10228E+03 
  49554.6778     0.10176E+03 
  49586.9399     0.10124E+03 
  49619.2021     0.10071E+03 
  49651.4642     0.10019E+03 
  49683.7264     0.99669E+02 
  49715.9886     0.99148E+02 
  49748.2507     0.98627E+02 
  49780.5129     0.98107E+02 
  49812.7750     0.97588E+02 
  49845.0372     0.97069E+02 
  49877.2994     0.96552E+02 
  49909.5615     0.96035E+02 
  49941.8237     0.95519E+02 
  49974.0858     0.95003E+02 
  50006.3480     0.94488E+02 
  50038.6102     0.93975E+02 
  50070.8723     0.93462E+02 
  50103.1345     0.92950E+02 
  50135.3966     0.92439E+02 
  50167.6588     0.91928E+02 
  50199.9210     0.91419E+02 
  50232.1831     0.90910E+02 
  50264.4453     0.90403E+02 
  50296.7074     0.89896E+02 
  50328.9696     0.89391E+02 
  50361.2318     0.88886E+02 
  50393.4939     0.88383E+02 
  50425.7561     0.87880E+02 
  50458.0182     0.87379E+02 
  50490.2804     0.86878E+02 
  50522.5426     0.86379E+02 
  50554.8047     0.85881E+02 
  50587.0669     0.85383E+02 
  50619.3290     0.84887E+02 
  50651.5912     0.84392E+02 
  50683.8534     0.83899E+02 
  50716.1155     0.83406E+02 
  50748.3777     0.82915E+02 
  50780.6398     0.82424E+02 
  50812.9020     0.81935E+02 
  50845.1642     0.81447E+02 
  50877.4263     0.80961E+02 
  50909.6885     0.80475E+02 
  50941.9506     0.79991E+02 
  50974.2128     0.79508E+02 
  51006.4750     0.79026E+02 
  51038.7371     0.78546E+02 
  51070.9993     0.78067E+02 
  51103.2614     0.77589E+02 
  51135.5236     0.77112E+02 
  51167.7858     0.76637E+02 
  51200.0479     0.76163E+02 
  51232.3101     0.75691E+02 
  51264.5722     0.75220E+02 
  51296.8344     0.74750E+02 
  51329.0966     0.74281E+02 
  51361.3587     0.73814E+02 
  51393.6209     0.73349E+02 
  51425.8830     0.72884E+02 
  51458.1452     0.72422E+02 
  51490.4074     0.71960E+02 
  51522.6695     0.71500E+02 
  51554.9317     0.71042E+02 
  51587.1938     0.70585E+02 
  51619.4560     0.70129E+02 
  51651.7182     0.69675E+02 
  51683.9803     0.69222E+02 
  51716.2425     0.68771E+02 
  51748.5046     0.68321E+02 
  51780.7668     0.67873E+02 
  51813.0290     0.67426E+02 
  51845.2911     0.66981E+02 
  51877.5533     0.66537E+02 
  51909.8154     0.66095E+02 
  51942.0776     0.65654E+02 
  51974.3398     0.65215E+02 
  52006.6019     0.64778E+02 
  52038.8641     0.64342E+02 
  52071.1262     0.63907E+02 
  52103.3884     0.63474E+02 
  52135.6506     0.63043E+02 
  52167.9127     0.62613E+02 
  52200.1749     0.62185E+02 
  52232.4370     0.61758E+02 
  52264.6992     0.61333E+02 
  52296.9614     0.60910E+02 
  52329.2235     0.60488E+02 
  52361.4857     0.60068E+02 
  52393.7478     0.59649E+02 
  52426.0100     0.59232E+02 
  52458.2722     0.58817E+02 
  52490.5343     0.58403E+02 
  52522.7965     0.57991E+02 
  52555.0586     0.57581E+02 
  52587.3208     0.57172E+02 
  52619.5830     0.56765E+02 
  52651.8451     0.56359E+02 
  52684.1073     0.55955E+02 
  52716.3694     0.55553E+02 
  52748.6316     0.55153E+02 
  52780.8938     0.54754E+02 
  52813.1559     0.54356E+02 
  52845.4181     0.53961E+02 
  52877.6802     0.53567E+02 
  52909.9424     0.53174E+02 
  52942.2046     0.52784E+02 
  52974.4667     0.52395E+02 
  53006.7289     0.52008E+02 
  53038.9910     0.51622E+02 
  53071.2532     0.51238E+02 
  53103.5154     0.50856E+02 
  53135.7775     0.50475E+02 
  53168.0397     0.50097E+02 
  53200.3018     0.49719E+02 
  53232.5640     0.49344E+02 
  53264.8262     0.48970E+02 
  53297.0883     0.48598E+02 
  53329.3505     0.48227E+02 
  53361.6126     0.47859E+02 
  53393.8748     0.47492E+02 
  53426.1370     0.47126E+02 
  53458.3991     0.46763E+02 
  53490.6613     0.46401E+02 
  53522.9234     0.46040E+02 
  53555.1856     0.45682E+02 
  53587.4478     0.45325E+02 
  53619.7099     0.44970E+02 
  53651.9721     0.44616E+02 
  53684.2342     0.44264E+02 
  53716.4964     0.43914E+02 
  53748.7586     0.43566E+02 
  53781.0207     0.43219E+02 
  53813.2829     0.42874E+02 
  53845.5450     0.42531E+02 
  53877.8072     0.42189E+02 
  53910.0694     0.41849E+02 
  53942.3315     0.41511E+02 
  53974.5937     0.41174E+02 
  54006.8558     0.40839E+02 
  54039.1180     0.40506E+02 
  54071.3802     0.40174E+02 
  54103.6423     0.39844E+02 
  54135.9045     0.39516E+02 
  54168.1666     0.39190E+02 
  54200.4288     0.38865E+02 
  54232.6910     0.38542E+02 
  54264.9531     0.38220E+02 
  54297.2153     0.37900E+02 
  54329.4774     0.37582E+02 
  54361.7396     0.37266E+02 
  54394.0018     0.36951E+02 
  54426.2639     0.36638E+02 
  54458.5261     0.36326E+02 
  54490.7882     0.36016E+02 
  54523.0504     0.35708E+02 
  54555.3126     0.35402E+02 
  54587.5747     0.35097E+02 
  54619.8369     0.34793E+02 
  54652.0990     0.34492E+02 
  54684.3612     0.34192E+02 
  54716.6234     0.33894E+02 
  54748.8855     0.33597E+02 
  54781.1477     0.33302E+02 
  54813.4098     0.33008E+02 
  54845.6720     0.32717E+02 
  54877.9342     0.32426E+02 
  54910.1963     0.32138E+02 
  54942.4585     0.31851E+02 
  54974.7206     0.31566E+02 
  55006.9828     0.31282E+02 
  55039.2450     0.31000E+02 
  55071.5071     0.30719E+02 
  55103.7693     0.30441E+02 
  55136.0314     0.30163E+02 
  55168.2936     0.29888E+02 
  55200.5558     0.29613E+02 
  55232.8179     0.29341E+02 
  55265.0801     0.29070E+02 
  55297.3422     0.28801E+02 
  55329.6044     0.28533E+02 
  55361.8666     0.28267E+02 
  55394.1287     0.28002E+02 
  55426.3909     0.27739E+02 
  55458.6530     0.27477E+02 
  55490.9152     0.27217E+02 
  55523.1774     0.26959E+02 
  55555.4395     0.26702E+02 
  55587.7017     0.26447E+02 
  55619.9638     0.26193E+02 
  55652.2260     0.25941E+02 
  55684.4882     0.25690E+02 
  55716.7503     0.25441E+02 
  55749.0125     0.25193E+02 
  55781.2746     0.24947E+02 
  55813.5368     0.24702E+02 
  55845.7990     0.24459E+02 
  55878.0611     0.24218E+02 
  55910.3233     0.23978E+02 
  55942.5854     0.23739E+02 
  55974.8476     0.23502E+02 
  56007.1098     0.23266E+02 
  56039.3719     0.23032E+02 
  56071.6341     0.22799E+02 
  56103.8962     0.22568E+02 
  56136.1584     0.22338E+02 
  56168.4206     0.22110E+02 
  56200.6827     0.21883E+02 
  56232.9449     0.21658E+02 
  56265.2070     0.21434E+02 
  56297.4692     0.21211E+02 
  56329.7314     0.20990E+02 
  56361.9935     0.20770E+02 
  56394.2557     0.20552E+02 
  56426.5178     0.20335E+02 
  56458.7800     0.20120E+02 
  56491.0422     0.19906E+02 
  56523.3043     0.19694E+02 
  56555.5665     0.19482E+02 
  56587.8286     0.19273E+02 
  56620.0908     0.19064E+02 
  56652.3530     0.18857E+02 
  56684.6151     0.18652E+02 
  56716.8773     0.18448E+02 
  56749.1394     0.18245E+02 
  56781.4016     0.18043E+02 
  56813.6638     0.17843E+02 
  56845.9259     0.17645E+02 
  56878.1881     0.17447E+02 
  56910.4502     0.17251E+02 
  56942.7124     0.17056E+02 
  56974.9746     0.16863E+02 
  57007.2367     0.16671E+02 
  57039.4989     0.16480E+02 
  57071.7610     0.16291E+02 
  57104.0232     0.16103E+02 
  57136.2854     0.15916E+02 
  57168.5475     0.15731E+02 
  57200.8097     0.15547E+02 
  57233.0718     0.15364E+02 
  57265.3340     0.15183E+02 
  57297.5962     0.15002E+02 
  57329.8583     0.14823E+02 
  57362.1205     0.14646E+02 
  57394.3826     0.14469E+02 
  57426.6448     0.14294E+02 
  57458.9070     0.14120E+02 
  57491.1691     0.13948E+02 
  57523.4313     0.13777E+02 
  57555.6934     0.13607E+02 
  57587.9556     0.13438E+02 
  57620.2178     0.13270E+02 
  57652.4799     0.13104E+02 
  57684.7421     0.12939E+02 
  57717.0042     0.12775E+02 
  57749.2664     0.12612E+02 
  57781.5286     0.12451E+02 
  57813.7907     0.12291E+02 
  57846.0529     0.12131E+02 
  57878.3150     0.11974E+02 
  57910.5772     0.11817E+02 
  57942.8394     0.11662E+02 
  57975.1015     0.11507E+02 
  58007.3637     0.11354E+02 
  58039.6258     0.11203E+02 
  58071.8880     0.11052E+02 
  58104.1502     0.10902E+02 
  58136.4123     0.10754E+02 
  58168.6745     0.10607E+02 
  58200.9366     0.10461E+02 
  58233.1988     0.10316E+02 
  58265.4610     0.10172E+02 
  58297.7231     0.10030E+02 
  58329.9853     0.98884E+01 
  58362.2474     0.97481E+01 
  58394.5096     0.96090E+01 
  58426.7718     0.94710E+01 
  58459.0339     0.93341E+01 
  58491.2961     0.91984E+01 
  58523.5582     0.90637E+01 
  58555.8204     0.89302E+01 
  58588.0826     0.87978E+01 
  58620.3447     0.86665E+01 
  58652.6069     0.85363E+01 
  58684.8690     0.84072E+01 
  58717.1312     0.82792E+01 
  58749.3934     0.81523E+01 
  58781.6555     0.80264E+01 
  58813.9177     0.79017E+01 
  58846.1798     0.77780E+01 
  58878.4420     0.76555E+01 
  58910.7042     0.75340E+01 
  58942.9663     0.74135E+01 
  58975.2285     0.72941E+01 
  59007.4906     0.71758E+01 
  59039.7528     0.70586E+01 
  59072.0150     0.69424E+01 
  59104.2771     0.68273E+01 
  59136.5393     0.67132E+01 
  59168.8014     0.66002E+01 
  59201.0636     0.64882E+01 
  59233.3258     0.63772E+01 
  59265.5879     0.62673E+01 
  59297.8501     0.61585E+01 
  59330.1122     0.60506E+01 
  59362.3744     0.59438E+01 
  59394.6366     0.58381E+01 
  59426.8987     0.57333E+01 
  59459.1609     0.56296E+01 
  59491.4230     0.55269E+01 
  59523.6852     0.54252E+01 
  59555.9474     0.53245E+01 
  59588.2095     0.52249E+01 
  59620.4717     0.51263E+01 
  59652.7338     0.50286E+01 
  59684.9960     0.49320E+01 
  59717.2582     0.48364E+01 
  59749.5203     0.47418E+01 
  59781.7825     0.46482E+01 
  59814.0446     0.45556E+01 
  59846.3068     0.44640E+01 
  59878.5690     0.43734E+01 
  59910.8311     0.42838E+01 
  59943.0933     0.41952E+01 
  59975.3554     0.41076E+01 
  60007.6176     0.40210E+01 
  60039.8798     0.39354E+01 
  60072.1419     0.38508E+01 
  60104.4041     0.37672E+01 
  60136.6662     0.36845E+01 
  60168.9284     0.36029E+01 
  60201.1906     0.35222E+01 
  60233.4527     0.34426E+01 
  60265.7149     0.33639E+01 
  60297.9770     0.32862E+01 
  60330.2392     0.32095E+01 
  60362.5014     0.31338E+01 
  60394.7635     0.30591E+01 
  60427.0257     0.29853E+01 
  60459.2878     0.29126E+01 
  60491.5500     0.28408E+01 
  60523.8122     0.27701E+01 
  60556.0743     0.27003E+01 
  60588.3365     0.26315E+01 
  60620.5986     0.25637E+01 
  60652.8608     0.24970E+01 
  60685.1230     0.24312E+01 
  60717.3851     0.23664E+01 
  60749.6473     0.23026E+01 
  60781.9094     0.22398E+01 
  60814.1716     0.21780E+01 
  60846.4338     0.21172E+01 
  60878.6959     0.20574E+01 
  60910.9581     0.19986E+01 
  60943.2202     0.19409E+01 
  60975.4824     0.18841E+01 
  61007.7446     0.18284E+01 
  61040.0067     0.17737E+01 
  61072.2689     0.17200E+01 
  61104.5310     0.16673E+01 
  61136.7932     0.16157E+01 
  61169.0554     0.15651E+01 
  61201.3175     0.15155E+01 
  61233.5797     0.14670E+01 
  61265.8418     0.14195E+01 
  61298.1040     0.13731E+01 
  61330.3662     0.13277E+01 
  61362.6283     0.12833E+01 
  61394.8905     0.12401E+01 
  61427.1526     0.11978E+01 
  61459.4148     0.11567E+01 
  61491.6770     0.11166E+01 
  61523.9391     0.10777E+01 
  61556.2013     0.10398E+01 
  61588.4634     0.10030E+01 
  61620.7256     0.96728E+00 
  61652.9878     0.93268E+00 
  61685.2499     0.89920E+00 
  61717.5121     0.86684E+00 
  61749.7742     0.83560E+00 
  61782.0364     0.80550E+00 
  61814.2986     0.77653E+00 
  61846.5607     0.74872E+00 
  61878.8229     0.72206E+00 
  61911.0850     0.69656E+00 
  61943.3472     0.67224E+00 
  61975.6094     0.64910E+00 
  62007.8715     0.62715E+00 
  62040.1337     0.60640E+00 
  62072.3958     0.58685E+00 
  62104.6580     0.56853E+00 
  62136.9202     0.55143E+00 
  62169.1823     0.53558E+00 
  62201.4445     0.52097E+00 
  62233.7066     0.50763E+00 
  62265.9688     0.49555E+00 
  62298.2310     0.48476E+00 
  62330.4931     0.47527E+00 
  62362.7553     0.46708E+00 
  62395.0174     0.46021E+00 
  62427.2796     0.45467E+00 
  62459.5418     0.45048E+00 
  62491.8039     0.44764E+00 
  62524.0661     0.44618E+00 
  62556.3282     0.44610E+00 
  62588.5904     0.44743E+00 
  62620.8526     0.45017E+00 
  62653.1147     0.45434E+00 
  62685.3769     0.45996E+00 
  62717.6390     0.46703E+00 
  62749.9012     0.47559E+00 
  62782.1634     0.48564E+00 
  62814.4255     0.49721E+00 
  62846.6877     0.51030E+00 
  62878.9498     0.52494E+00 
  62911.2120     0.54114E+00 
  62943.4742     0.55893E+00 
  62975.7363     0.57832E+00 
  63007.9985     0.59934E+00 
  63040.2606     0.62199E+00 
  63072.5228     0.64631E+00 
  63104.7850     0.67231E+00 
  63137.0471     0.70002E+00 
  63169.3093     0.72945E+00 
  63201.5714     0.76064E+00 
  63233.8336     0.79359E+00 
  63266.0958     0.82834E+00 
  63298.3579     0.86491E+00 
  63330.6201     0.90332E+00 
  63362.8822     0.94360E+00 
  63395.1444     0.98577E+00 
  63427.4066     0.10299E+01 
  63459.6687     0.10759E+01 
  63491.9309     0.11239E+01 
  63524.1930     0.11739E+01 
  63556.4552     0.12259E+01 
  63588.7174     0.12800E+01 
  63620.9795     0.13362E+01 
  63653.2417     0.13945E+01 
  63685.5038     0.14549E+01 
  63717.7660     0.15175E+01 
  63750.0282     0.15823E+01 
  63782.2903     0.16494E+01 
  63814.5525     0.17187E+01 
  63846.8146     0.17903E+01 
  63879.0768     0.18643E+01 
  63911.3390     0.19407E+01 
  63943.6011     0.20194E+01 
  63975.8633     0.21006E+01 
  64008.1254     0.21843E+01 
  64040.3876     0.22705E+01 
  64072.6498     0.23593E+01 
  64104.9119     0.24506E+01 
  64137.1741     0.25446E+01 
  64169.4362     0.26413E+01 
  64201.6984     0.27407E+01 
  64233.9606     0.28428E+01 
  64266.2227     0.29478E+01 
  64298.4849     0.30556E+01 
  64330.7470     0.31663E+01 
  64363.0092     0.32799E+01 
  64395.2714     0.33966E+01 
  64427.5335     0.35162E+01 
  64459.7957     0.36389E+01 
  64492.0578     0.37648E+01 
  64524.3200     0.38938E+01 
  64556.5822     0.40260E+01 
  64588.8443     0.41616E+01 
  64621.1065     0.43004E+01 
  64653.3686     0.44426E+01 
  64685.6308     0.45883E+01 
  64717.8930     0.47375E+01 
  64750.1551     0.48902E+01 
  64782.4173     0.50465E+01 
  64814.6794     0.52064E+01 
  64846.9416     0.53701E+01 
  64879.2038     0.55376E+01 
  64911.4659     0.57089E+01 
  64943.7281     0.58841E+01 
  64975.9902     0.60632E+01 
  65008.2524     0.62464E+01 
  65040.5146     0.64337E+01 
  65072.7767     0.66251E+01 
  65105.0389     0.68208E+01 
  65137.3010     0.70207E+01 
  65169.5632     0.72250E+01 
  65201.8254     0.74338E+01 
  65234.0875     0.76470E+01 
  65266.3497     0.78648E+01 
  65298.6118     0.80873E+01 
  65330.8740     0.83145E+01 
  65363.1362     0.85465E+01 
  65395.3983     0.87833E+01 
  65427.6605     0.90252E+01 
  65459.9226     0.92720E+01 
  65492.1848     0.95240E+01 
  65524.4470     0.97812E+01 
  65556.7091     0.10044E+02 
  65588.9713     0.10311E+02 
  65621.2334     0.10585E+02 
  65653.4956     0.10863E+02 
  65685.7578     0.11148E+02 
  65718.0199     0.11438E+02 
  65750.2821     0.11734E+02 
  65782.5442     0.12036E+02 
  65814.8064     0.12344E+02 
  65847.0686     0.12658E+02 
  65879.3307     0.12978E+02 
  65911.5929     0.13304E+02 
  65943.8550     0.13637E+02 
  65976.1172     0.13976E+02 
  66008.3794     0.14322E+02 
  66040.6415     0.14675E+02 
  66072.9037     0.15034E+02 
  66105.1658     0.15400E+02 
  66137.4280     0.15774E+02 
  66169.6902     0.16154E+02 
  66201.9523     0.16542E+02 
  66234.2145     0.16937E+02 
  66266.4766     0.17339E+02 
  66298.7388     0.17749E+02 
  66331.0010     0.18167E+02 
  66363.2631     0.18592E+02 
  66395.5253     0.19026E+02 
  66427.7874     0.19467E+02 
  66460.0496     0.19917E+02 
  66492.3118     0.20375E+02 
  66524.5739     0.20841E+02 
  66556.8361     0.21316E+02 
  66589.0982     0.21800E+02 
  66621.3604     0.22293E+02 
  66653.6226     0.22794E+02 
  66685.8847     0.23305E+02 
  66718.1469     0.23824E+02 
  66750.4090     0.24353E+02 
  66782.6712     0.24892E+02 
  66814.9334     0.25440E+02 
  66847.1955     0.25998E+02 
  66879.4577     0.26566E+02 
  66911.7198     0.27144E+02 
  66943.9820     0.27733E+02 
  66976.2442     0.28331E+02 
  67008.5063     0.28941E+02 
  67040.7685     0.29561E+02 
  67073.0306     0.30191E+02 
  67105.2928     0.30833E+02 
  67137.5550     0.31486E+02 
  67169.8171     0.32150E+02 
  67202.0793     0.32826E+02 
  67234.3414     0.33513E+02 
  67266.6036     0.34213E+02 
  67298.8658     0.34924E+02 
  67331.1279     0.35647E+02 
  67363.3901     0.36383E+02 
  67395.6522     0.37131E+02 
  67427.9144     0.37892E+02 
  67460.1766     0.38665E+02 
  67492.4387     0.39452E+02 
  67524.7009     0.40252E+02 
  67556.9630     0.41065E+02 
  67589.2252     0.41892E+02 
  67621.4874     0.42733E+02 
  67653.7495     0.43588E+02 
  67686.0117     0.44457E+02 
  67718.2738     0.45340E+02 
  67750.5360     0.46237E+02 
  67782.7982     0.47150E+02 
  67815.0603     0.48077E+02 
  67847.3225     0.49020E+02 
  67879.5846     0.49977E+02 
  67911.8468     0.50951E+02 
  67944.1090     0.51940E+02 
  67976.3711     0.52945E+02 
  68008.6333     0.53966E+02 
  68040.8954     0.55003E+02 
  68073.1576     0.56057E+02 
  68105.4198     0.57128E+02 
  68137.6819     0.58216E+02 
  68169.9441     0.59321E+02 
  68202.2062     0.60444E+02 
  68234.4684     0.61584E+02 
  68266.7306     0.62742E+02 
  68298.9927     0.63918E+02 
  68331.2549     0.65113E+02 
  68363.5170     0.66326E+02 
  68395.7792     0.67558E+02 
  68428.0414     0.68808E+02 
  68460.3035     0.70079E+02 
  68492.5657     0.71368E+02 
  68524.8278     0.72678E+02 
  68557.0900     0.74007E+02 
  68589.3522     0.75356E+02 
  68621.6143     0.76726E+02 
  68653.8765     0.78117E+02 
  68686.1386     0.79528E+02 
  68718.4008     0.80961E+02 
  68750.6630     0.82415E+02 
  68782.9251     0.83891E+02 
  68815.1873     0.85389E+02 
  68847.4494     0.86909E+02 
  68879.7116     0.88451E+02 
  68911.9738     0.90016E+02 
  68944.2359     0.91604E+02 
  68976.4981     0.93215E+02 
  69008.7602     0.94850E+02 
  69041.0224     0.96508E+02 
  69073.2846     0.98190E+02 
  69105.5467     0.99897E+02 
  69137.8089     0.10163E+03 
  69170.0710     0.10338E+03 
  69202.3332     0.10516E+03 
  69234.5954     0.10697E+03 
  69266.8575     0.10880E+03 
  69299.1197     0.11066E+03 
  69331.3818     0.11254E+03 
  69363.6440     0.11445E+03 
  69395.9062     0.11639E+03 
  69428.1683     0.11835E+03 
  69460.4305     0.12034E+03 
  69492.6926     0.12236E+03 
  69524.9548     0.12441E+03 
  69557.2170     0.12648E+03 
  69589.4791     0.12859E+03 
  69621.7413     0.13072E+03 
  69654.0034     0.13288E+03 
  69686.2656     0.13507E+03 
  69718.5278     0.13728E+03 
  69750.7899     0.13953E+03 
  69783.0521     0.14181E+03 
  69815.3142     0.14412E+03 
  69847.5764     0.14646E+03 
  69879.8386     0.14883E+03 
  69912.1007     0.15123E+03 
  69944.3629     0.15366E+03 
  69976.6250     0.15612E+03 
  70008.8872     0.15862E+03 
  70041.1494     0.16115E+03 
  70073.4115     0.16371E+03 
  70105.6737     0.16630E+03 
  70137.9358     0.16893E+03 
  70170.1980     0.17159E+03 
  70202.4602     0.17428E+03 
  70234.7223     0.17701E+03 
  70266.9845     0.17977E+03 
  70299.2466     0.18257E+03 
  70331.5088     0.18540E+03 
  70363.7710     0.18827E+03 
  70396.0331     0.19117E+03 
  70428.2953     0.19411E+03 
  70460.5574     0.19708E+03 
  70492.8196     0.20009E+03 
  70525.0818     0.20314E+03 
  70557.3439     0.20622E+03 
  70589.6061     0.20934E+03 
  70621.8682     0.21250E+03 
  70654.1304     0.21570E+03 
  70686.3926     0.21893E+03 
  70718.6547     0.22220E+03 
  70750.9169     0.22551E+03 
  70783.1790     0.22886E+03 
  70815.4412     0.23225E+03 
  70847.7034     0.23567E+03 
  70879.9655     0.23914E+03 
  70912.2277     0.24265E+03 
  70944.4898     0.24619E+03 
  70976.7520     0.24978E+03 
  71009.0142     0.25341E+03 
  71041.2763     0.25708E+03 
  71073.5385     0.26079E+03 
  71105.8006     0.26454E+03 
  71138.0628     0.26833E+03 
  71170.3250     0.27217E+03 
  71202.5871     0.27604E+03 
  71234.8493     0.27996E+03 
  71267.1114     0.28392E+03 
  71299.3736     0.28793E+03 
  71331.6358     0.29198E+03 
  71363.8979     0.29607E+03 
  71396.1601     0.30020E+03 
  71428.4222     0.30438E+03 
  71460.6844     0.30861E+03 
  71492.9466     0.31288E+03 
  71525.2087     0.31719E+03 
  71557.4709     0.32155E+03 
  71589.7330     0.32595E+03 
  71621.9952     0.33040E+03 
  71654.2574     0.33489E+03 
  71686.5195     0.33943E+03 
  71718.7817     0.34401E+03 
  71751.0438     0.34864E+03 
  71783.3060     0.35332E+03 
  71815.5682     0.35805E+03 
  71847.8303     0.36282E+03 
  71880.0925     0.36764E+03 
  71912.3546     0.37250E+03 
  71944.6168     0.37741E+03 
  71976.8790     0.38237E+03 
  72009.1411     0.38738E+03 
  72041.4033     0.39244E+03 
  72073.6654     0.39754E+03 
  72105.9276     0.40269E+03 
  72138.1898     0.40789E+03 
  72170.4519     0.41314E+03 
  72202.7141     0.41844E+03 
  72234.9762     0.42379E+03 
  72267.2384     0.42918E+03 
  72299.5006     0.43463E+03 
  72331.7627     0.44012E+03 
  72364.0249     0.44566E+03 
  72396.2870     0.45126E+03 
  72428.5492     0.45690E+03 
  72460.8114     0.46259E+03 
  72493.0735     0.46834E+03 
  72525.3357     0.47413E+03 
  72557.5978     0.47997E+03 
  72589.8600     0.48587E+03 
