  32262.1600     0.38491E+00 
  32294.4222     0.38979E+00 
  32326.6843     0.39472E+00 
  32358.9465     0.39970E+00 
  32391.2086     0.40471E+00 
  32423.4708     0.40977E+00 
  32455.7330     0.41487E+00 
  32487.9951     0.42002E+00 
  32520.2573     0.42521E+00 
  32552.5194     0.43044E+00 
  32584.7816     0.43572E+00 
  32617.0438     0.44104E+00 
  32649.3059     0.44640E+00 
  32681.5681     0.45181E+00 
  32713.8302     0.45726E+00 
  32746.0924     0.46276E+00 
  32778.3546     0.46830E+00 
  32810.6167     0.47388E+00 
  32842.8789     0.47951E+00 
  32875.1410     0.48518E+00 
  32907.4032     0.49089E+00 
  32939.6654     0.49665E+00 
  32971.9275     0.50245E+00 
  33004.1897     0.50830E+00 
  33036.4518     0.51419E+00 
  33068.7140     0.52012E+00 
  33100.9762     0.52610E+00 
  33133.2383     0.53212E+00 
  33165.5005     0.53819E+00 
  33197.7626     0.54430E+00 
  33230.0248     0.55045E+00 
  33262.2870     0.55664E+00 
  33294.5491     0.56288E+00 
  33326.8113     0.56916E+00 
  33359.0734     0.57549E+00 
  33391.3356     0.58186E+00 
  33423.5978     0.58827E+00 
  33455.8599     0.59472E+00 
  33488.1221     0.60122E+00 
  33520.3842     0.60776E+00 
  33552.6464     0.61434E+00 
  33584.9086     0.62096E+00 
  33617.1707     0.62763E+00 
  33649.4329     0.63434E+00 
  33681.6950     0.64109E+00 
  33713.9572     0.64788E+00 
  33746.2194     0.65472E+00 
  33778.4815     0.66159E+00 
  33810.7437     0.66851E+00 
  33843.0058     0.67547E+00 
  33875.2680     0.68247E+00 
  33907.5302     0.68951E+00 
  33939.7923     0.69659E+00 
  33972.0545     0.70371E+00 
  34004.3166     0.71087E+00 
  34036.5788     0.71807E+00 
  34068.8410     0.72531E+00 
  34101.1031     0.73259E+00 
  34133.3653     0.73991E+00 
  34165.6274     0.74727E+00 
  34197.8896     0.75467E+00 
  34230.1518     0.76210E+00 
  34262.4139     0.76958E+00 
  34294.6761     0.77709E+00 
  34326.9382     0.78464E+00 
  34359.2004     0.79223E+00 
  34391.4626     0.79985E+00 
  34423.7247     0.80751E+00 
  34455.9869     0.81521E+00 
  34488.2490     0.82295E+00 
  34520.5112     0.83072E+00 
  34552.7734     0.83852E+00 
  34585.0355     0.84636E+00 
  34617.2977     0.85424E+00 
  34649.5598     0.86215E+00 
  34681.8220     0.87009E+00 
  34714.0842     0.87807E+00 
  34746.3463     0.88608E+00 
  34778.6085     0.89413E+00 
  34810.8706     0.90221E+00 
  34843.1328     0.91032E+00 
  34875.3950     0.91846E+00 
  34907.6571     0.92663E+00 
  34939.9193     0.93484E+00 
  34972.1814     0.94307E+00 
  35004.4436     0.95134E+00 
  35036.7058     0.95964E+00 
  35068.9679     0.96796E+00 
  35101.2301     0.97632E+00 
  35133.4922     0.98470E+00 
  35165.7544     0.99311E+00 
  35198.0166     0.10016E+01 
  35230.2787     0.10100E+01 
  35262.5409     0.10185E+01 
  35294.8030     0.10270E+01 
  35327.0652     0.10356E+01 
  35359.3274     0.10442E+01 
  35391.5895     0.10527E+01 
  35423.8517     0.10614E+01 
  35456.1138     0.10700E+01 
  35488.3760     0.10787E+01 
  35520.6382     0.10874E+01 
  35552.9003     0.10961E+01 
  35585.1625     0.11048E+01 
  35617.4246     0.11136E+01 
  35649.6868     0.11224E+01 
  35681.9490     0.11312E+01 
  35714.2111     0.11400E+01 
  35746.4733     0.11488E+01 
  35778.7354     0.11577E+01 
  35810.9976     0.11665E+01 
  35843.2598     0.11754E+01 
  35875.5219     0.11843E+01 
  35907.7841     0.11933E+01 
  35940.0462     0.12022E+01 
  35972.3084     0.12112E+01 
  36004.5706     0.12201E+01 
  36036.8327     0.12291E+01 
  36069.0949     0.12381E+01 
  36101.3570     0.12471E+01 
  36133.6192     0.12562E+01 
  36165.8814     0.12652E+01 
  36198.1435     0.12743E+01 
  36230.4057     0.12833E+01 
  36262.6678     0.12924E+01 
  36294.9300     0.13015E+01 
  36327.1922     0.13105E+01 
  36359.4543     0.13196E+01 
  36391.7165     0.13287E+01 
  36423.9786     0.13379E+01 
  36456.2408     0.13470E+01 
  36488.5030     0.13561E+01 
  36520.7651     0.13652E+01 
  36553.0273     0.13744E+01 
  36585.2894     0.13835E+01 
  36617.5516     0.13926E+01 
  36649.8138     0.14018E+01 
  36682.0759     0.14109E+01 
  36714.3381     0.14200E+01 
  36746.6002     0.14292E+01 
  36778.8624     0.14383E+01 
  36811.1246     0.14475E+01 
  36843.3867     0.14566E+01 
  36875.6489     0.14657E+01 
  36907.9110     0.14749E+01 
  36940.1732     0.14840E+01 
  36972.4354     0.14931E+01 
  37004.6975     0.15023E+01 
  37036.9597     0.15114E+01 
  37069.2218     0.15205E+01 
  37101.4840     0.15296E+01 
  37133.7462     0.15387E+01 
  37166.0083     0.15478E+01 
  37198.2705     0.15568E+01 
  37230.5326     0.15659E+01 
  37262.7948     0.15750E+01 
  37295.0570     0.15840E+01 
  37327.3191     0.15930E+01 
  37359.5813     0.16021E+01 
  37391.8434     0.16111E+01 
  37424.1056     0.16201E+01 
  37456.3678     0.16290E+01 
  37488.6299     0.16380E+01 
  37520.8921     0.16469E+01 
  37553.1542     0.16559E+01 
  37585.4164     0.16648E+01 
  37617.6786     0.16737E+01 
  37649.9407     0.16825E+01 
  37682.2029     0.16914E+01 
  37714.4650     0.17002E+01 
  37746.7272     0.17090E+01 
  37778.9894     0.17178E+01 
  37811.2515     0.17266E+01 
  37843.5137     0.17354E+01 
  37875.7758     0.17441E+01 
  37908.0380     0.17528E+01 
  37940.3002     0.17614E+01 
  37972.5623     0.17701E+01 
  38004.8245     0.17787E+01 
  38037.0866     0.17873E+01 
  38069.3488     0.17959E+01 
  38101.6110     0.18044E+01 
  38133.8731     0.18129E+01 
  38166.1353     0.18214E+01 
  38198.3974     0.18298E+01 
  38230.6596     0.18383E+01 
  38262.9218     0.18466E+01 
  38295.1839     0.18550E+01 
  38327.4461     0.18633E+01 
  38359.7082     0.18716E+01 
  38391.9704     0.18798E+01 
  38424.2326     0.18880E+01 
  38456.4947     0.18962E+01 
  38488.7569     0.19044E+01 
  38521.0190     0.19125E+01 
  38553.2812     0.19205E+01 
  38585.5434     0.19285E+01 
  38617.8055     0.19365E+01 
  38650.0677     0.19445E+01 
  38682.3298     0.19524E+01 
  38714.5920     0.19602E+01 
  38746.8542     0.19681E+01 
  38779.1163     0.19759E+01 
  38811.3785     0.19836E+01 
  38843.6406     0.19913E+01 
  38875.9028     0.19989E+01 
  38908.1650     0.20065E+01 
  38940.4271     0.20141E+01 
  38972.6893     0.20216E+01 
  39004.9514     0.20291E+01 
  39037.2136     0.20365E+01 
  39069.4758     0.20439E+01 
  39101.7379     0.20512E+01 
  39134.0001     0.20584E+01 
  39166.2622     0.20657E+01 
  39198.5244     0.20728E+01 
  39230.7866     0.20800E+01 
  39263.0487     0.20870E+01 
  39295.3109     0.20940E+01 
  39327.5730     0.21010E+01 
  39359.8352     0.21079E+01 
  39392.0974     0.21148E+01 
  39424.3595     0.21216E+01 
  39456.6217     0.21283E+01 
  39488.8838     0.21350E+01 
  39521.1460     0.21417E+01 
  39553.4082     0.21482E+01 
  39585.6703     0.21548E+01 
  39617.9325     0.21612E+01 
  39650.1946     0.21676E+01 
  39682.4568     0.21740E+01 
  39714.7190     0.21803E+01 
  39746.9811     0.21865E+01 
  39779.2433     0.21927E+01 
  39811.5054     0.21988E+01 
  39843.7676     0.22048E+01 
  39876.0298     0.22108E+01 
  39908.2919     0.22168E+01 
  39940.5541     0.22226E+01 
  39972.8162     0.22284E+01 
  40005.0784     0.22342E+01 
  40037.3406     0.22398E+01 
  40069.6027     0.22455E+01 
  40101.8649     0.22510E+01 
  40134.1270     0.22565E+01 
  40166.3892     0.22619E+01 
  40198.6514     0.22673E+01 
  40230.9135     0.22726E+01 
  40263.1757     0.22778E+01 
  40295.4378     0.22829E+01 
  40327.7000     0.22880E+01 
  40359.9622     0.22930E+01 
  40392.2243     0.22980E+01 
  40424.4865     0.23029E+01 
  40456.7486     0.23077E+01 
  40489.0108     0.23124E+01 
  40521.2730     0.23171E+01 
  40553.5351     0.23217E+01 
  40585.7973     0.23263E+01 
  40618.0594     0.23307E+01 
  40650.3216     0.23351E+01 
  40682.5838     0.23395E+01 
  40714.8459     0.23437E+01 
  40747.1081     0.23479E+01 
  40779.3702     0.23520E+01 
  40811.6324     0.23561E+01 
  40843.8946     0.23601E+01 
  40876.1567     0.23640E+01 
  40908.4189     0.23678E+01 
  40940.6810     0.23715E+01 
  40972.9432     0.23752E+01 
  41005.2054     0.23788E+01 
  41037.4675     0.23824E+01 
  41069.7297     0.23858E+01 
  41101.9918     0.23892E+01 
  41134.2540     0.23925E+01 
  41166.5162     0.23958E+01 
  41198.7783     0.23989E+01 
  41231.0405     0.24020E+01 
  41263.3026     0.24050E+01 
  41295.5648     0.24080E+01 
  41327.8270     0.24109E+01 
  41360.0891     0.24136E+01 
  41392.3513     0.24164E+01 
  41424.6134     0.24190E+01 
  41456.8756     0.24216E+01 
  41489.1378     0.24241E+01 
  41521.3999     0.24265E+01 
  41553.6621     0.24288E+01 
  41585.9242     0.24311E+01 
  41618.1864     0.24333E+01 
  41650.4486     0.24354E+01 
  41682.7107     0.24374E+01 
  41714.9729     0.24394E+01 
  41747.2350     0.24413E+01 
  41779.4972     0.24431E+01 
  41811.7594     0.24448E+01 
  41844.0215     0.24465E+01 
  41876.2837     0.24481E+01 
  41908.5458     0.24496E+01 
  41940.8080     0.24510E+01 
  41973.0702     0.24523E+01 
  42005.3323     0.24536E+01 
  42037.5945     0.24548E+01 
  42069.8566     0.24559E+01 
  42102.1188     0.24570E+01 
  42134.3810     0.24580E+01 
  42166.6431     0.24589E+01 
  42198.9053     0.24597E+01 
  42231.1674     0.24604E+01 
  42263.4296     0.24611E+01 
  42295.6918     0.24617E+01 
  42327.9539     0.24622E+01 
  42360.2161     0.24626E+01 
  42392.4782     0.24630E+01 
  42424.7404     0.24633E+01 
  42457.0026     0.24635E+01 
  42489.2647     0.24636E+01 
  42521.5269     0.24637E+01 
  42553.7890     0.24637E+01 
  42586.0512     0.24636E+01 
  42618.3134     0.24635E+01 
  42650.5755     0.24632E+01 
  42682.8377     0.24629E+01 
  42715.0998     0.24625E+01 
  42747.3620     0.24621E+01 
  42779.6242     0.24615E+01 
  42811.8863     0.24609E+01 
  42844.1485     0.24603E+01 
  42876.4106     0.24595E+01 
  42908.6728     0.24587E+01 
  42940.9350     0.24578E+01 
  42973.1971     0.24568E+01 
  43005.4593     0.24558E+01 
  43037.7214     0.24547E+01 
  43069.9836     0.24535E+01 
  43102.2458     0.24522E+01 
  43134.5079     0.24509E+01 
  43166.7701     0.24495E+01 
  43199.0322     0.24480E+01 
  43231.2944     0.24465E+01 
  43263.5566     0.24449E+01 
  43295.8187     0.24432E+01 
  43328.0809     0.24414E+01 
  43360.3430     0.24396E+01 
  43392.6052     0.24377E+01 
  43424.8674     0.24358E+01 
  43457.1295     0.24337E+01 
  43489.3917     0.24316E+01 
  43521.6538     0.24295E+01 
  43553.9160     0.24272E+01 
  43586.1782     0.24249E+01 
  43618.4403     0.24226E+01 
  43650.7025     0.24201E+01 
  43682.9646     0.24176E+01 
  43715.2268     0.24151E+01 
  43747.4890     0.24124E+01 
  43779.7511     0.24097E+01 
  43812.0133     0.24070E+01 
  43844.2754     0.24041E+01 
  43876.5376     0.24012E+01 
  43908.7998     0.23983E+01 
  43941.0619     0.23953E+01 
  43973.3241     0.23922E+01 
  44005.5862     0.23890E+01 
  44037.8484     0.23858E+01 
  44070.1106     0.23825E+01 
  44102.3727     0.23792E+01 
  44134.6349     0.23758E+01 
  44166.8970     0.23723E+01 
  44199.1592     0.23688E+01 
  44231.4214     0.23652E+01 
  44263.6835     0.23616E+01 
  44295.9457     0.23579E+01 
  44328.2078     0.23541E+01 
  44360.4700     0.23503E+01 
  44392.7322     0.23465E+01 
  44424.9943     0.23425E+01 
  44457.2565     0.23385E+01 
  44489.5186     0.23345E+01 
  44521.7808     0.23304E+01 
  44554.0430     0.23262E+01 
  44586.3051     0.23220E+01 
  44618.5673     0.23177E+01 
  44650.8294     0.23134E+01 
  44683.0916     0.23090E+01 
  44715.3538     0.23046E+01 
  44747.6159     0.23001E+01 
  44779.8781     0.22956E+01 
  44812.1402     0.22910E+01 
  44844.4024     0.22863E+01 
  44876.6646     0.22816E+01 
  44908.9267     0.22769E+01 
  44941.1889     0.22721E+01 
  44973.4510     0.22672E+01 
  45005.7132     0.22623E+01 
  45037.9754     0.22574E+01 
  45070.2375     0.22524E+01 
  45102.4997     0.22473E+01 
  45134.7618     0.22422E+01 
  45167.0240     0.22371E+01 
  45199.2862     0.22319E+01 
  45231.5483     0.22267E+01 
  45263.8105     0.22214E+01 
  45296.0726     0.22161E+01 
  45328.3348     0.22107E+01 
  45360.5970     0.22053E+01 
  45392.8591     0.21998E+01 
  45425.1213     0.21943E+01 
  45457.3834     0.21888E+01 
  45489.6456     0.21832E+01 
  45521.9078     0.21776E+01 
  45554.1699     0.21719E+01 
  45586.4321     0.21662E+01 
  45618.6942     0.21604E+01 
  45650.9564     0.21546E+01 
  45683.2186     0.21488E+01 
  45715.4807     0.21429E+01 
  45747.7429     0.21370E+01 
  45780.0050     0.21311E+01 
  45812.2672     0.21251E+01 
  45844.5294     0.21190E+01 
  45876.7915     0.21130E+01 
  45909.0537     0.21069E+01 
  45941.3158     0.21008E+01 
  45973.5780     0.20946E+01 
  46005.8402     0.20884E+01 
  46038.1023     0.20821E+01 
  46070.3645     0.20759E+01 
  46102.6266     0.20696E+01 
  46134.8888     0.20632E+01 
  46167.1510     0.20569E+01 
  46199.4131     0.20505E+01 
  46231.6753     0.20440E+01 
  46263.9374     0.20376E+01 
  46296.1996     0.20311E+01 
  46328.4618     0.20246E+01 
  46360.7239     0.20180E+01 
  46392.9861     0.20114E+01 
  46425.2482     0.20048E+01 
  46457.5104     0.19982E+01 
  46489.7726     0.19915E+01 
  46522.0347     0.19848E+01 
  46554.2969     0.19781E+01 
  46586.5590     0.19714E+01 
  46618.8212     0.19646E+01 
  46651.0834     0.19578E+01 
  46683.3455     0.19510E+01 
  46715.6077     0.19442E+01 
  46747.8698     0.19373E+01 
  46780.1320     0.19304E+01 
  46812.3942     0.19235E+01 
  46844.6563     0.19166E+01 
  46876.9185     0.19097E+01 
  46909.1806     0.19027E+01 
  46941.4428     0.18957E+01 
  46973.7050     0.18887E+01 
  47005.9671     0.18817E+01 
  47038.2293     0.18746E+01 
  47070.4914     0.18675E+01 
  47102.7536     0.18605E+01 
  47135.0158     0.18534E+01 
  47167.2779     0.18462E+01 
  47199.5401     0.18391E+01 
  47231.8022     0.18320E+01 
  47264.0644     0.18248E+01 
  47296.3266     0.18176E+01 
  47328.5887     0.18104E+01 
  47360.8509     0.18032E+01 
  47393.1130     0.17960E+01 
  47425.3752     0.17887E+01 
  47457.6374     0.17815E+01 
  47489.8995     0.17742E+01 
  47522.1617     0.17669E+01 
  47554.4238     0.17597E+01 
  47586.6860     0.17524E+01 
  47618.9482     0.17451E+01 
  47651.2103     0.17377E+01 
  47683.4725     0.17304E+01 
  47715.7346     0.17231E+01 
  47747.9968     0.17157E+01 
  47780.2590     0.17084E+01 
  47812.5211     0.17010E+01 
  47844.7833     0.16936E+01 
  47877.0454     0.16863E+01 
  47909.3076     0.16789E+01 
  47941.5698     0.16715E+01 
  47973.8319     0.16641E+01 
  48006.0941     0.16567E+01 
  48038.3562     0.16493E+01 
  48070.6184     0.16419E+01 
  48102.8806     0.16345E+01 
  48135.1427     0.16270E+01 
  48167.4049     0.16196E+01 
  48199.6670     0.16122E+01 
  48231.9292     0.16048E+01 
  48264.1914     0.15973E+01 
  48296.4535     0.15899E+01 
  48328.7157     0.15825E+01 
  48360.9778     0.15750E+01 
  48393.2400     0.15676E+01 
  48425.5022     0.15602E+01 
  48457.7643     0.15527E+01 
  48490.0265     0.15453E+01 
  48522.2886     0.15379E+01 
  48554.5508     0.15304E+01 
  48586.8130     0.15230E+01 
  48619.0751     0.15156E+01 
  48651.3373     0.15081E+01 
  48683.5994     0.15007E+01 
  48715.8616     0.14933E+01 
  48748.1238     0.14859E+01 
  48780.3859     0.14785E+01 
  48812.6481     0.14711E+01 
  48844.9102     0.14637E+01 
  48877.1724     0.14563E+01 
  48909.4346     0.14489E+01 
  48941.6967     0.14415E+01 
  48973.9589     0.14341E+01 
  49006.2210     0.14267E+01 
  49038.4832     0.14193E+01 
  49070.7454     0.14120E+01 
  49103.0075     0.14046E+01 
  49135.2697     0.13973E+01 
  49167.5318     0.13899E+01 
  49199.7940     0.13826E+01 
  49232.0562     0.13753E+01 
  49264.3183     0.13679E+01 
  49296.5805     0.13606E+01 
  49328.8426     0.13533E+01 
  49361.1048     0.13460E+01 
  49393.3670     0.13388E+01 
  49425.6291     0.13315E+01 
  49457.8913     0.13242E+01 
  49490.1534     0.13170E+01 
  49522.4156     0.13097E+01 
  49554.6778     0.13025E+01 
  49586.9399     0.12953E+01 
  49619.2021     0.12881E+01 
  49651.4642     0.12809E+01 
  49683.7264     0.12737E+01 
  49715.9886     0.12665E+01 
  49748.2507     0.12594E+01 
  49780.5129     0.12523E+01 
  49812.7750     0.12451E+01 
  49845.0372     0.12380E+01 
  49877.2994     0.12309E+01 
  49909.5615     0.12238E+01 
  49941.8237     0.12168E+01 
  49974.0858     0.12097E+01 
  50006.3480     0.12027E+01 
  50038.6102     0.11956E+01 
  50070.8723     0.11886E+01 
  50103.1345     0.11816E+01 
  50135.3966     0.11746E+01 
  50167.6588     0.11677E+01 
  50199.9210     0.11607E+01 
  50232.1831     0.11538E+01 
  50264.4453     0.11469E+01 
  50296.7074     0.11400E+01 
  50328.9696     0.11331E+01 
  50361.2318     0.11262E+01 
  50393.4939     0.11194E+01 
  50425.7561     0.11125E+01 
  50458.0182     0.11057E+01 
  50490.2804     0.10989E+01 
  50522.5426     0.10922E+01 
  50554.8047     0.10854E+01 
  50587.0669     0.10787E+01 
  50619.3290     0.10719E+01 
  50651.5912     0.10652E+01 
  50683.8534     0.10586E+01 
  50716.1155     0.10519E+01 
  50748.3777     0.10452E+01 
  50780.6398     0.10386E+01 
  50812.9020     0.10320E+01 
  50845.1642     0.10254E+01 
  50877.4263     0.10189E+01 
  50909.6885     0.10123E+01 
  50941.9506     0.10058E+01 
  50974.2128     0.99929E+00 
  51006.4750     0.99280E+00 
  51038.7371     0.98634E+00 
  51070.9993     0.97990E+00 
  51103.2614     0.97348E+00 
  51135.5236     0.96708E+00 
  51167.7858     0.96070E+00 
  51200.0479     0.95434E+00 
  51232.3101     0.94800E+00 
  51264.5722     0.94169E+00 
  51296.8344     0.93539E+00 
  51329.0966     0.92912E+00 
  51361.3587     0.92287E+00 
  51393.6209     0.91665E+00 
  51425.8830     0.91044E+00 
  51458.1452     0.90426E+00 
  51490.4074     0.89810E+00 
  51522.6695     0.89196E+00 
  51554.9317     0.88585E+00 
  51587.1938     0.87976E+00 
  51619.4560     0.87369E+00 
  51651.7182     0.86764E+00 
  51683.9803     0.86162E+00 
  51716.2425     0.85562E+00 
  51748.5046     0.84964E+00 
  51780.7668     0.84369E+00 
  51813.0290     0.83776E+00 
  51845.2911     0.83185E+00 
  51877.5533     0.82597E+00 
  51909.8154     0.82011E+00 
  51942.0776     0.81427E+00 
  51974.3398     0.80846E+00 
  52006.6019     0.80267E+00 
  52038.8641     0.79691E+00 
  52071.1262     0.79116E+00 
  52103.3884     0.78545E+00 
  52135.6506     0.77975E+00 
  52167.9127     0.77409E+00 
  52200.1749     0.76844E+00 
  52232.4370     0.76282E+00 
  52264.6992     0.75722E+00 
  52296.9614     0.75165E+00 
  52329.2235     0.74610E+00 
  52361.4857     0.74058E+00 
  52393.7478     0.73508E+00 
  52426.0100     0.72961E+00 
  52458.2722     0.72416E+00 
  52490.5343     0.71873E+00 
  52522.7965     0.71333E+00 
  52555.0586     0.70795E+00 
  52587.3208     0.70260E+00 
  52619.5830     0.69727E+00 
  52651.8451     0.69197E+00 
  52684.1073     0.68669E+00 
  52716.3694     0.68144E+00 
  52748.6316     0.67621E+00 
  52780.8938     0.67100E+00 
  52813.1559     0.66582E+00 
  52845.4181     0.66067E+00 
  52877.6802     0.65554E+00 
  52909.9424     0.65043E+00 
  52942.2046     0.64535E+00 
  52974.4667     0.64030E+00 
  53006.7289     0.63527E+00 
  53038.9910     0.63026E+00 
  53071.2532     0.62528E+00 
  53103.5154     0.62032E+00 
  53135.7775     0.61539E+00 
  53168.0397     0.61048E+00 
  53200.3018     0.60560E+00 
  53232.5640     0.60074E+00 
  53264.8262     0.59591E+00 
  53297.0883     0.59110E+00 
  53329.3505     0.58632E+00 
  53361.6126     0.58156E+00 
  53393.8748     0.57682E+00 
  53426.1370     0.57211E+00 
  53458.3991     0.56743E+00 
  53490.6613     0.56277E+00 
  53522.9234     0.55813E+00 
  53555.1856     0.55352E+00 
  53587.4478     0.54893E+00 
  53619.7099     0.54437E+00 
  53651.9721     0.53983E+00 
  53684.2342     0.53532E+00 
  53716.4964     0.53083E+00 
  53748.7586     0.52637E+00 
  53781.0207     0.52193E+00 
  53813.2829     0.51751E+00 
  53845.5450     0.51312E+00 
  53877.8072     0.50876E+00 
  53910.0694     0.50441E+00 
  53942.3315     0.50009E+00 
  53974.5937     0.49580E+00 
  54006.8558     0.49153E+00 
  54039.1180     0.48728E+00 
  54071.3802     0.48306E+00 
  54103.6423     0.47886E+00 
  54135.9045     0.47469E+00 
  54168.1666     0.47054E+00 
  54200.4288     0.46641E+00 
  54232.6910     0.46231E+00 
  54264.9531     0.45823E+00 
  54297.2153     0.45418E+00 
  54329.4774     0.45015E+00 
  54361.7396     0.44614E+00 
  54394.0018     0.44215E+00 
  54426.2639     0.43819E+00 
  54458.5261     0.43426E+00 
  54490.7882     0.43034E+00 
  54523.0504     0.42645E+00 
  54555.3126     0.42258E+00 
  54587.5747     0.41874E+00 
  54619.8369     0.41492E+00 
  54652.0990     0.41112E+00 
  54684.3612     0.40735E+00 
  54716.6234     0.40360E+00 
  54748.8855     0.39987E+00 
  54781.1477     0.39616E+00 
  54813.4098     0.39248E+00 
  54845.6720     0.38882E+00 
  54877.9342     0.38518E+00 
  54910.1963     0.38156E+00 
  54942.4585     0.37797E+00 
  54974.7206     0.37440E+00 
  55006.9828     0.37085E+00 
  55039.2450     0.36733E+00 
  55071.5071     0.36383E+00 
  55103.7693     0.36034E+00 
  55136.0314     0.35689E+00 
  55168.2936     0.35345E+00 
  55200.5558     0.35003E+00 
  55232.8179     0.34664E+00 
  55265.0801     0.34327E+00 
  55297.3422     0.33992E+00 
  55329.6044     0.33659E+00 
  55361.8666     0.33329E+00 
  55394.1287     0.33000E+00 
  55426.3909     0.32674E+00 
  55458.6530     0.32350E+00 
  55490.9152     0.32028E+00 
  55523.1774     0.31708E+00 
  55555.4395     0.31390E+00 
  55587.7017     0.31074E+00 
  55619.9638     0.30761E+00 
  55652.2260     0.30449E+00 
  55684.4882     0.30140E+00 
  55716.7503     0.29833E+00 
  55749.0125     0.29527E+00 
  55781.2746     0.29224E+00 
  55813.5368     0.28923E+00 
  55845.7990     0.28624E+00 
  55878.0611     0.28327E+00 
  55910.3233     0.28032E+00 
  55942.5854     0.27739E+00 
  55974.8476     0.27448E+00 
  56007.1098     0.27159E+00 
  56039.3719     0.26872E+00 
  56071.6341     0.26587E+00 
  56103.8962     0.26304E+00 
  56136.1584     0.26023E+00 
  56168.4206     0.25744E+00 
  56200.6827     0.25467E+00 
  56232.9449     0.25192E+00 
  56265.2070     0.24918E+00 
  56297.4692     0.24647E+00 
  56329.7314     0.24378E+00 
  56361.9935     0.24110E+00 
  56394.2557     0.23845E+00 
  56426.5178     0.23581E+00 
  56458.7800     0.23319E+00 
  56491.0422     0.23060E+00 
  56523.3043     0.22802E+00 
  56555.5665     0.22545E+00 
  56587.8286     0.22291E+00 
  56620.0908     0.22039E+00 
  56652.3530     0.21788E+00 
  56684.6151     0.21540E+00 
  56716.8773     0.21293E+00 
  56749.1394     0.21048E+00 
  56781.4016     0.20804E+00 
  56813.6638     0.20563E+00 
  56845.9259     0.20323E+00 
  56878.1881     0.20085E+00 
  56910.4502     0.19849E+00 
  56942.7124     0.19615E+00 
  56974.9746     0.19382E+00 
  57007.2367     0.19151E+00 
  57039.4989     0.18922E+00 
  57071.7610     0.18695E+00 
  57104.0232     0.18469E+00 
  57136.2854     0.18245E+00 
  57168.5475     0.18023E+00 
  57200.8097     0.17803E+00 
  57233.0718     0.17584E+00 
  57265.3340     0.17367E+00 
  57297.5962     0.17151E+00 
  57329.8583     0.16938E+00 
  57362.1205     0.16726E+00 
  57394.3826     0.16515E+00 
  57426.6448     0.16306E+00 
  57458.9070     0.16099E+00 
  57491.1691     0.15894E+00 
  57523.4313     0.15690E+00 
  57555.6934     0.15488E+00 
  57587.9556     0.15287E+00 
  57620.2178     0.15088E+00 
  57652.4799     0.14891E+00 
  57684.7421     0.14695E+00 
  57717.0042     0.14501E+00 
  57749.2664     0.14308E+00 
  57781.5286     0.14117E+00 
  57813.7907     0.13927E+00 
  57846.0529     0.13739E+00 
  57878.3150     0.13553E+00 
  57910.5772     0.13368E+00 
  57942.8394     0.13184E+00 
  57975.1015     0.13002E+00 
  58007.3637     0.12822E+00 
  58039.6258     0.12643E+00 
  58071.8880     0.12466E+00 
  58104.1502     0.12290E+00 
  58136.4123     0.12116E+00 
  58168.6745     0.11943E+00 
  58200.9366     0.11771E+00 
  58233.1988     0.11601E+00 
  58265.4610     0.11433E+00 
  58297.7231     0.11266E+00 
  58329.9853     0.11100E+00 
  58362.2474     0.10936E+00 
  58394.5096     0.10773E+00 
  58426.7718     0.10612E+00 
  58459.0339     0.10452E+00 
  58491.2961     0.10293E+00 
  58523.5582     0.10136E+00 
  58555.8204     0.99806E-01 
  58588.0826     0.98263E-01 
  58620.3447     0.96734E-01 
  58652.6069     0.95218E-01 
  58684.8690     0.93717E-01 
  58717.1312     0.92229E-01 
  58749.3934     0.90755E-01 
  58781.6555     0.89294E-01 
  58813.9177     0.87847E-01 
  58846.1798     0.86413E-01 
  58878.4420     0.84992E-01 
  58910.7042     0.83585E-01 
  58942.9663     0.82192E-01 
  58975.2285     0.80811E-01 
  59007.4906     0.79444E-01 
  59039.7528     0.78090E-01 
  59072.0150     0.76748E-01 
  59104.2771     0.75420E-01 
  59136.5393     0.74105E-01 
  59168.8014     0.72803E-01 
  59201.0636     0.71513E-01 
  59233.3258     0.70237E-01 
  59265.5879     0.68973E-01 
  59297.8501     0.67722E-01 
  59330.1122     0.66483E-01 
  59362.3744     0.65257E-01 
  59394.6366     0.64044E-01 
  59426.8987     0.62843E-01 
  59459.1609     0.61655E-01 
  59491.4230     0.60479E-01 
  59523.6852     0.59316E-01 
  59555.9474     0.58165E-01 
  59588.2095     0.57026E-01 
  59620.4717     0.55900E-01 
  59652.7338     0.54786E-01 
  59684.9960     0.53684E-01 
  59717.2582     0.52594E-01 
  59749.5203     0.51517E-01 
  59781.7825     0.50451E-01 
  59814.0446     0.49398E-01 
  59846.3068     0.48356E-01 
  59878.5690     0.47327E-01 
  59910.8311     0.46310E-01 
  59943.0933     0.45304E-01 
  59975.3554     0.44311E-01 
  60007.6176     0.43329E-01 
  60039.8798     0.42360E-01 
  60072.1419     0.41402E-01 
  60104.4041     0.40456E-01 
  60136.6662     0.39522E-01 
  60168.9284     0.38599E-01 
  60201.1906     0.37689E-01 
  60233.4527     0.36790E-01 
  60265.7149     0.35903E-01 
  60297.9770     0.35027E-01 
  60330.2392     0.34164E-01 
  60362.5014     0.33312E-01 
  60394.7635     0.32471E-01 
  60427.0257     0.31643E-01 
  60459.2878     0.30826E-01 
  60491.5500     0.30021E-01 
  60523.8122     0.29227E-01 
  60556.0743     0.28445E-01 
  60588.3365     0.27674E-01 
  60620.5986     0.26916E-01 
  60652.8608     0.26169E-01 
  60685.1230     0.25433E-01 
  60717.3851     0.24709E-01 
  60749.6473     0.23997E-01 
  60781.9094     0.23296E-01 
  60814.1716     0.22608E-01 
  60846.4338     0.21930E-01 
  60878.6959     0.21265E-01 
  60910.9581     0.20611E-01 
  60943.2202     0.19969E-01 
  60975.4824     0.19338E-01 
  61007.7446     0.18720E-01 
  61040.0067     0.18113E-01 
  61072.2689     0.17517E-01 
  61104.5310     0.16934E-01 
  61136.7932     0.16362E-01 
  61169.0554     0.15803E-01 
  61201.3175     0.15255E-01 
  61233.5797     0.14719E-01 
  61265.8418     0.14195E-01 
  61298.1040     0.13682E-01 
  61330.3662     0.13182E-01 
  61362.6283     0.12694E-01 
  61394.8905     0.12218E-01 
  61427.1526     0.11754E-01 
  61459.4148     0.11303E-01 
  61491.6770     0.10863E-01 
  61523.9391     0.10436E-01 
  61556.2013     0.10021E-01 
  61588.4634     0.96184E-02 
  61620.7256     0.92282E-02 
  61652.9878     0.88505E-02 
  61685.2499     0.84854E-02 
  61717.5121     0.81328E-02 
  61749.7742     0.77929E-02 
  61782.0364     0.74657E-02 
  61814.2986     0.71514E-02 
  61846.5607     0.68499E-02 
  61878.8229     0.65613E-02 
  61911.0850     0.62858E-02 
  61943.3472     0.60234E-02 
  61975.6094     0.57742E-02 
  62007.8715     0.55383E-02 
  62040.1337     0.53157E-02 
  62072.3958     0.51066E-02 
  62104.6580     0.49110E-02 
  62136.9202     0.47291E-02 
  62169.1823     0.45610E-02 
  62201.4445     0.44067E-02 
  62233.7066     0.42664E-02 
  62265.9688     0.41401E-02 
  62298.2310     0.40281E-02 
  62330.4931     0.39304E-02 
  62362.7553     0.38471E-02 
  62395.0174     0.37783E-02 
  62427.2796     0.37243E-02 
  62459.5418     0.36850E-02 
  62491.8039     0.36608E-02 
  62524.0661     0.36516E-02 
  62556.3282     0.36576E-02 
  62588.5904     0.36791E-02 
  62620.8526     0.37160E-02 
  62653.1147     0.37687E-02 
  62685.3769     0.38372E-02 
  62717.6390     0.39217E-02 
  62749.9012     0.40224E-02 
  62782.1634     0.41395E-02 
  62814.4255     0.42731E-02 
  62846.6877     0.44233E-02 
  62878.9498     0.45905E-02 
  62911.2120     0.47748E-02 
  62943.4742     0.49763E-02 
  62975.7363     0.51954E-02 
  63007.9985     0.54320E-02 
  63040.2606     0.56866E-02 
  63072.5228     0.59593E-02 
  63104.7850     0.62503E-02 
  63137.0471     0.65599E-02 
  63169.3093     0.68882E-02 
  63201.5714     0.72356E-02 
  63233.8336     0.76021E-02 
  63266.0958     0.79882E-02 
  63298.3579     0.83940E-02 
  63330.6201     0.88199E-02 
  63362.8822     0.92660E-02 
  63395.1444     0.97326E-02 
  63427.4066     0.10220E-01 
  63459.6687     0.10729E-01 
  63491.9309     0.11258E-01 
  63524.1930     0.11810E-01 
  63556.4552     0.12383E-01 
  63588.7174     0.12979E-01 
  63620.9795     0.13598E-01 
  63653.2417     0.14239E-01 
  63685.5038     0.14903E-01 
  63717.7660     0.15591E-01 
  63750.0282     0.16303E-01 
  63782.2903     0.17040E-01 
  63814.5525     0.17800E-01 
  63846.8146     0.18586E-01 
  63879.0768     0.19397E-01 
  63911.3390     0.20234E-01 
  63943.6011     0.21097E-01 
  63975.8633     0.21987E-01 
  64008.1254     0.22903E-01 
  64040.3876     0.23846E-01 
  64072.6498     0.24818E-01 
  64104.9119     0.25817E-01 
  64137.1741     0.26845E-01 
  64169.4362     0.27902E-01 
  64201.6984     0.28989E-01 
  64233.9606     0.30105E-01 
  64266.2227     0.31252E-01 
  64298.4849     0.32430E-01 
  64330.7470     0.33639E-01 
  64363.0092     0.34880E-01 
  64395.2714     0.36153E-01 
  64427.5335     0.37459E-01 
  64459.7957     0.38799E-01 
  64492.0578     0.40172E-01 
  64524.3200     0.41580E-01 
  64556.5822     0.43023E-01 
  64588.8443     0.44502E-01 
  64621.1065     0.46017E-01 
  64653.3686     0.47569E-01 
  64685.6308     0.49158E-01 
  64717.8930     0.50785E-01 
  64750.1551     0.52450E-01 
  64782.4173     0.54155E-01 
  64814.6794     0.55900E-01 
  64846.9416     0.57685E-01 
  64879.2038     0.59512E-01 
  64911.4659     0.61381E-01 
  64943.7281     0.63292E-01 
  64975.9902     0.65246E-01 
  65008.2524     0.67244E-01 
  65040.5146     0.69288E-01 
  65072.7767     0.71376E-01 
  65105.0389     0.73511E-01 
  65137.3010     0.75693E-01 
  65169.5632     0.77923E-01 
  65201.8254     0.80201E-01 
  65234.0875     0.82529E-01 
  65266.3497     0.84907E-01 
  65298.6118     0.87336E-01 
  65330.8740     0.89817E-01 
  65363.1362     0.92351E-01 
  65395.3983     0.94939E-01 
  65427.6605     0.97581E-01 
  65459.9226     0.10028E+00 
  65492.1848     0.10303E+00 
  65524.4470     0.10584E+00 
  65556.7091     0.10871E+00 
  65588.9713     0.11164E+00 
  65621.2334     0.11463E+00 
  65653.4956     0.11768E+00 
  65685.7578     0.12080E+00 
  65718.0199     0.12397E+00 
  65750.2821     0.12721E+00 
  65782.5442     0.13052E+00 
  65814.8064     0.13389E+00 
  65847.0686     0.13733E+00 
  65879.3307     0.14084E+00 
  65911.5929     0.14442E+00 
  65943.8550     0.14807E+00 
  65976.1172     0.15180E+00 
  66008.3794     0.15559E+00 
  66040.6415     0.15946E+00 
  66072.9037     0.16341E+00 
  66105.1658     0.16743E+00 
  66137.4280     0.17154E+00 
  66169.6902     0.17572E+00 
  66201.9523     0.17998E+00 
  66234.2145     0.18433E+00 
  66266.4766     0.18876E+00 
  66298.7388     0.19328E+00 
  66331.0010     0.19788E+00 
  66363.2631     0.20257E+00 
  66395.5253     0.20735E+00 
  66427.7874     0.21222E+00 
  66460.0496     0.21718E+00 
  66492.3118     0.22223E+00 
  66524.5739     0.22739E+00 
  66556.8361     0.23263E+00 
  66589.0982     0.23798E+00 
  66621.3604     0.24343E+00 
  66653.6226     0.24898E+00 
  66685.8847     0.25463E+00 
  66718.1469     0.26038E+00 
  66750.4090     0.26625E+00 
  66782.6712     0.27222E+00 
  66814.9334     0.27830E+00 
  66847.1955     0.28449E+00 
  66879.4577     0.29080E+00 
  66911.7198     0.29722E+00 
  66943.9820     0.30376E+00 
  66976.2442     0.31042E+00 
  67008.5063     0.31720E+00 
  67040.7685     0.32410E+00 
  67073.0306     0.33113E+00 
  67105.2928     0.33828E+00 
  67137.5550     0.34556E+00 
  67169.8171     0.35297E+00 
  67202.0793     0.36051E+00 
  67234.3414     0.36819E+00 
  67266.6036     0.37601E+00 
  67298.8658     0.38396E+00 
  67331.1279     0.39206E+00 
  67363.3901     0.40029E+00 
  67395.6522     0.40867E+00 
  67427.9144     0.41720E+00 
  67460.1766     0.42588E+00 
  67492.4387     0.43471E+00 
  67524.7009     0.44370E+00 
  67556.9630     0.45284E+00 
  67589.2252     0.46213E+00 
  67621.4874     0.47159E+00 
  67653.7495     0.48122E+00 
  67686.0117     0.49100E+00 
  67718.2738     0.50096E+00 
  67750.5360     0.51109E+00 
  67782.7982     0.52139E+00 
  67815.0603     0.53186E+00 
  67847.3225     0.54251E+00 
  67879.5846     0.55335E+00 
  67911.8468     0.56436E+00 
  67944.1090     0.57556E+00 
  67976.3711     0.58695E+00 
  68008.6333     0.59853E+00 
  68040.8954     0.61031E+00 
  68073.1576     0.62228E+00 
  68105.4198     0.63445E+00 
  68137.6819     0.64682E+00 
  68169.9441     0.65939E+00 
  68202.2062     0.67218E+00 
  68234.4684     0.68517E+00 
  68266.7306     0.69838E+00 
  68298.9927     0.71180E+00 
  68331.2549     0.72544E+00 
  68363.5170     0.73930E+00 
  68395.7792     0.75339E+00 
  68428.0414     0.76771E+00 
  68460.3035     0.78225E+00 
  68492.5657     0.79703E+00 
  68524.8278     0.81205E+00 
  68557.0900     0.82731E+00 
  68589.3522     0.84281E+00 
  68621.6143     0.85856E+00 
  68653.8765     0.87455E+00 
  68686.1386     0.89080E+00 
  68718.4008     0.90731E+00 
  68750.6630     0.92407E+00 
  68782.9251     0.94110E+00 
  68815.1873     0.95839E+00 
  68847.4494     0.97595E+00 
  68879.7116     0.99379E+00 
  68911.9738     0.10119E+01 
  68944.2359     0.10303E+01 
  68976.4981     0.10490E+01 
  69008.7602     0.10679E+01 
  69041.0224     0.10872E+01 
  69073.2846     0.11067E+01 
  69105.5467     0.11265E+01 
  69137.8089     0.11467E+01 
  69170.0710     0.11671E+01 
  69202.3332     0.11879E+01 
  69234.5954     0.12089E+01 
  69266.8575     0.12303E+01 
  69299.1197     0.12520E+01 
  69331.3818     0.12740E+01 
  69363.6440     0.12964E+01 
  69395.9062     0.13190E+01 
  69428.1683     0.13420E+01 
  69460.4305     0.13654E+01 
  69492.6926     0.13891E+01 
  69524.9548     0.14131E+01 
  69557.2170     0.14375E+01 
  69589.4791     0.14622E+01 
  69621.7413     0.14873E+01 
  69654.0034     0.15127E+01 
  69686.2656     0.15385E+01 
  69718.5278     0.15647E+01 
  69750.7899     0.15912E+01 
  69783.0521     0.16181E+01 
  69815.3142     0.16454E+01 
  69847.5764     0.16731E+01 
  69879.8386     0.17012E+01 
  69912.1007     0.17296E+01 
  69944.3629     0.17585E+01 
  69976.6250     0.17878E+01 
  70008.8872     0.18174E+01 
  70041.1494     0.18475E+01 
  70073.4115     0.18779E+01 
  70105.6737     0.19088E+01 
  70137.9358     0.19401E+01 
  70170.1980     0.19719E+01 
  70202.4602     0.20040E+01 
  70234.7223     0.20366E+01 
  70266.9845     0.20697E+01 
  70299.2466     0.21031E+01 
  70331.5088     0.21370E+01 
  70363.7710     0.21714E+01 
  70396.0331     0.22062E+01 
  70428.2953     0.22415E+01 
  70460.5574     0.22772E+01 
  70492.8196     0.23134E+01 
  70525.0818     0.23501E+01 
  70557.3439     0.23872E+01 
  70589.6061     0.24248E+01 
  70621.8682     0.24629E+01 
  70654.1304     0.25015E+01 
  70686.3926     0.25405E+01 
  70718.6547     0.25801E+01 
  70750.9169     0.26201E+01 
  70783.1790     0.26607E+01 
  70815.4412     0.27017E+01 
  70847.7034     0.27433E+01 
  70879.9655     0.27854E+01 
  70912.2277     0.28280E+01 
  70944.4898     0.28711E+01 
  70976.7520     0.29147E+01 
  71009.0142     0.29589E+01 
  71041.2763     0.30036E+01 
  71073.5385     0.30489E+01 
  71105.8006     0.30947E+01 
  71138.0628     0.31410E+01 
  71170.3250     0.31879E+01 
  71202.5871     0.32353E+01 
  71234.8493     0.32833E+01 
  71267.1114     0.33319E+01 
  71299.3736     0.33810E+01 
  71331.6358     0.34307E+01 
  71363.8979     0.34809E+01 
  71396.1601     0.35318E+01 
  71428.4222     0.35832E+01 
  71460.6844     0.36352E+01 
  71492.9466     0.36878E+01 
  71525.2087     0.37409E+01 
  71557.4709     0.37947E+01 
  71589.7330     0.38491E+01 
  71621.9952     0.39040E+01 
  71654.2574     0.39596E+01 
  71686.5195     0.40158E+01 
  71718.7817     0.40726E+01 
  71751.0438     0.41300E+01 
  71783.3060     0.41881E+01 
  71815.5682     0.42467E+01 
  71847.8303     0.43060E+01 
  71880.0925     0.43659E+01 
  71912.3546     0.44265E+01 
  71944.6168     0.44877E+01 
  71976.8790     0.45495E+01 
  72009.1411     0.46120E+01 
  72041.4033     0.46751E+01 
  72073.6654     0.47388E+01 
  72105.9276     0.48033E+01 
  72138.1898     0.48683E+01 
  72170.4519     0.49341E+01 
  72202.7141     0.50004E+01 
  72234.9762     0.50675E+01 
  72267.2384     0.51352E+01 
  72299.5006     0.52036E+01 
  72331.7627     0.52727E+01 
  72364.0249     0.53424E+01 
  72396.2870     0.54128E+01 
  72428.5492     0.54839E+01 
  72460.8114     0.55557E+01 
  72493.0735     0.56281E+01 
  72525.3357     0.57013E+01 
  72557.5978     0.57751E+01 
  72589.8600     0.58496E+01 
