  32262.1600     0.37723E+00 
  32294.4222     0.38235E+00 
  32326.6843     0.38753E+00 
  32358.9465     0.39275E+00 
  32391.2086     0.39802E+00 
  32423.4708     0.40335E+00 
  32455.7330     0.40872E+00 
  32487.9951     0.41414E+00 
  32520.2573     0.41962E+00 
  32552.5194     0.42514E+00 
  32584.7816     0.43071E+00 
  32617.0438     0.43634E+00 
  32649.3059     0.44201E+00 
  32681.5681     0.44774E+00 
  32713.8302     0.45351E+00 
  32746.0924     0.45934E+00 
  32778.3546     0.46521E+00 
  32810.6167     0.47114E+00 
  32842.8789     0.47712E+00 
  32875.1410     0.48315E+00 
  32907.4032     0.48923E+00 
  32939.6654     0.49536E+00 
  32971.9275     0.50154E+00 
  33004.1897     0.50777E+00 
  33036.4518     0.51405E+00 
  33068.7140     0.52038E+00 
  33100.9762     0.52677E+00 
  33133.2383     0.53320E+00 
  33165.5005     0.53969E+00 
  33197.7626     0.54622E+00 
  33230.0248     0.55281E+00 
  33262.2870     0.55945E+00 
  33294.5491     0.56614E+00 
  33326.8113     0.57287E+00 
  33359.0734     0.57966E+00 
  33391.3356     0.58650E+00 
  33423.5978     0.59339E+00 
  33455.8599     0.60033E+00 
  33488.1221     0.60732E+00 
  33520.3842     0.61436E+00 
  33552.6464     0.62145E+00 
  33584.9086     0.62858E+00 
  33617.1707     0.63577E+00 
  33649.4329     0.64301E+00 
  33681.6950     0.65029E+00 
  33713.9572     0.65763E+00 
  33746.2194     0.66501E+00 
  33778.4815     0.67244E+00 
  33810.7437     0.67993E+00 
  33843.0058     0.68745E+00 
  33875.2680     0.69503E+00 
  33907.5302     0.70266E+00 
  33939.7923     0.71033E+00 
  33972.0545     0.71805E+00 
  34004.3166     0.72582E+00 
  34036.5788     0.73363E+00 
  34068.8410     0.74149E+00 
  34101.1031     0.74940E+00 
  34133.3653     0.75735E+00 
  34165.6274     0.76535E+00 
  34197.8896     0.77339E+00 
  34230.1518     0.78148E+00 
  34262.4139     0.78962E+00 
  34294.6761     0.79780E+00 
  34326.9382     0.80602E+00 
  34359.2004     0.81429E+00 
  34391.4626     0.82260E+00 
  34423.7247     0.83096E+00 
  34455.9869     0.83935E+00 
  34488.2490     0.84779E+00 
  34520.5112     0.85628E+00 
  34552.7734     0.86480E+00 
  34585.0355     0.87337E+00 
  34617.2977     0.88197E+00 
  34649.5598     0.89062E+00 
  34681.8220     0.89931E+00 
  34714.0842     0.90803E+00 
  34746.3463     0.91680E+00 
  34778.6085     0.92561E+00 
  34810.8706     0.93445E+00 
  34843.1328     0.94333E+00 
  34875.3950     0.95225E+00 
  34907.6571     0.96121E+00 
  34939.9193     0.97020E+00 
  34972.1814     0.97923E+00 
  35004.4436     0.98830E+00 
  35036.7058     0.99740E+00 
  35068.9679     0.10065E+01 
  35101.2301     0.10157E+01 
  35133.4922     0.10249E+01 
  35165.7544     0.10341E+01 
  35198.0166     0.10434E+01 
  35230.2787     0.10527E+01 
  35262.5409     0.10620E+01 
  35294.8030     0.10714E+01 
  35327.0652     0.10808E+01 
  35359.3274     0.10902E+01 
  35391.5895     0.10997E+01 
  35423.8517     0.11092E+01 
  35456.1138     0.11187E+01 
  35488.3760     0.11282E+01 
  35520.6382     0.11378E+01 
  35552.9003     0.11474E+01 
  35585.1625     0.11570E+01 
  35617.4246     0.11666E+01 
  35649.6868     0.11763E+01 
  35681.9490     0.11860E+01 
  35714.2111     0.11957E+01 
  35746.4733     0.12054E+01 
  35778.7354     0.12152E+01 
  35810.9976     0.12249E+01 
  35843.2598     0.12347E+01 
  35875.5219     0.12445E+01 
  35907.7841     0.12544E+01 
  35940.0462     0.12642E+01 
  35972.3084     0.12741E+01 
  36004.5706     0.12840E+01 
  36036.8327     0.12939E+01 
  36069.0949     0.13038E+01 
  36101.3570     0.13137E+01 
  36133.6192     0.13237E+01 
  36165.8814     0.13336E+01 
  36198.1435     0.13436E+01 
  36230.4057     0.13536E+01 
  36262.6678     0.13636E+01 
  36294.9300     0.13736E+01 
  36327.1922     0.13836E+01 
  36359.4543     0.13936E+01 
  36391.7165     0.14037E+01 
  36423.9786     0.14137E+01 
  36456.2408     0.14237E+01 
  36488.5030     0.14338E+01 
  36520.7651     0.14438E+01 
  36553.0273     0.14539E+01 
  36585.2894     0.14640E+01 
  36617.5516     0.14740E+01 
  36649.8138     0.14841E+01 
  36682.0759     0.14942E+01 
  36714.3381     0.15042E+01 
  36746.6002     0.15143E+01 
  36778.8624     0.15244E+01 
  36811.1246     0.15344E+01 
  36843.3867     0.15445E+01 
  36875.6489     0.15545E+01 
  36907.9110     0.15646E+01 
  36940.1732     0.15746E+01 
  36972.4354     0.15847E+01 
  37004.6975     0.15947E+01 
  37036.9597     0.16047E+01 
  37069.2218     0.16147E+01 
  37101.4840     0.16247E+01 
  37133.7462     0.16347E+01 
  37166.0083     0.16447E+01 
  37198.2705     0.16547E+01 
  37230.5326     0.16646E+01 
  37262.7948     0.16746E+01 
  37295.0570     0.16845E+01 
  37327.3191     0.16944E+01 
  37359.5813     0.17043E+01 
  37391.8434     0.17142E+01 
  37424.1056     0.17240E+01 
  37456.3678     0.17339E+01 
  37488.6299     0.17437E+01 
  37520.8921     0.17535E+01 
  37553.1542     0.17633E+01 
  37585.4164     0.17730E+01 
  37617.6786     0.17828E+01 
  37649.9407     0.17925E+01 
  37682.2029     0.18022E+01 
  37714.4650     0.18118E+01 
  37746.7272     0.18215E+01 
  37778.9894     0.18311E+01 
  37811.2515     0.18406E+01 
  37843.5137     0.18502E+01 
  37875.7758     0.18597E+01 
  37908.0380     0.18692E+01 
  37940.3002     0.18786E+01 
  37972.5623     0.18881E+01 
  38004.8245     0.18974E+01 
  38037.0866     0.19068E+01 
  38069.3488     0.19161E+01 
  38101.6110     0.19254E+01 
  38133.8731     0.19347E+01 
  38166.1353     0.19439E+01 
  38198.3974     0.19530E+01 
  38230.6596     0.19622E+01 
  38262.9218     0.19713E+01 
  38295.1839     0.19803E+01 
  38327.4461     0.19893E+01 
  38359.7082     0.19983E+01 
  38391.9704     0.20072E+01 
  38424.2326     0.20161E+01 
  38456.4947     0.20249E+01 
  38488.7569     0.20337E+01 
  38521.0190     0.20425E+01 
  38553.2812     0.20512E+01 
  38585.5434     0.20598E+01 
  38617.8055     0.20685E+01 
  38650.0677     0.20770E+01 
  38682.3298     0.20855E+01 
  38714.5920     0.20940E+01 
  38746.8542     0.21024E+01 
  38779.1163     0.21107E+01 
  38811.3785     0.21190E+01 
  38843.6406     0.21273E+01 
  38875.9028     0.21355E+01 
  38908.1650     0.21436E+01 
  38940.4271     0.21517E+01 
  38972.6893     0.21597E+01 
  39004.9514     0.21677E+01 
  39037.2136     0.21756E+01 
  39069.4758     0.21835E+01 
  39101.7379     0.21913E+01 
  39134.0001     0.21990E+01 
  39166.2622     0.22067E+01 
  39198.5244     0.22143E+01 
  39230.7866     0.22218E+01 
  39263.0487     0.22293E+01 
  39295.3109     0.22368E+01 
  39327.5730     0.22441E+01 
  39359.8352     0.22514E+01 
  39392.0974     0.22587E+01 
  39424.3595     0.22658E+01 
  39456.6217     0.22729E+01 
  39488.8838     0.22800E+01 
  39521.1460     0.22869E+01 
  39553.4082     0.22938E+01 
  39585.6703     0.23007E+01 
  39617.9325     0.23074E+01 
  39650.1946     0.23141E+01 
  39682.4568     0.23208E+01 
  39714.7190     0.23273E+01 
  39746.9811     0.23338E+01 
  39779.2433     0.23402E+01 
  39811.5054     0.23466E+01 
  39843.7676     0.23528E+01 
  39876.0298     0.23590E+01 
  39908.2919     0.23651E+01 
  39940.5541     0.23712E+01 
  39972.8162     0.23772E+01 
  40005.0784     0.23831E+01 
  40037.3406     0.23889E+01 
  40069.6027     0.23946E+01 
  40101.8649     0.24003E+01 
  40134.1270     0.24059E+01 
  40166.3892     0.24114E+01 
  40198.6514     0.24169E+01 
  40230.9135     0.24222E+01 
  40263.1757     0.24275E+01 
  40295.4378     0.24327E+01 
  40327.7000     0.24379E+01 
  40359.9622     0.24429E+01 
  40392.2243     0.24479E+01 
  40424.4865     0.24528E+01 
  40456.7486     0.24576E+01 
  40489.0108     0.24623E+01 
  40521.2730     0.24669E+01 
  40553.5351     0.24715E+01 
  40585.7973     0.24760E+01 
  40618.0594     0.24804E+01 
  40650.3216     0.24847E+01 
  40682.5838     0.24889E+01 
  40714.8459     0.24931E+01 
  40747.1081     0.24971E+01 
  40779.3702     0.25011E+01 
  40811.6324     0.25050E+01 
  40843.8946     0.25088E+01 
  40876.1567     0.25126E+01 
  40908.4189     0.25162E+01 
  40940.6810     0.25198E+01 
  40972.9432     0.25233E+01 
  41005.2054     0.25267E+01 
  41037.4675     0.25300E+01 
  41069.7297     0.25332E+01 
  41101.9918     0.25363E+01 
  41134.2540     0.25394E+01 
  41166.5162     0.25424E+01 
  41198.7783     0.25452E+01 
  41231.0405     0.25480E+01 
  41263.3026     0.25507E+01 
  41295.5648     0.25534E+01 
  41327.8270     0.25559E+01 
  41360.0891     0.25584E+01 
  41392.3513     0.25607E+01 
  41424.6134     0.25630E+01 
  41456.8756     0.25652E+01 
  41489.1378     0.25673E+01 
  41521.3999     0.25693E+01 
  41553.6621     0.25712E+01 
  41585.9242     0.25731E+01 
  41618.1864     0.25748E+01 
  41650.4486     0.25765E+01 
  41682.7107     0.25781E+01 
  41714.9729     0.25796E+01 
  41747.2350     0.25810E+01 
  41779.4972     0.25823E+01 
  41811.7594     0.25836E+01 
  41844.0215     0.25847E+01 
  41876.2837     0.25858E+01 
  41908.5458     0.25868E+01 
  41940.8080     0.25876E+01 
  41973.0702     0.25884E+01 
  42005.3323     0.25892E+01 
  42037.5945     0.25898E+01 
  42069.8566     0.25903E+01 
  42102.1188     0.25908E+01 
  42134.3810     0.25912E+01 
  42166.6431     0.25915E+01 
  42198.9053     0.25917E+01 
  42231.1674     0.25918E+01 
  42263.4296     0.25918E+01 
  42295.6918     0.25918E+01 
  42327.9539     0.25916E+01 
  42360.2161     0.25914E+01 
  42392.4782     0.25911E+01 
  42424.7404     0.25907E+01 
  42457.0026     0.25902E+01 
  42489.2647     0.25897E+01 
  42521.5269     0.25890E+01 
  42553.7890     0.25883E+01 
  42586.0512     0.25875E+01 
  42618.3134     0.25866E+01 
  42650.5755     0.25857E+01 
  42682.8377     0.25846E+01 
  42715.0998     0.25835E+01 
  42747.3620     0.25822E+01 
  42779.6242     0.25809E+01 
  42811.8863     0.25796E+01 
  42844.1485     0.25781E+01 
  42876.4106     0.25765E+01 
  42908.6728     0.25749E+01 
  42940.9350     0.25732E+01 
  42973.1971     0.25714E+01 
  43005.4593     0.25696E+01 
  43037.7214     0.25676E+01 
  43069.9836     0.25656E+01 
  43102.2458     0.25635E+01 
  43134.5079     0.25613E+01 
  43166.7701     0.25591E+01 
  43199.0322     0.25567E+01 
  43231.2944     0.25543E+01 
  43263.5566     0.25518E+01 
  43295.8187     0.25493E+01 
  43328.0809     0.25466E+01 
  43360.3430     0.25439E+01 
  43392.6052     0.25411E+01 
  43424.8674     0.25383E+01 
  43457.1295     0.25353E+01 
  43489.3917     0.25323E+01 
  43521.6538     0.25292E+01 
  43553.9160     0.25261E+01 
  43586.1782     0.25229E+01 
  43618.4403     0.25196E+01 
  43650.7025     0.25162E+01 
  43682.9646     0.25127E+01 
  43715.2268     0.25092E+01 
  43747.4890     0.25056E+01 
  43779.7511     0.25020E+01 
  43812.0133     0.24983E+01 
  43844.2754     0.24945E+01 
  43876.5376     0.24906E+01 
  43908.7998     0.24867E+01 
  43941.0619     0.24827E+01 
  43973.3241     0.24786E+01 
  44005.5862     0.24745E+01 
  44037.8484     0.24703E+01 
  44070.1106     0.24660E+01 
  44102.3727     0.24617E+01 
  44134.6349     0.24573E+01 
  44166.8970     0.24529E+01 
  44199.1592     0.24483E+01 
  44231.4214     0.24438E+01 
  44263.6835     0.24391E+01 
  44295.9457     0.24344E+01 
  44328.2078     0.24296E+01 
  44360.4700     0.24248E+01 
  44392.7322     0.24199E+01 
  44424.9943     0.24150E+01 
  44457.2565     0.24100E+01 
  44489.5186     0.24049E+01 
  44521.7808     0.23998E+01 
  44554.0430     0.23946E+01 
  44586.3051     0.23894E+01 
  44618.5673     0.23841E+01 
  44650.8294     0.23787E+01 
  44683.0916     0.23733E+01 
  44715.3538     0.23679E+01 
  44747.6159     0.23624E+01 
  44779.8781     0.23568E+01 
  44812.1402     0.23512E+01 
  44844.4024     0.23455E+01 
  44876.6646     0.23398E+01 
  44908.9267     0.23340E+01 
  44941.1889     0.23282E+01 
  44973.4510     0.23223E+01 
  45005.7132     0.23164E+01 
  45037.9754     0.23104E+01 
  45070.2375     0.23044E+01 
  45102.4997     0.22983E+01 
  45134.7618     0.22922E+01 
  45167.0240     0.22860E+01 
  45199.2862     0.22798E+01 
  45231.5483     0.22736E+01 
  45263.8105     0.22673E+01 
  45296.0726     0.22609E+01 
  45328.3348     0.22546E+01 
  45360.5970     0.22481E+01 
  45392.8591     0.22417E+01 
  45425.1213     0.22351E+01 
  45457.3834     0.22286E+01 
  45489.6456     0.22220E+01 
  45521.9078     0.22153E+01 
  45554.1699     0.22087E+01 
  45586.4321     0.22020E+01 
  45618.6942     0.21952E+01 
  45650.9564     0.21884E+01 
  45683.2186     0.21816E+01 
  45715.4807     0.21747E+01 
  45747.7429     0.21678E+01 
  45780.0050     0.21609E+01 
  45812.2672     0.21539E+01 
  45844.5294     0.21469E+01 
  45876.7915     0.21399E+01 
  45909.0537     0.21328E+01 
  45941.3158     0.21257E+01 
  45973.5780     0.21185E+01 
  46005.8402     0.21114E+01 
  46038.1023     0.21042E+01 
  46070.3645     0.20969E+01 
  46102.6266     0.20897E+01 
  46134.8888     0.20824E+01 
  46167.1510     0.20751E+01 
  46199.4131     0.20677E+01 
  46231.6753     0.20604E+01 
  46263.9374     0.20530E+01 
  46296.1996     0.20455E+01 
  46328.4618     0.20381E+01 
  46360.7239     0.20306E+01 
  46392.9861     0.20231E+01 
  46425.2482     0.20156E+01 
  46457.5104     0.20080E+01 
  46489.7726     0.20005E+01 
  46522.0347     0.19929E+01 
  46554.2969     0.19853E+01 
  46586.5590     0.19776E+01 
  46618.8212     0.19700E+01 
  46651.0834     0.19623E+01 
  46683.3455     0.19546E+01 
  46715.6077     0.19469E+01 
  46747.8698     0.19392E+01 
  46780.1320     0.19314E+01 
  46812.3942     0.19236E+01 
  46844.6563     0.19159E+01 
  46876.9185     0.19081E+01 
  46909.1806     0.19002E+01 
  46941.4428     0.18924E+01 
  46973.7050     0.18846E+01 
  47005.9671     0.18767E+01 
  47038.2293     0.18688E+01 
  47070.4914     0.18610E+01 
  47102.7536     0.18531E+01 
  47135.0158     0.18451E+01 
  47167.2779     0.18372E+01 
  47199.5401     0.18293E+01 
  47231.8022     0.18214E+01 
  47264.0644     0.18134E+01 
  47296.3266     0.18054E+01 
  47328.5887     0.17975E+01 
  47360.8509     0.17895E+01 
  47393.1130     0.17815E+01 
  47425.3752     0.17735E+01 
  47457.6374     0.17655E+01 
  47489.8995     0.17575E+01 
  47522.1617     0.17495E+01 
  47554.4238     0.17415E+01 
  47586.6860     0.17335E+01 
  47618.9482     0.17254E+01 
  47651.2103     0.17174E+01 
  47683.4725     0.17094E+01 
  47715.7346     0.17013E+01 
  47747.9968     0.16933E+01 
  47780.2590     0.16852E+01 
  47812.5211     0.16772E+01 
  47844.7833     0.16691E+01 
  47877.0454     0.16611E+01 
  47909.3076     0.16531E+01 
  47941.5698     0.16450E+01 
  47973.8319     0.16370E+01 
  48006.0941     0.16289E+01 
  48038.3562     0.16209E+01 
  48070.6184     0.16128E+01 
  48102.8806     0.16048E+01 
  48135.1427     0.15967E+01 
  48167.4049     0.15887E+01 
  48199.6670     0.15807E+01 
  48231.9292     0.15727E+01 
  48264.1914     0.15646E+01 
  48296.4535     0.15566E+01 
  48328.7157     0.15486E+01 
  48360.9778     0.15406E+01 
  48393.2400     0.15326E+01 
  48425.5022     0.15246E+01 
  48457.7643     0.15166E+01 
  48490.0265     0.15086E+01 
  48522.2886     0.15007E+01 
  48554.5508     0.14927E+01 
  48586.8130     0.14847E+01 
  48619.0751     0.14768E+01 
  48651.3373     0.14688E+01 
  48683.5994     0.14609E+01 
  48715.8616     0.14530E+01 
  48748.1238     0.14451E+01 
  48780.3859     0.14372E+01 
  48812.6481     0.14293E+01 
  48844.9102     0.14214E+01 
  48877.1724     0.14135E+01 
  48909.4346     0.14057E+01 
  48941.6967     0.13978E+01 
  48973.9589     0.13900E+01 
  49006.2210     0.13822E+01 
  49038.4832     0.13744E+01 
  49070.7454     0.13666E+01 
  49103.0075     0.13588E+01 
  49135.2697     0.13511E+01 
  49167.5318     0.13433E+01 
  49199.7940     0.13356E+01 
  49232.0562     0.13278E+01 
  49264.3183     0.13201E+01 
  49296.5805     0.13124E+01 
  49328.8426     0.13048E+01 
  49361.1048     0.12971E+01 
  49393.3670     0.12895E+01 
  49425.6291     0.12818E+01 
  49457.8913     0.12742E+01 
  49490.1534     0.12666E+01 
  49522.4156     0.12591E+01 
  49554.6778     0.12515E+01 
  49586.9399     0.12440E+01 
  49619.2021     0.12364E+01 
  49651.4642     0.12289E+01 
  49683.7264     0.12215E+01 
  49715.9886     0.12140E+01 
  49748.2507     0.12065E+01 
  49780.5129     0.11991E+01 
  49812.7750     0.11917E+01 
  49845.0372     0.11843E+01 
  49877.2994     0.11770E+01 
  49909.5615     0.11696E+01 
  49941.8237     0.11623E+01 
  49974.0858     0.11550E+01 
  50006.3480     0.11477E+01 
  50038.6102     0.11404E+01 
  50070.8723     0.11332E+01 
  50103.1345     0.11259E+01 
  50135.3966     0.11187E+01 
  50167.6588     0.11116E+01 
  50199.9210     0.11044E+01 
  50232.1831     0.10973E+01 
  50264.4453     0.10902E+01 
  50296.7074     0.10831E+01 
  50328.9696     0.10760E+01 
  50361.2318     0.10690E+01 
  50393.4939     0.10619E+01 
  50425.7561     0.10549E+01 
  50458.0182     0.10480E+01 
  50490.2804     0.10410E+01 
  50522.5426     0.10341E+01 
  50554.8047     0.10272E+01 
  50587.0669     0.10203E+01 
  50619.3290     0.10134E+01 
  50651.5912     0.10066E+01 
  50683.8534     0.99981E+00 
  50716.1155     0.99303E+00 
  50748.3777     0.98627E+00 
  50780.6398     0.97954E+00 
  50812.9020     0.97283E+00 
  50845.1642     0.96615E+00 
  50877.4263     0.95949E+00 
  50909.6885     0.95286E+00 
  50941.9506     0.94625E+00 
  50974.2128     0.93967E+00 
  51006.4750     0.93311E+00 
  51038.7371     0.92658E+00 
  51070.9993     0.92008E+00 
  51103.2614     0.91360E+00 
  51135.5236     0.90715E+00 
  51167.7858     0.90072E+00 
  51200.0479     0.89432E+00 
  51232.3101     0.88795E+00 
  51264.5722     0.88160E+00 
  51296.8344     0.87528E+00 
  51329.0966     0.86899E+00 
  51361.3587     0.86272E+00 
  51393.6209     0.85648E+00 
  51425.8830     0.85026E+00 
  51458.1452     0.84408E+00 
  51490.4074     0.83792E+00 
  51522.6695     0.83178E+00 
  51554.9317     0.82568E+00 
  51587.1938     0.81960E+00 
  51619.4560     0.81355E+00 
  51651.7182     0.80752E+00 
  51683.9803     0.80152E+00 
  51716.2425     0.79555E+00 
  51748.5046     0.78961E+00 
  51780.7668     0.78369E+00 
  51813.0290     0.77781E+00 
  51845.2911     0.77194E+00 
  51877.5533     0.76611E+00 
  51909.8154     0.76030E+00 
  51942.0776     0.75453E+00 
  51974.3398     0.74878E+00 
  52006.6019     0.74305E+00 
  52038.8641     0.73736E+00 
  52071.1262     0.73169E+00 
  52103.3884     0.72605E+00 
  52135.6506     0.72044E+00 
  52167.9127     0.71485E+00 
  52200.1749     0.70929E+00 
  52232.4370     0.70376E+00 
  52264.6992     0.69826E+00 
  52296.9614     0.69279E+00 
  52329.2235     0.68734E+00 
  52361.4857     0.68192E+00 
  52393.7478     0.67653E+00 
  52426.0100     0.67117E+00 
  52458.2722     0.66583E+00 
  52490.5343     0.66052E+00 
  52522.7965     0.65524E+00 
  52555.0586     0.64999E+00 
  52587.3208     0.64477E+00 
  52619.5830     0.63957E+00 
  52651.8451     0.63440E+00 
  52684.1073     0.62926E+00 
  52716.3694     0.62414E+00 
  52748.6316     0.61906E+00 
  52780.8938     0.61400E+00 
  52813.1559     0.60896E+00 
  52845.4181     0.60396E+00 
  52877.6802     0.59898E+00 
  52909.9424     0.59403E+00 
  52942.2046     0.58911E+00 
  52974.4667     0.58422E+00 
  53006.7289     0.57935E+00 
  53038.9910     0.57451E+00 
  53071.2532     0.56970E+00 
  53103.5154     0.56491E+00 
  53135.7775     0.56016E+00 
  53168.0397     0.55542E+00 
  53200.3018     0.55072E+00 
  53232.5640     0.54604E+00 
  53264.8262     0.54139E+00 
  53297.0883     0.53677E+00 
  53329.3505     0.53217E+00 
  53361.6126     0.52761E+00 
  53393.8748     0.52306E+00 
  53426.1370     0.51855E+00 
  53458.3991     0.51406E+00 
  53490.6613     0.50960E+00 
  53522.9234     0.50516E+00 
  53555.1856     0.50075E+00 
  53587.4478     0.49637E+00 
  53619.7099     0.49201E+00 
  53651.9721     0.48768E+00 
  53684.2342     0.48338E+00 
  53716.4964     0.47910E+00 
  53748.7586     0.47485E+00 
  53781.0207     0.47063E+00 
  53813.2829     0.46643E+00 
  53845.5450     0.46225E+00 
  53877.8072     0.45811E+00 
  53910.0694     0.45399E+00 
  53942.3315     0.44989E+00 
  53974.5937     0.44582E+00 
  54006.8558     0.44178E+00 
  54039.1180     0.43776E+00 
  54071.3802     0.43376E+00 
  54103.6423     0.42980E+00 
  54135.9045     0.42585E+00 
  54168.1666     0.42193E+00 
  54200.4288     0.41804E+00 
  54232.6910     0.41417E+00 
  54264.9531     0.41033E+00 
  54297.2153     0.40651E+00 
  54329.4774     0.40272E+00 
  54361.7396     0.39895E+00 
  54394.0018     0.39521E+00 
  54426.2639     0.39149E+00 
  54458.5261     0.38780E+00 
  54490.7882     0.38413E+00 
  54523.0504     0.38048E+00 
  54555.3126     0.37686E+00 
  54587.5747     0.37326E+00 
  54619.8369     0.36969E+00 
  54652.0990     0.36614E+00 
  54684.3612     0.36261E+00 
  54716.6234     0.35911E+00 
  54748.8855     0.35563E+00 
  54781.1477     0.35218E+00 
  54813.4098     0.34875E+00 
  54845.6720     0.34534E+00 
  54877.9342     0.34196E+00 
  54910.1963     0.33860E+00 
  54942.4585     0.33526E+00 
  54974.7206     0.33194E+00 
  55006.9828     0.32865E+00 
  55039.2450     0.32538E+00 
  55071.5071     0.32214E+00 
  55103.7693     0.31891E+00 
  55136.0314     0.31571E+00 
  55168.2936     0.31253E+00 
  55200.5558     0.30938E+00 
  55232.8179     0.30624E+00 
  55265.0801     0.30313E+00 
  55297.3422     0.30004E+00 
  55329.6044     0.29697E+00 
  55361.8666     0.29393E+00 
  55394.1287     0.29090E+00 
  55426.3909     0.28790E+00 
  55458.6530     0.28492E+00 
  55490.9152     0.28196E+00 
  55523.1774     0.27902E+00 
  55555.4395     0.27610E+00 
  55587.7017     0.27321E+00 
  55619.9638     0.27033E+00 
  55652.2260     0.26748E+00 
  55684.4882     0.26465E+00 
  55716.7503     0.26184E+00 
  55749.0125     0.25905E+00 
  55781.2746     0.25628E+00 
  55813.5368     0.25353E+00 
  55845.7990     0.25080E+00 
  55878.0611     0.24809E+00 
  55910.3233     0.24540E+00 
  55942.5854     0.24273E+00 
  55974.8476     0.24008E+00 
  56007.1098     0.23745E+00 
  56039.3719     0.23484E+00 
  56071.6341     0.23225E+00 
  56103.8962     0.22968E+00 
  56136.1584     0.22713E+00 
  56168.4206     0.22460E+00 
  56200.6827     0.22209E+00 
  56232.9449     0.21960E+00 
  56265.2070     0.21712E+00 
  56297.4692     0.21467E+00 
  56329.7314     0.21223E+00 
  56361.9935     0.20982E+00 
  56394.2557     0.20742E+00 
  56426.5178     0.20504E+00 
  56458.7800     0.20268E+00 
  56491.0422     0.20034E+00 
  56523.3043     0.19801E+00 
  56555.5665     0.19571E+00 
  56587.8286     0.19342E+00 
  56620.0908     0.19115E+00 
  56652.3530     0.18890E+00 
  56684.6151     0.18666E+00 
  56716.8773     0.18445E+00 
  56749.1394     0.18225E+00 
  56781.4016     0.18007E+00 
  56813.6638     0.17790E+00 
  56845.9259     0.17576E+00 
  56878.1881     0.17363E+00 
  56910.4502     0.17152E+00 
  56942.7124     0.16942E+00 
  56974.9746     0.16735E+00 
  57007.2367     0.16528E+00 
  57039.4989     0.16324E+00 
  57071.7610     0.16121E+00 
  57104.0232     0.15920E+00 
  57136.2854     0.15721E+00 
  57168.5475     0.15523E+00 
  57200.8097     0.15327E+00 
  57233.0718     0.15132E+00 
  57265.3340     0.14939E+00 
  57297.5962     0.14748E+00 
  57329.8583     0.14558E+00 
  57362.1205     0.14370E+00 
  57394.3826     0.14184E+00 
  57426.6448     0.13999E+00 
  57458.9070     0.13815E+00 
  57491.1691     0.13634E+00 
  57523.4313     0.13453E+00 
  57555.6934     0.13274E+00 
  57587.9556     0.13097E+00 
  57620.2178     0.12921E+00 
  57652.4799     0.12747E+00 
  57684.7421     0.12574E+00 
  57717.0042     0.12403E+00 
  57749.2664     0.12233E+00 
  57781.5286     0.12065E+00 
  57813.7907     0.11898E+00 
  57846.0529     0.11733E+00 
  57878.3150     0.11569E+00 
  57910.5772     0.11407E+00 
  57942.8394     0.11245E+00 
  57975.1015     0.11086E+00 
  58007.3637     0.10928E+00 
  58039.6258     0.10771E+00 
  58071.8880     0.10615E+00 
  58104.1502     0.10461E+00 
  58136.4123     0.10309E+00 
  58168.6745     0.10158E+00 
  58200.9366     0.10008E+00 
  58233.1988     0.98592E-01 
  58265.4610     0.97120E-01 
  58297.7231     0.95662E-01 
  58329.9853     0.94217E-01 
  58362.2474     0.92786E-01 
  58394.5096     0.91368E-01 
  58426.7718     0.89963E-01 
  58459.0339     0.88571E-01 
  58491.2961     0.87192E-01 
  58523.5582     0.85826E-01 
  58555.8204     0.84473E-01 
  58588.0826     0.83133E-01 
  58620.3447     0.81805E-01 
  58652.6069     0.80490E-01 
  58684.8690     0.79188E-01 
  58717.1312     0.77898E-01 
  58749.3934     0.76621E-01 
  58781.6555     0.75356E-01 
  58813.9177     0.74104E-01 
  58846.1798     0.72864E-01 
  58878.4420     0.71636E-01 
  58910.7042     0.70420E-01 
  58942.9663     0.69216E-01 
  58975.2285     0.68024E-01 
  59007.4906     0.66845E-01 
  59039.7528     0.65677E-01 
  59072.0150     0.64521E-01 
  59104.2771     0.63377E-01 
  59136.5393     0.62244E-01 
  59168.8014     0.61123E-01 
  59201.0636     0.60014E-01 
  59233.3258     0.58917E-01 
  59265.5879     0.57830E-01 
  59297.8501     0.56756E-01 
  59330.1122     0.55692E-01 
  59362.3744     0.54641E-01 
  59394.6366     0.53600E-01 
  59426.8987     0.52571E-01 
  59459.1609     0.51552E-01 
  59491.4230     0.50545E-01 
  59523.6852     0.49549E-01 
  59555.9474     0.48564E-01 
  59588.2095     0.47591E-01 
  59620.4717     0.46628E-01 
  59652.7338     0.45676E-01 
  59684.9960     0.44734E-01 
  59717.2582     0.43804E-01 
  59749.5203     0.42885E-01 
  59781.7825     0.41976E-01 
  59814.0446     0.41078E-01 
  59846.3068     0.40190E-01 
  59878.5690     0.39314E-01 
  59910.8311     0.38447E-01 
  59943.0933     0.37592E-01 
  59975.3554     0.36747E-01 
  60007.6176     0.35912E-01 
  60039.8798     0.35088E-01 
  60072.1419     0.34274E-01 
  60104.4041     0.33471E-01 
  60136.6662     0.32678E-01 
  60168.9284     0.31895E-01 
  60201.1906     0.31123E-01 
  60233.4527     0.30360E-01 
  60265.7149     0.29609E-01 
  60297.9770     0.28867E-01 
  60330.2392     0.28135E-01 
  60362.5014     0.27414E-01 
  60394.7635     0.26703E-01 
  60427.0257     0.26002E-01 
  60459.2878     0.25311E-01 
  60491.5500     0.24630E-01 
  60523.8122     0.23959E-01 
  60556.0743     0.23299E-01 
  60588.3365     0.22648E-01 
  60620.5986     0.22007E-01 
  60652.8608     0.21377E-01 
  60685.1230     0.20756E-01 
  60717.3851     0.20146E-01 
  60749.6473     0.19545E-01 
  60781.9094     0.18954E-01 
  60814.1716     0.18374E-01 
  60846.4338     0.17803E-01 
  60878.6959     0.17242E-01 
  60910.9581     0.16692E-01 
  60943.2202     0.16151E-01 
  60975.4824     0.15620E-01 
  61007.7446     0.15099E-01 
  61040.0067     0.14588E-01 
  61072.2689     0.14087E-01 
  61104.5310     0.13596E-01 
  61136.7932     0.13115E-01 
  61169.0554     0.12644E-01 
  61201.3175     0.12183E-01 
  61233.5797     0.11732E-01 
  61265.8418     0.11292E-01 
  61298.1040     0.10861E-01 
  61330.3662     0.10440E-01 
  61362.6283     0.10029E-01 
  61394.8905     0.96285E-02 
  61427.1526     0.92380E-02 
  61459.4148     0.88576E-02 
  61491.6770     0.84874E-02 
  61523.9391     0.81275E-02 
  61556.2013     0.77777E-02 
  61588.4634     0.74382E-02 
  61620.7256     0.71090E-02 
  61652.9878     0.67901E-02 
  61685.2499     0.64816E-02 
  61717.5121     0.61835E-02 
  61749.7742     0.58958E-02 
  61782.0364     0.56187E-02 
  61814.2986     0.53520E-02 
  61846.5607     0.50959E-02 
  61878.8229     0.48504E-02 
  61911.0850     0.46156E-02 
  61943.3472     0.43916E-02 
  61975.6094     0.41783E-02 
  62007.8715     0.39758E-02 
  62040.1337     0.37843E-02 
  62072.3958     0.36037E-02 
  62104.6580     0.34341E-02 
  62136.9202     0.32756E-02 
  62169.1823     0.31282E-02 
  62201.4445     0.29921E-02 
  62233.7066     0.28673E-02 
  62265.9688     0.27538E-02 
  62298.2310     0.26518E-02 
  62330.4931     0.25613E-02 
  62362.7553     0.24825E-02 
  62395.0174     0.24153E-02 
  62427.2796     0.23600E-02 
  62459.5418     0.23165E-02 
  62491.8039     0.22850E-02 
  62524.0661     0.22656E-02 
  62556.3282     0.22584E-02 
  62588.5904     0.22634E-02 
  62620.8526     0.22809E-02 
  62653.1147     0.23108E-02 
  62685.3769     0.23534E-02 
  62717.6390     0.24086E-02 
  62749.9012     0.24768E-02 
  62782.1634     0.25579E-02 
  62814.4255     0.26520E-02 
  62846.6877     0.27595E-02 
  62878.9498     0.28802E-02 
  62911.2120     0.30145E-02 
  62943.4742     0.31624E-02 
  62975.7363     0.33241E-02 
  63007.9985     0.34998E-02 
  63040.2606     0.36895E-02 
  63072.5228     0.38934E-02 
  63104.7850     0.41118E-02 
  63137.0471     0.43447E-02 
  63169.3093     0.45923E-02 
  63201.5714     0.48548E-02 
  63233.8336     0.51325E-02 
  63266.0958     0.54253E-02 
  63298.3579     0.57337E-02 
  63330.6201     0.60576E-02 
  63362.8822     0.63974E-02 
  63395.1444     0.67533E-02 
  63427.4066     0.71253E-02 
  63459.6687     0.75138E-02 
  63491.9309     0.79190E-02 
  63524.1930     0.83410E-02 
  63556.4552     0.87802E-02 
  63588.7174     0.92366E-02 
  63620.9795     0.97107E-02 
  63653.2417     0.10203E-01 
  63685.5038     0.10712E-01 
  63717.7660     0.11241E-01 
  63750.0282     0.11787E-01 
  63782.2903     0.12353E-01 
  63814.5525     0.12938E-01 
  63846.8146     0.13542E-01 
  63879.0768     0.14165E-01 
  63911.3390     0.14809E-01 
  63943.6011     0.15473E-01 
  63975.8633     0.16157E-01 
  64008.1254     0.16863E-01 
  64040.3876     0.17589E-01 
  64072.6498     0.18337E-01 
  64104.9119     0.19107E-01 
  64137.1741     0.19899E-01 
  64169.4362     0.20713E-01 
  64201.6984     0.21550E-01 
  64233.9606     0.22410E-01 
  64266.2227     0.23294E-01 
  64298.4849     0.24202E-01 
  64330.7470     0.25134E-01 
  64363.0092     0.26091E-01 
  64395.2714     0.27073E-01 
  64427.5335     0.28081E-01 
  64459.7957     0.29114E-01 
  64492.0578     0.30174E-01 
  64524.3200     0.31261E-01 
  64556.5822     0.32374E-01 
  64588.8443     0.33516E-01 
  64621.1065     0.34685E-01 
  64653.3686     0.35884E-01 
  64685.6308     0.37111E-01 
  64717.8930     0.38368E-01 
  64750.1551     0.39655E-01 
  64782.4173     0.40972E-01 
  64814.6794     0.42321E-01 
  64846.9416     0.43701E-01 
  64879.2038     0.45113E-01 
  64911.4659     0.46558E-01 
  64943.7281     0.48037E-01 
  64975.9902     0.49549E-01 
  65008.2524     0.51095E-01 
  65040.5146     0.52677E-01 
  65072.7767     0.54294E-01 
  65105.0389     0.55948E-01 
  65137.3010     0.57638E-01 
  65169.5632     0.59366E-01 
  65201.8254     0.61133E-01 
  65234.0875     0.62938E-01 
  65266.3497     0.64782E-01 
  65298.6118     0.66667E-01 
  65330.8740     0.68593E-01 
  65363.1362     0.70561E-01 
  65395.3983     0.72571E-01 
  65427.6605     0.74624E-01 
  65459.9226     0.76721E-01 
  65492.1848     0.78863E-01 
  65524.4470     0.81050E-01 
  65556.7091     0.83284E-01 
  65588.9713     0.85564E-01 
  65621.2334     0.87893E-01 
  65653.4956     0.90271E-01 
  65685.7578     0.92698E-01 
  65718.0199     0.95176E-01 
  65750.2821     0.97705E-01 
  65782.5442     0.10029E+00 
  65814.8064     0.10292E+00 
  65847.0686     0.10561E+00 
  65879.3307     0.10836E+00 
  65911.5929     0.11116E+00 
  65943.8550     0.11402E+00 
  65976.1172     0.11693E+00 
  66008.3794     0.11991E+00 
  66040.6415     0.12295E+00 
  66072.9037     0.12604E+00 
  66105.1658     0.12920E+00 
  66137.4280     0.13243E+00 
  66169.6902     0.13572E+00 
  66201.9523     0.13907E+00 
  66234.2145     0.14250E+00 
  66266.4766     0.14599E+00 
  66298.7388     0.14955E+00 
  66331.0010     0.15318E+00 
  66363.2631     0.15688E+00 
  66395.5253     0.16066E+00 
  66427.7874     0.16451E+00 
  66460.0496     0.16844E+00 
  66492.3118     0.17244E+00 
  66524.5739     0.17653E+00 
  66556.8361     0.18069E+00 
  66589.0982     0.18494E+00 
  66621.3604     0.18926E+00 
  66653.6226     0.19368E+00 
  66685.8847     0.19818E+00 
  66718.1469     0.20276E+00 
  66750.4090     0.20744E+00 
  66782.6712     0.21220E+00 
  66814.9334     0.21706E+00 
  66847.1955     0.22201E+00 
  66879.4577     0.22706E+00 
  66911.7198     0.23221E+00 
  66943.9820     0.23745E+00 
  66976.2442     0.24279E+00 
  67008.5063     0.24824E+00 
  67040.7685     0.25379E+00 
  67073.0306     0.25944E+00 
  67105.2928     0.26521E+00 
  67137.5550     0.27108E+00 
  67169.8171     0.27706E+00 
  67202.0793     0.28316E+00 
  67234.3414     0.28937E+00 
  67266.6036     0.29570E+00 
  67298.8658     0.30215E+00 
  67331.1279     0.30872E+00 
  67363.3901     0.31541E+00 
  67395.6522     0.32223E+00 
  67427.9144     0.32917E+00 
  67460.1766     0.33625E+00 
  67492.4387     0.34345E+00 
  67524.7009     0.35080E+00 
  67556.9630     0.35827E+00 
  67589.2252     0.36589E+00 
  67621.4874     0.37364E+00 
  67653.7495     0.38154E+00 
  67686.0117     0.38958E+00 
  67718.2738     0.39777E+00 
  67750.5360     0.40612E+00 
  67782.7982     0.41461E+00 
  67815.0603     0.42326E+00 
  67847.3225     0.43207E+00 
  67879.5846     0.44103E+00 
  67911.8468     0.45016E+00 
  67944.1090     0.45946E+00 
  67976.3711     0.46892E+00 
  68008.6333     0.47855E+00 
  68040.8954     0.48836E+00 
  68073.1576     0.49834E+00 
  68105.4198     0.50851E+00 
  68137.6819     0.51885E+00 
  68169.9441     0.52938E+00 
  68202.2062     0.54009E+00 
  68234.4684     0.55100E+00 
  68266.7306     0.56210E+00 
  68298.9927     0.57339E+00 
  68331.2549     0.58489E+00 
  68363.5170     0.59659E+00 
  68395.7792     0.60849E+00 
  68428.0414     0.62060E+00 
  68460.3035     0.63292E+00 
  68492.5657     0.64546E+00 
  68524.8278     0.65822E+00 
  68557.0900     0.67120E+00 
  68589.3522     0.68440E+00 
  68621.6143     0.69783E+00 
  68653.8765     0.71149E+00 
  68686.1386     0.72539E+00 
  68718.4008     0.73953E+00 
  68750.6630     0.75390E+00 
  68782.9251     0.76853E+00 
  68815.1873     0.78340E+00 
  68847.4494     0.79852E+00 
  68879.7116     0.81390E+00 
  68911.9738     0.82954E+00 
  68944.2359     0.84545E+00 
  68976.4981     0.86162E+00 
  69008.7602     0.87806E+00 
  69041.0224     0.89478E+00 
  69073.2846     0.91177E+00 
  69105.5467     0.92905E+00 
  69137.8089     0.94662E+00 
  69170.0710     0.96447E+00 
  69202.3332     0.98262E+00 
  69234.5954     0.10011E+01 
  69266.8575     0.10198E+01 
  69299.1197     0.10389E+01 
  69331.3818     0.10582E+01 
  69363.6440     0.10779E+01 
  69395.9062     0.10979E+01 
  69428.1683     0.11182E+01 
  69460.4305     0.11389E+01 
  69492.6926     0.11599E+01 
  69524.9548     0.11812E+01 
  69557.2170     0.12029E+01 
  69589.4791     0.12249E+01 
  69621.7413     0.12472E+01 
  69654.0034     0.12699E+01 
  69686.2656     0.12930E+01 
  69718.5278     0.13164E+01 
  69750.7899     0.13402E+01 
  69783.0521     0.13644E+01 
  69815.3142     0.13889E+01 
  69847.5764     0.14138E+01 
  69879.8386     0.14391E+01 
  69912.1007     0.14648E+01 
  69944.3629     0.14909E+01 
  69976.6250     0.15174E+01 
  70008.8872     0.15443E+01 
  70041.1494     0.15716E+01 
  70073.4115     0.15993E+01 
  70105.6737     0.16274E+01 
  70137.9358     0.16560E+01 
  70170.1980     0.16850E+01 
  70202.4602     0.17144E+01 
  70234.7223     0.17442E+01 
  70266.9845     0.17745E+01 
  70299.2466     0.18053E+01 
  70331.5088     0.18365E+01 
  70363.7710     0.18681E+01 
  70396.0331     0.19002E+01 
  70428.2953     0.19328E+01 
  70460.5574     0.19658E+01 
  70492.8196     0.19994E+01 
  70525.0818     0.20334E+01 
  70557.3439     0.20679E+01 
  70589.6061     0.21029E+01 
  70621.8682     0.21384E+01 
  70654.1304     0.21744E+01 
  70686.3926     0.22109E+01 
  70718.6547     0.22479E+01 
  70750.9169     0.22854E+01 
  70783.1790     0.23234E+01 
  70815.4412     0.23620E+01 
  70847.7034     0.24011E+01 
  70879.9655     0.24408E+01 
  70912.2277     0.24810E+01 
  70944.4898     0.25217E+01 
  70976.7520     0.25630E+01 
  71009.0142     0.26049E+01 
  71041.2763     0.26473E+01 
  71073.5385     0.26903E+01 
  71105.8006     0.27338E+01 
  71138.0628     0.27780E+01 
  71170.3250     0.28227E+01 
  71202.5871     0.28680E+01 
  71234.8493     0.29139E+01 
  71267.1114     0.29604E+01 
  71299.3736     0.30075E+01 
  71331.6358     0.30553E+01 
  71363.8979     0.31036E+01 
  71396.1601     0.31526E+01 
  71428.4222     0.32021E+01 
  71460.6844     0.32523E+01 
  71492.9466     0.33032E+01 
  71525.2087     0.33547E+01 
  71557.4709     0.34068E+01 
  71589.7330     0.34596E+01 
  71621.9952     0.35130E+01 
  71654.2574     0.35671E+01 
  71686.5195     0.36219E+01 
  71718.7817     0.36773E+01 
  71751.0438     0.37334E+01 
  71783.3060     0.37902E+01 
  71815.5682     0.38476E+01 
  71847.8303     0.39058E+01 
  71880.0925     0.39646E+01 
  71912.3546     0.40242E+01 
  71944.6168     0.40844E+01 
  71976.8790     0.41454E+01 
  72009.1411     0.42070E+01 
  72041.4033     0.42694E+01 
  72073.6654     0.43325E+01 
  72105.9276     0.43963E+01 
  72138.1898     0.44609E+01 
  72170.4519     0.45261E+01 
  72202.7141     0.45921E+01 
  72234.9762     0.46589E+01 
  72267.2384     0.47264E+01 
  72299.5006     0.47947E+01 
  72331.7627     0.48637E+01 
  72364.0249     0.49334E+01 
  72396.2870     0.50040E+01 
  72428.5492     0.50752E+01 
  72460.8114     0.51473E+01 
  72493.0735     0.52201E+01 
  72525.3357     0.52937E+01 
  72557.5978     0.53681E+01 
  72589.8600     0.54433E+01 
