  32262.1600     0.24389E+01 
  32294.4222     0.24726E+01 
  32326.6843     0.25066E+01 
  32358.9465     0.25410E+01 
  32391.2086     0.25756E+01 
  32423.4708     0.26106E+01 
  32455.7330     0.26460E+01 
  32487.9951     0.26816E+01 
  32520.2573     0.27176E+01 
  32552.5194     0.27540E+01 
  32584.7816     0.27906E+01 
  32617.0438     0.28276E+01 
  32649.3059     0.28650E+01 
  32681.5681     0.29027E+01 
  32713.8302     0.29407E+01 
  32746.0924     0.29790E+01 
  32778.3546     0.30177E+01 
  32810.6167     0.30567E+01 
  32842.8789     0.30961E+01 
  32875.1410     0.31358E+01 
  32907.4032     0.31758E+01 
  32939.6654     0.32162E+01 
  32971.9275     0.32569E+01 
  33004.1897     0.32980E+01 
  33036.4518     0.33394E+01 
  33068.7140     0.33811E+01 
  33100.9762     0.34232E+01 
  33133.2383     0.34656E+01 
  33165.5005     0.35083E+01 
  33197.7626     0.35514E+01 
  33230.0248     0.35948E+01 
  33262.2870     0.36386E+01 
  33294.5491     0.36826E+01 
  33326.8113     0.37271E+01 
  33359.0734     0.37718E+01 
  33391.3356     0.38169E+01 
  33423.5978     0.38623E+01 
  33455.8599     0.39081E+01 
  33488.1221     0.39542E+01 
  33520.3842     0.40006E+01 
  33552.6464     0.40473E+01 
  33584.9086     0.40944E+01 
  33617.1707     0.41418E+01 
  33649.4329     0.41895E+01 
  33681.6950     0.42376E+01 
  33713.9572     0.42860E+01 
  33746.2194     0.43347E+01 
  33778.4815     0.43837E+01 
  33810.7437     0.44330E+01 
  33843.0058     0.44827E+01 
  33875.2680     0.45327E+01 
  33907.5302     0.45830E+01 
  33939.7923     0.46336E+01 
  33972.0545     0.46845E+01 
  34004.3166     0.47357E+01 
  34036.5788     0.47873E+01 
  34068.8410     0.48391E+01 
  34101.1031     0.48913E+01 
  34133.3653     0.49437E+01 
  34165.6274     0.49965E+01 
  34197.8896     0.50495E+01 
  34230.1518     0.51029E+01 
  34262.4139     0.51565E+01 
  34294.6761     0.52104E+01 
  34326.9382     0.52647E+01 
  34359.2004     0.53192E+01 
  34391.4626     0.53740E+01 
  34423.7247     0.54291E+01 
  34455.9869     0.54844E+01 
  34488.2490     0.55401E+01 
  34520.5112     0.55960E+01 
  34552.7734     0.56522E+01 
  34585.0355     0.57086E+01 
  34617.2977     0.57653E+01 
  34649.5598     0.58223E+01 
  34681.8220     0.58796E+01 
  34714.0842     0.59371E+01 
  34746.3463     0.59948E+01 
  34778.6085     0.60528E+01 
  34810.8706     0.61111E+01 
  34843.1328     0.61696E+01 
  34875.3950     0.62283E+01 
  34907.6571     0.62873E+01 
  34939.9193     0.63465E+01 
  34972.1814     0.64060E+01 
  35004.4436     0.64656E+01 
  35036.7058     0.65256E+01 
  35068.9679     0.65857E+01 
  35101.2301     0.66460E+01 
  35133.4922     0.67066E+01 
  35165.7544     0.67673E+01 
  35198.0166     0.68283E+01 
  35230.2787     0.68895E+01 
  35262.5409     0.69508E+01 
  35294.8030     0.70124E+01 
  35327.0652     0.70742E+01 
  35359.3274     0.71361E+01 
  35391.5895     0.71982E+01 
  35423.8517     0.72605E+01 
  35456.1138     0.73230E+01 
  35488.3760     0.73856E+01 
  35520.6382     0.74484E+01 
  35552.9003     0.75114E+01 
  35585.1625     0.75745E+01 
  35617.4246     0.76378E+01 
  35649.6868     0.77013E+01 
  35681.9490     0.77648E+01 
  35714.2111     0.78285E+01 
  35746.4733     0.78924E+01 
  35778.7354     0.79563E+01 
  35810.9976     0.80204E+01 
  35843.2598     0.80847E+01 
  35875.5219     0.81490E+01 
  35907.7841     0.82134E+01 
  35940.0462     0.82780E+01 
  35972.3084     0.83426E+01 
  36004.5706     0.84074E+01 
  36036.8327     0.84722E+01 
  36069.0949     0.85371E+01 
  36101.3570     0.86021E+01 
  36133.6192     0.86672E+01 
  36165.8814     0.87323E+01 
  36198.1435     0.87976E+01 
  36230.4057     0.88628E+01 
  36262.6678     0.89282E+01 
  36294.9300     0.89935E+01 
  36327.1922     0.90590E+01 
  36359.4543     0.91244E+01 
  36391.7165     0.91899E+01 
  36423.9786     0.92555E+01 
  36456.2408     0.93210E+01 
  36488.5030     0.93866E+01 
  36520.7651     0.94522E+01 
  36553.0273     0.95177E+01 
  36585.2894     0.95833E+01 
  36617.5516     0.96489E+01 
  36649.8138     0.97145E+01 
  36682.0759     0.97801E+01 
  36714.3381     0.98456E+01 
  36746.6002     0.99111E+01 
  36778.8624     0.99766E+01 
  36811.1246     0.10042E+02 
  36843.3867     0.10108E+02 
  36875.6489     0.10173E+02 
  36907.9110     0.10238E+02 
  36940.1732     0.10303E+02 
  36972.4354     0.10369E+02 
  37004.6975     0.10434E+02 
  37036.9597     0.10499E+02 
  37069.2218     0.10564E+02 
  37101.4840     0.10629E+02 
  37133.7462     0.10693E+02 
  37166.0083     0.10758E+02 
  37198.2705     0.10823E+02 
  37230.5326     0.10887E+02 
  37262.7948     0.10952E+02 
  37295.0570     0.11016E+02 
  37327.3191     0.11080E+02 
  37359.5813     0.11144E+02 
  37391.8434     0.11208E+02 
  37424.1056     0.11271E+02 
  37456.3678     0.11335E+02 
  37488.6299     0.11398E+02 
  37520.8921     0.11462E+02 
  37553.1542     0.11525E+02 
  37585.4164     0.11588E+02 
  37617.6786     0.11650E+02 
  37649.9407     0.11713E+02 
  37682.2029     0.11775E+02 
  37714.4650     0.11837E+02 
  37746.7272     0.11899E+02 
  37778.9894     0.11961E+02 
  37811.2515     0.12023E+02 
  37843.5137     0.12084E+02 
  37875.7758     0.12145E+02 
  37908.0380     0.12206E+02 
  37940.3002     0.12267E+02 
  37972.5623     0.12327E+02 
  38004.8245     0.12387E+02 
  38037.0866     0.12447E+02 
  38069.3488     0.12507E+02 
  38101.6110     0.12566E+02 
  38133.8731     0.12625E+02 
  38166.1353     0.12684E+02 
  38198.3974     0.12743E+02 
  38230.6596     0.12801E+02 
  38262.9218     0.12859E+02 
  38295.1839     0.12917E+02 
  38327.4461     0.12975E+02 
  38359.7082     0.13032E+02 
  38391.9704     0.13089E+02 
  38424.2326     0.13145E+02 
  38456.4947     0.13201E+02 
  38488.7569     0.13257E+02 
  38521.0190     0.13313E+02 
  38553.2812     0.13368E+02 
  38585.5434     0.13423E+02 
  38617.8055     0.13478E+02 
  38650.0677     0.13532E+02 
  38682.3298     0.13586E+02 
  38714.5920     0.13639E+02 
  38746.8542     0.13692E+02 
  38779.1163     0.13745E+02 
  38811.3785     0.13798E+02 
  38843.6406     0.13850E+02 
  38875.9028     0.13901E+02 
  38908.1650     0.13953E+02 
  38940.4271     0.14004E+02 
  38972.6893     0.14054E+02 
  39004.9514     0.14104E+02 
  39037.2136     0.14154E+02 
  39069.4758     0.14203E+02 
  39101.7379     0.14252E+02 
  39134.0001     0.14301E+02 
  39166.2622     0.14349E+02 
  39198.5244     0.14397E+02 
  39230.7866     0.14444E+02 
  39263.0487     0.14491E+02 
  39295.3109     0.14537E+02 
  39327.5730     0.14583E+02 
  39359.8352     0.14628E+02 
  39392.0974     0.14673E+02 
  39424.3595     0.14718E+02 
  39456.6217     0.14762E+02 
  39488.8838     0.14806E+02 
  39521.1460     0.14849E+02 
  39553.4082     0.14892E+02 
  39585.6703     0.14934E+02 
  39617.9325     0.14976E+02 
  39650.1946     0.15018E+02 
  39682.4568     0.15058E+02 
  39714.7190     0.15099E+02 
  39746.9811     0.15139E+02 
  39779.2433     0.15178E+02 
  39811.5054     0.15217E+02 
  39843.7676     0.15256E+02 
  39876.0298     0.15294E+02 
  39908.2919     0.15331E+02 
  39940.5541     0.15368E+02 
  39972.8162     0.15405E+02 
  40005.0784     0.15441E+02 
  40037.3406     0.15476E+02 
  40069.6027     0.15511E+02 
  40101.8649     0.15545E+02 
  40134.1270     0.15579E+02 
  40166.3892     0.15613E+02 
  40198.6514     0.15646E+02 
  40230.9135     0.15678E+02 
  40263.1757     0.15710E+02 
  40295.4378     0.15741E+02 
  40327.7000     0.15772E+02 
  40359.9622     0.15802E+02 
  40392.2243     0.15832E+02 
  40424.4865     0.15861E+02 
  40456.7486     0.15890E+02 
  40489.0108     0.15918E+02 
  40521.2730     0.15945E+02 
  40553.5351     0.15972E+02 
  40585.7973     0.15999E+02 
  40618.0594     0.16025E+02 
  40650.3216     0.16050E+02 
  40682.5838     0.16075E+02 
  40714.8459     0.16099E+02 
  40747.1081     0.16123E+02 
  40779.3702     0.16146E+02 
  40811.6324     0.16169E+02 
  40843.8946     0.16191E+02 
  40876.1567     0.16212E+02 
  40908.4189     0.16233E+02 
  40940.6810     0.16254E+02 
  40972.9432     0.16274E+02 
  41005.2054     0.16293E+02 
  41037.4675     0.16312E+02 
  41069.7297     0.16330E+02 
  41101.9918     0.16347E+02 
  41134.2540     0.16364E+02 
  41166.5162     0.16381E+02 
  41198.7783     0.16397E+02 
  41231.0405     0.16412E+02 
  41263.3026     0.16427E+02 
  41295.5648     0.16441E+02 
  41327.8270     0.16455E+02 
  41360.0891     0.16468E+02 
  41392.3513     0.16480E+02 
  41424.6134     0.16492E+02 
  41456.8756     0.16503E+02 
  41489.1378     0.16514E+02 
  41521.3999     0.16525E+02 
  41553.6621     0.16534E+02 
  41585.9242     0.16543E+02 
  41618.1864     0.16552E+02 
  41650.4486     0.16560E+02 
  41682.7107     0.16567E+02 
  41714.9729     0.16574E+02 
  41747.2350     0.16580E+02 
  41779.4972     0.16586E+02 
  41811.7594     0.16591E+02 
  41844.0215     0.16596E+02 
  41876.2837     0.16600E+02 
  41908.5458     0.16604E+02 
  41940.8080     0.16607E+02 
  41973.0702     0.16609E+02 
  42005.3323     0.16611E+02 
  42037.5945     0.16612E+02 
  42069.8566     0.16613E+02 
  42102.1188     0.16613E+02 
  42134.3810     0.16613E+02 
  42166.6431     0.16612E+02 
  42198.9053     0.16610E+02 
  42231.1674     0.16608E+02 
  42263.4296     0.16605E+02 
  42295.6918     0.16602E+02 
  42327.9539     0.16599E+02 
  42360.2161     0.16594E+02 
  42392.4782     0.16590E+02 
  42424.7404     0.16584E+02 
  42457.0026     0.16579E+02 
  42489.2647     0.16572E+02 
  42521.5269     0.16565E+02 
  42553.7890     0.16558E+02 
  42586.0512     0.16550E+02 
  42618.3134     0.16542E+02 
  42650.5755     0.16532E+02 
  42682.8377     0.16523E+02 
  42715.0998     0.16513E+02 
  42747.3620     0.16502E+02 
  42779.6242     0.16491E+02 
  42811.8863     0.16480E+02 
  42844.1485     0.16468E+02 
  42876.4106     0.16455E+02 
  42908.6728     0.16442E+02 
  42940.9350     0.16428E+02 
  42973.1971     0.16414E+02 
  43005.4593     0.16399E+02 
  43037.7214     0.16384E+02 
  43069.9836     0.16369E+02 
  43102.2458     0.16352E+02 
  43134.5079     0.16336E+02 
  43166.7701     0.16319E+02 
  43199.0322     0.16301E+02 
  43231.2944     0.16283E+02 
  43263.5566     0.16264E+02 
  43295.8187     0.16245E+02 
  43328.0809     0.16226E+02 
  43360.3430     0.16206E+02 
  43392.6052     0.16185E+02 
  43424.8674     0.16164E+02 
  43457.1295     0.16143E+02 
  43489.3917     0.16121E+02 
  43521.6538     0.16099E+02 
  43553.9160     0.16076E+02 
  43586.1782     0.16053E+02 
  43618.4403     0.16029E+02 
  43650.7025     0.16005E+02 
  43682.9646     0.15981E+02 
  43715.2268     0.15956E+02 
  43747.4890     0.15930E+02 
  43779.7511     0.15904E+02 
  43812.0133     0.15878E+02 
  43844.2754     0.15851E+02 
  43876.5376     0.15824E+02 
  43908.7998     0.15797E+02 
  43941.0619     0.15769E+02 
  43973.3241     0.15740E+02 
  44005.5862     0.15712E+02 
  44037.8484     0.15683E+02 
  44070.1106     0.15653E+02 
  44102.3727     0.15623E+02 
  44134.6349     0.15593E+02 
  44166.8970     0.15562E+02 
  44199.1592     0.15531E+02 
  44231.4214     0.15499E+02 
  44263.6835     0.15467E+02 
  44295.9457     0.15435E+02 
  44328.2078     0.15402E+02 
  44360.4700     0.15369E+02 
  44392.7322     0.15336E+02 
  44424.9943     0.15302E+02 
  44457.2565     0.15268E+02 
  44489.5186     0.15233E+02 
  44521.7808     0.15198E+02 
  44554.0430     0.15163E+02 
  44586.3051     0.15128E+02 
  44618.5673     0.15092E+02 
  44650.8294     0.15056E+02 
  44683.0916     0.15019E+02 
  44715.3538     0.14982E+02 
  44747.6159     0.14945E+02 
  44779.8781     0.14907E+02 
  44812.1402     0.14870E+02 
  44844.4024     0.14831E+02 
  44876.6646     0.14793E+02 
  44908.9267     0.14754E+02 
  44941.1889     0.14715E+02 
  44973.4510     0.14676E+02 
  45005.7132     0.14636E+02 
  45037.9754     0.14596E+02 
  45070.2375     0.14556E+02 
  45102.4997     0.14515E+02 
  45134.7618     0.14475E+02 
  45167.0240     0.14433E+02 
  45199.2862     0.14392E+02 
  45231.5483     0.14350E+02 
  45263.8105     0.14308E+02 
  45296.0726     0.14266E+02 
  45328.3348     0.14224E+02 
  45360.5970     0.14181E+02 
  45392.8591     0.14138E+02 
  45425.1213     0.14095E+02 
  45457.3834     0.14052E+02 
  45489.6456     0.14008E+02 
  45521.9078     0.13964E+02 
  45554.1699     0.13920E+02 
  45586.4321     0.13876E+02 
  45618.6942     0.13831E+02 
  45650.9564     0.13786E+02 
  45683.2186     0.13741E+02 
  45715.4807     0.13696E+02 
  45747.7429     0.13651E+02 
  45780.0050     0.13605E+02 
  45812.2672     0.13559E+02 
  45844.5294     0.13513E+02 
  45876.7915     0.13467E+02 
  45909.0537     0.13420E+02 
  45941.3158     0.13374E+02 
  45973.5780     0.13327E+02 
  46005.8402     0.13280E+02 
  46038.1023     0.13233E+02 
  46070.3645     0.13186E+02 
  46102.6266     0.13138E+02 
  46134.8888     0.13091E+02 
  46167.1510     0.13043E+02 
  46199.4131     0.12995E+02 
  46231.6753     0.12947E+02 
  46263.9374     0.12898E+02 
  46296.1996     0.12850E+02 
  46328.4618     0.12802E+02 
  46360.7239     0.12753E+02 
  46392.9861     0.12704E+02 
  46425.2482     0.12655E+02 
  46457.5104     0.12606E+02 
  46489.7726     0.12557E+02 
  46522.0347     0.12508E+02 
  46554.2969     0.12458E+02 
  46586.5590     0.12409E+02 
  46618.8212     0.12359E+02 
  46651.0834     0.12309E+02 
  46683.3455     0.12259E+02 
  46715.6077     0.12209E+02 
  46747.8698     0.12159E+02 
  46780.1320     0.12109E+02 
  46812.3942     0.12059E+02 
  46844.6563     0.12009E+02 
  46876.9185     0.11958E+02 
  46909.1806     0.11908E+02 
  46941.4428     0.11857E+02 
  46973.7050     0.11806E+02 
  47005.9671     0.11756E+02 
  47038.2293     0.11705E+02 
  47070.4914     0.11654E+02 
  47102.7536     0.11603E+02 
  47135.0158     0.11552E+02 
  47167.2779     0.11501E+02 
  47199.5401     0.11450E+02 
  47231.8022     0.11399E+02 
  47264.0644     0.11348E+02 
  47296.3266     0.11297E+02 
  47328.5887     0.11246E+02 
  47360.8509     0.11194E+02 
  47393.1130     0.11143E+02 
  47425.3752     0.11092E+02 
  47457.6374     0.11040E+02 
  47489.8995     0.10989E+02 
  47522.1617     0.10938E+02 
  47554.4238     0.10886E+02 
  47586.6860     0.10835E+02 
  47618.9482     0.10783E+02 
  47651.2103     0.10732E+02 
  47683.4725     0.10681E+02 
  47715.7346     0.10629E+02 
  47747.9968     0.10578E+02 
  47780.2590     0.10526E+02 
  47812.5211     0.10475E+02 
  47844.7833     0.10423E+02 
  47877.0454     0.10372E+02 
  47909.3076     0.10321E+02 
  47941.5698     0.10269E+02 
  47973.8319     0.10218E+02 
  48006.0941     0.10167E+02 
  48038.3562     0.10115E+02 
  48070.6184     0.10064E+02 
  48102.8806     0.10013E+02 
  48135.1427     0.99616E+01 
  48167.4049     0.99104E+01 
  48199.6670     0.98593E+01 
  48231.9292     0.98082E+01 
  48264.1914     0.97572E+01 
  48296.4535     0.97062E+01 
  48328.7157     0.96552E+01 
  48360.9778     0.96043E+01 
  48393.2400     0.95535E+01 
  48425.5022     0.95027E+01 
  48457.7643     0.94519E+01 
  48490.0265     0.94012E+01 
  48522.2886     0.93506E+01 
  48554.5508     0.93001E+01 
  48586.8130     0.92496E+01 
  48619.0751     0.91992E+01 
  48651.3373     0.91488E+01 
  48683.5994     0.90985E+01 
  48715.8616     0.90483E+01 
  48748.1238     0.89982E+01 
  48780.3859     0.89482E+01 
  48812.6481     0.88982E+01 
  48844.9102     0.88483E+01 
  48877.1724     0.87985E+01 
  48909.4346     0.87488E+01 
  48941.6967     0.86992E+01 
  48973.9589     0.86497E+01 
  49006.2210     0.86002E+01 
  49038.4832     0.85509E+01 
  49070.7454     0.85016E+01 
  49103.0075     0.84525E+01 
  49135.2697     0.84034E+01 
  49167.5318     0.83545E+01 
  49199.7940     0.83057E+01 
  49232.0562     0.82569E+01 
  49264.3183     0.82083E+01 
  49296.5805     0.81598E+01 
  49328.8426     0.81114E+01 
  49361.1048     0.80631E+01 
  49393.3670     0.80149E+01 
  49425.6291     0.79668E+01 
  49457.8913     0.79189E+01 
  49490.1534     0.78710E+01 
  49522.4156     0.78233E+01 
  49554.6778     0.77757E+01 
  49586.9399     0.77283E+01 
  49619.2021     0.76809E+01 
  49651.4642     0.76337E+01 
  49683.7264     0.75866E+01 
  49715.9886     0.75397E+01 
  49748.2507     0.74928E+01 
  49780.5129     0.74461E+01 
  49812.7750     0.73996E+01 
  49845.0372     0.73531E+01 
  49877.2994     0.73068E+01 
  49909.5615     0.72607E+01 
  49941.8237     0.72146E+01 
  49974.0858     0.71688E+01 
  50006.3480     0.71230E+01 
  50038.6102     0.70774E+01 
  50070.8723     0.70319E+01 
  50103.1345     0.69866E+01 
  50135.3966     0.69415E+01 
  50167.6588     0.68964E+01 
  50199.9210     0.68516E+01 
  50232.1831     0.68068E+01 
  50264.4453     0.67622E+01 
  50296.7074     0.67178E+01 
  50328.9696     0.66735E+01 
  50361.2318     0.66294E+01 
  50393.4939     0.65854E+01 
  50425.7561     0.65416E+01 
  50458.0182     0.64979E+01 
  50490.2804     0.64544E+01 
  50522.5426     0.64110E+01 
  50554.8047     0.63678E+01 
  50587.0669     0.63248E+01 
  50619.3290     0.62819E+01 
  50651.5912     0.62392E+01 
  50683.8534     0.61966E+01 
  50716.1155     0.61542E+01 
  50748.3777     0.61120E+01 
  50780.6398     0.60699E+01 
  50812.9020     0.60280E+01 
  50845.1642     0.59862E+01 
  50877.4263     0.59446E+01 
  50909.6885     0.59032E+01 
  50941.9506     0.58620E+01 
  50974.2128     0.58209E+01 
  51006.4750     0.57799E+01 
  51038.7371     0.57392E+01 
  51070.9993     0.56986E+01 
  51103.2614     0.56582E+01 
  51135.5236     0.56179E+01 
  51167.7858     0.55778E+01 
  51200.0479     0.55379E+01 
  51232.3101     0.54982E+01 
  51264.5722     0.54586E+01 
  51296.8344     0.54192E+01 
  51329.0966     0.53800E+01 
  51361.3587     0.53409E+01 
  51393.6209     0.53020E+01 
  51425.8830     0.52633E+01 
  51458.1452     0.52247E+01 
  51490.4074     0.51864E+01 
  51522.6695     0.51482E+01 
  51554.9317     0.51102E+01 
  51587.1938     0.50723E+01 
  51619.4560     0.50346E+01 
  51651.7182     0.49971E+01 
  51683.9803     0.49598E+01 
  51716.2425     0.49226E+01 
  51748.5046     0.48857E+01 
  51780.7668     0.48489E+01 
  51813.0290     0.48122E+01 
  51845.2911     0.47758E+01 
  51877.5533     0.47395E+01 
  51909.8154     0.47034E+01 
  51942.0776     0.46675E+01 
  51974.3398     0.46317E+01 
  52006.6019     0.45962E+01 
  52038.8641     0.45608E+01 
  52071.1262     0.45255E+01 
  52103.3884     0.44905E+01 
  52135.6506     0.44556E+01 
  52167.9127     0.44209E+01 
  52200.1749     0.43864E+01 
  52232.4370     0.43521E+01 
  52264.6992     0.43179E+01 
  52296.9614     0.42839E+01 
  52329.2235     0.42501E+01 
  52361.4857     0.42165E+01 
  52393.7478     0.41830E+01 
  52426.0100     0.41497E+01 
  52458.2722     0.41166E+01 
  52490.5343     0.40837E+01 
  52522.7965     0.40509E+01 
  52555.0586     0.40183E+01 
  52587.3208     0.39859E+01 
  52619.5830     0.39537E+01 
  52651.8451     0.39216E+01 
  52684.1073     0.38897E+01 
  52716.3694     0.38580E+01 
  52748.6316     0.38265E+01 
  52780.8938     0.37951E+01 
  52813.1559     0.37639E+01 
  52845.4181     0.37329E+01 
  52877.6802     0.37021E+01 
  52909.9424     0.36714E+01 
  52942.2046     0.36409E+01 
  52974.4667     0.36106E+01 
  53006.7289     0.35804E+01 
  53038.9910     0.35505E+01 
  53071.2532     0.35207E+01 
  53103.5154     0.34910E+01 
  53135.7775     0.34615E+01 
  53168.0397     0.34322E+01 
  53200.3018     0.34031E+01 
  53232.5640     0.33742E+01 
  53264.8262     0.33454E+01 
  53297.0883     0.33168E+01 
  53329.3505     0.32883E+01 
  53361.6126     0.32600E+01 
  53393.8748     0.32319E+01 
  53426.1370     0.32040E+01 
  53458.3991     0.31762E+01 
  53490.6613     0.31486E+01 
  53522.9234     0.31211E+01 
  53555.1856     0.30939E+01 
  53587.4478     0.30668E+01 
  53619.7099     0.30398E+01 
  53651.9721     0.30130E+01 
  53684.2342     0.29864E+01 
  53716.4964     0.29600E+01 
  53748.7586     0.29337E+01 
  53781.0207     0.29075E+01 
  53813.2829     0.28816E+01 
  53845.5450     0.28558E+01 
  53877.8072     0.28301E+01 
  53910.0694     0.28047E+01 
  53942.3315     0.27793E+01 
  53974.5937     0.27542E+01 
  54006.8558     0.27292E+01 
  54039.1180     0.27043E+01 
  54071.3802     0.26797E+01 
  54103.6423     0.26551E+01 
  54135.9045     0.26308E+01 
  54168.1666     0.26066E+01 
  54200.4288     0.25825E+01 
  54232.6910     0.25586E+01 
  54264.9531     0.25349E+01 
  54297.2153     0.25113E+01 
  54329.4774     0.24879E+01 
  54361.7396     0.24646E+01 
  54394.0018     0.24415E+01 
  54426.2639     0.24185E+01 
  54458.5261     0.23957E+01 
  54490.7882     0.23730E+01 
  54523.0504     0.23505E+01 
  54555.3126     0.23281E+01 
  54587.5747     0.23059E+01 
  54619.8369     0.22839E+01 
  54652.0990     0.22619E+01 
  54684.3612     0.22402E+01 
  54716.6234     0.22185E+01 
  54748.8855     0.21971E+01 
  54781.1477     0.21757E+01 
  54813.4098     0.21546E+01 
  54845.6720     0.21335E+01 
  54877.9342     0.21126E+01 
  54910.1963     0.20919E+01 
  54942.4585     0.20713E+01 
  54974.7206     0.20508E+01 
  55006.9828     0.20305E+01 
  55039.2450     0.20103E+01 
  55071.5071     0.19903E+01 
  55103.7693     0.19704E+01 
  55136.0314     0.19506E+01 
  55168.2936     0.19310E+01 
  55200.5558     0.19115E+01 
  55232.8179     0.18922E+01 
  55265.0801     0.18730E+01 
  55297.3422     0.18539E+01 
  55329.6044     0.18350E+01 
  55361.8666     0.18162E+01 
  55394.1287     0.17975E+01 
  55426.3909     0.17790E+01 
  55458.6530     0.17606E+01 
  55490.9152     0.17424E+01 
  55523.1774     0.17242E+01 
  55555.4395     0.17062E+01 
  55587.7017     0.16884E+01 
  55619.9638     0.16707E+01 
  55652.2260     0.16530E+01 
  55684.4882     0.16356E+01 
  55716.7503     0.16182E+01 
  55749.0125     0.16010E+01 
  55781.2746     0.15839E+01 
  55813.5368     0.15670E+01 
  55845.7990     0.15501E+01 
  55878.0611     0.15334E+01 
  55910.3233     0.15168E+01 
  55942.5854     0.15004E+01 
  55974.8476     0.14840E+01 
  56007.1098     0.14678E+01 
  56039.3719     0.14517E+01 
  56071.6341     0.14357E+01 
  56103.8962     0.14199E+01 
  56136.1584     0.14041E+01 
  56168.4206     0.13885E+01 
  56200.6827     0.13730E+01 
  56232.9449     0.13577E+01 
  56265.2070     0.13424E+01 
  56297.4692     0.13273E+01 
  56329.7314     0.13122E+01 
  56361.9935     0.12973E+01 
  56394.2557     0.12826E+01 
  56426.5178     0.12679E+01 
  56458.7800     0.12533E+01 
  56491.0422     0.12389E+01 
  56523.3043     0.12245E+01 
  56555.5665     0.12103E+01 
  56587.8286     0.11962E+01 
  56620.0908     0.11822E+01 
  56652.3530     0.11683E+01 
  56684.6151     0.11545E+01 
  56716.8773     0.11409E+01 
  56749.1394     0.11273E+01 
  56781.4016     0.11138E+01 
  56813.6638     0.11005E+01 
  56845.9259     0.10873E+01 
  56878.1881     0.10741E+01 
  56910.4502     0.10611E+01 
  56942.7124     0.10482E+01 
  56974.9746     0.10354E+01 
  57007.2367     0.10226E+01 
  57039.4989     0.10100E+01 
  57071.7610     0.99753E+00 
  57104.0232     0.98513E+00 
  57136.2854     0.97283E+00 
  57168.5475     0.96062E+00 
  57200.8097     0.94852E+00 
  57233.0718     0.93652E+00 
  57265.3340     0.92462E+00 
  57297.5962     0.91282E+00 
  57329.8583     0.90111E+00 
  57362.1205     0.88950E+00 
  57394.3826     0.87799E+00 
  57426.6448     0.86658E+00 
  57458.9070     0.85526E+00 
  57491.1691     0.84404E+00 
  57523.4313     0.83292E+00 
  57555.6934     0.82188E+00 
  57587.9556     0.81094E+00 
  57620.2178     0.80010E+00 
  57652.4799     0.78935E+00 
  57684.7421     0.77869E+00 
  57717.0042     0.76812E+00 
  57749.2664     0.75764E+00 
  57781.5286     0.74725E+00 
  57813.7907     0.73696E+00 
  57846.0529     0.72675E+00 
  57878.3150     0.71663E+00 
  57910.5772     0.70660E+00 
  57942.8394     0.69666E+00 
  57975.1015     0.68681E+00 
  58007.3637     0.67704E+00 
  58039.6258     0.66736E+00 
  58071.8880     0.65777E+00 
  58104.1502     0.64826E+00 
  58136.4123     0.63884E+00 
  58168.6745     0.62950E+00 
  58200.9366     0.62025E+00 
  58233.1988     0.61108E+00 
  58265.4610     0.60199E+00 
  58297.7231     0.59299E+00 
  58329.9853     0.58407E+00 
  58362.2474     0.57523E+00 
  58394.5096     0.56647E+00 
  58426.7718     0.55779E+00 
  58459.0339     0.54920E+00 
  58491.2961     0.54068E+00 
  58523.5582     0.53225E+00 
  58555.8204     0.52389E+00 
  58588.0826     0.51561E+00 
  58620.3447     0.50741E+00 
  58652.6069     0.49929E+00 
  58684.8690     0.49124E+00 
  58717.1312     0.48328E+00 
  58749.3934     0.47538E+00 
  58781.6555     0.46757E+00 
  58813.9177     0.45983E+00 
  58846.1798     0.45217E+00 
  58878.4420     0.44458E+00 
  58910.7042     0.43707E+00 
  58942.9663     0.42963E+00 
  58975.2285     0.42226E+00 
  59007.4906     0.41497E+00 
  59039.7528     0.40776E+00 
  59072.0150     0.40061E+00 
  59104.2771     0.39354E+00 
  59136.5393     0.38654E+00 
  59168.8014     0.37961E+00 
  59201.0636     0.37275E+00 
  59233.3258     0.36597E+00 
  59265.5879     0.35925E+00 
  59297.8501     0.35261E+00 
  59330.1122     0.34603E+00 
  59362.3744     0.33953E+00 
  59394.6366     0.33309E+00 
  59426.8987     0.32673E+00 
  59459.1609     0.32043E+00 
  59491.4230     0.31420E+00 
  59523.6852     0.30804E+00 
  59555.9474     0.30195E+00 
  59588.2095     0.29593E+00 
  59620.4717     0.28997E+00 
  59652.7338     0.28408E+00 
  59684.9960     0.27826E+00 
  59717.2582     0.27250E+00 
  59749.5203     0.26681E+00 
  59781.7825     0.26119E+00 
  59814.0446     0.25563E+00 
  59846.3068     0.25014E+00 
  59878.5690     0.24471E+00 
  59910.8311     0.23935E+00 
  59943.0933     0.23405E+00 
  59975.3554     0.22882E+00 
  60007.6176     0.22365E+00 
  60039.8798     0.21855E+00 
  60072.1419     0.21351E+00 
  60104.4041     0.20854E+00 
  60136.6662     0.20363E+00 
  60168.9284     0.19878E+00 
  60201.1906     0.19399E+00 
  60233.4527     0.18927E+00 
  60265.7149     0.18462E+00 
  60297.9770     0.18002E+00 
  60330.2392     0.17549E+00 
  60362.5014     0.17102E+00 
  60394.7635     0.16661E+00 
  60427.0257     0.16227E+00 
  60459.2878     0.15799E+00 
  60491.5500     0.15377E+00 
  60523.8122     0.14961E+00 
  60556.0743     0.14551E+00 
  60588.3365     0.14148E+00 
  60620.5986     0.13750E+00 
  60652.8608     0.13359E+00 
  60685.1230     0.12974E+00 
  60717.3851     0.12596E+00 
  60749.6473     0.12223E+00 
  60781.9094     0.11856E+00 
  60814.1716     0.11496E+00 
  60846.4338     0.11142E+00 
  60878.6959     0.10794E+00 
  60910.9581     0.10452E+00 
  60943.2202     0.10116E+00 
  60975.4824     0.97864E-01 
  61007.7446     0.94629E-01 
  61040.0067     0.91455E-01 
  61072.2689     0.88342E-01 
  61104.5310     0.85291E-01 
  61136.7932     0.82301E-01 
  61169.0554     0.79372E-01 
  61201.3175     0.76506E-01 
  61233.5797     0.73701E-01 
  61265.8418     0.70957E-01 
  61298.1040     0.68276E-01 
  61330.3662     0.65656E-01 
  61362.6283     0.63098E-01 
  61394.8905     0.60603E-01 
  61427.1526     0.58170E-01 
  61459.4148     0.55799E-01 
  61491.6770     0.53491E-01 
  61523.9391     0.51246E-01 
  61556.2013     0.49063E-01 
  61588.4634     0.46944E-01 
  61620.7256     0.44888E-01 
  61652.9878     0.42895E-01 
  61685.2499     0.40966E-01 
  61717.5121     0.39101E-01 
  61749.7742     0.37301E-01 
  61782.0364     0.35564E-01 
  61814.2986     0.33893E-01 
  61846.5607     0.32286E-01 
  61878.8229     0.30745E-01 
  61911.0850     0.29269E-01 
  61943.3472     0.27859E-01 
  61975.6094     0.26516E-01 
  62007.8715     0.25239E-01 
  62040.1337     0.24028E-01 
  62072.3958     0.22885E-01 
  62104.6580     0.21810E-01 
  62136.9202     0.20803E-01 
  62169.1823     0.19864E-01 
  62201.4445     0.18994E-01 
  62233.7066     0.18194E-01 
  62265.9688     0.17463E-01 
  62298.2310     0.16803E-01 
  62330.4931     0.16213E-01 
  62362.7553     0.15695E-01 
  62395.0174     0.15248E-01 
  62427.2796     0.14874E-01 
  62459.5418     0.14572E-01 
  62491.8039     0.14344E-01 
  62524.0661     0.14190E-01 
  62556.3282     0.14111E-01 
  62588.5904     0.14107E-01 
  62620.8526     0.14178E-01 
  62653.1147     0.14327E-01 
  62685.3769     0.14552E-01 
  62717.6390     0.14856E-01 
  62749.9012     0.15238E-01 
  62782.1634     0.15700E-01 
  62814.4255     0.16241E-01 
  62846.6877     0.16864E-01 
  62878.9498     0.17568E-01 
  62911.2120     0.18355E-01 
  62943.4742     0.19226E-01 
  62975.7363     0.20181E-01 
  63007.9985     0.21221E-01 
  63040.2606     0.22347E-01 
  63072.5228     0.23560E-01 
  63104.7850     0.24861E-01 
  63137.0471     0.26251E-01 
  63169.3093     0.27731E-01 
  63201.5714     0.29302E-01 
  63233.8336     0.30965E-01 
  63266.0958     0.32721E-01 
  63298.3579     0.34572E-01 
  63330.6201     0.36518E-01 
  63362.8822     0.38561E-01 
  63395.1444     0.40702E-01 
  63427.4066     0.42942E-01 
  63459.6687     0.45282E-01 
  63491.9309     0.47723E-01 
  63524.1930     0.50268E-01 
  63556.4552     0.52917E-01 
  63588.7174     0.55672E-01 
  63620.9795     0.58534E-01 
  63653.2417     0.61504E-01 
  63685.5038     0.64585E-01 
  63717.7660     0.67777E-01 
  63750.0282     0.71082E-01 
  63782.2903     0.74502E-01 
  63814.5525     0.78039E-01 
  63846.8146     0.81693E-01 
  63879.0768     0.85467E-01 
  63911.3390     0.89363E-01 
  63943.6011     0.93382E-01 
  63975.8633     0.97526E-01 
  64008.1254     0.10180E+00 
  64040.3876     0.10620E+00 
  64072.6498     0.11073E+00 
  64104.9119     0.11539E+00 
  64137.1741     0.12019E+00 
  64169.4362     0.12512E+00 
  64201.6984     0.13020E+00 
  64233.9606     0.13541E+00 
  64266.2227     0.14077E+00 
  64298.4849     0.14628E+00 
  64330.7470     0.15193E+00 
  64363.0092     0.15773E+00 
  64395.2714     0.16369E+00 
  64427.5335     0.16980E+00 
  64459.7957     0.17607E+00 
  64492.0578     0.18250E+00 
  64524.3200     0.18909E+00 
  64556.5822     0.19585E+00 
  64588.8443     0.20278E+00 
  64621.1065     0.20988E+00 
  64653.3686     0.21715E+00 
  64685.6308     0.22460E+00 
  64717.8930     0.23223E+00 
  64750.1551     0.24004E+00 
  64782.4173     0.24804E+00 
  64814.6794     0.25623E+00 
  64846.9416     0.26461E+00 
  64879.2038     0.27318E+00 
  64911.4659     0.28196E+00 
  64943.7281     0.29094E+00 
  64975.9902     0.30012E+00 
  65008.2524     0.30952E+00 
  65040.5146     0.31913E+00 
  65072.7767     0.32895E+00 
  65105.0389     0.33900E+00 
  65137.3010     0.34927E+00 
  65169.5632     0.35977E+00 
  65201.8254     0.37050E+00 
  65234.0875     0.38147E+00 
  65266.3497     0.39269E+00 
  65298.6118     0.40414E+00 
  65330.8740     0.41585E+00 
  65363.1362     0.42781E+00 
  65395.3983     0.44003E+00 
  65427.6605     0.45252E+00 
  65459.9226     0.46527E+00 
  65492.1848     0.47829E+00 
  65524.4470     0.49160E+00 
  65556.7091     0.50518E+00 
  65588.9713     0.51906E+00 
  65621.2334     0.53323E+00 
  65653.4956     0.54769E+00 
  65685.7578     0.56246E+00 
  65718.0199     0.57754E+00 
  65750.2821     0.59294E+00 
  65782.5442     0.60866E+00 
  65814.8064     0.62470E+00 
  65847.0686     0.64107E+00 
  65879.3307     0.65779E+00 
  65911.5929     0.67485E+00 
  65943.8550     0.69226E+00 
  65976.1172     0.71002E+00 
  66008.3794     0.72815E+00 
  66040.6415     0.74666E+00 
  66072.9037     0.76553E+00 
  66105.1658     0.78480E+00 
  66137.4280     0.80445E+00 
  66169.6902     0.82450E+00 
  66201.9523     0.84496E+00 
  66234.2145     0.86583E+00 
  66266.4766     0.88712E+00 
  66298.7388     0.90884E+00 
  66331.0010     0.93100E+00 
  66363.2631     0.95360E+00 
  66395.5253     0.97665E+00 
  66427.7874     0.10002E+01 
  66460.0496     0.10241E+01 
  66492.3118     0.10486E+01 
  66524.5739     0.10735E+01 
  66556.8361     0.10990E+01 
  66589.0982     0.11249E+01 
  66621.3604     0.11514E+01 
  66653.6226     0.11783E+01 
  66685.8847     0.12058E+01 
  66718.1469     0.12339E+01 
  66750.4090     0.12625E+01 
  66782.6712     0.12916E+01 
  66814.9334     0.13213E+01 
  66847.1955     0.13516E+01 
  66879.4577     0.13825E+01 
  66911.7198     0.14140E+01 
  66943.9820     0.14461E+01 
  66976.2442     0.14789E+01 
  67008.5063     0.15122E+01 
  67040.7685     0.15462E+01 
  67073.0306     0.15809E+01 
  67105.2928     0.16162E+01 
  67137.5550     0.16522E+01 
  67169.8171     0.16889E+01 
  67202.0793     0.17263E+01 
  67234.3414     0.17644E+01 
  67266.6036     0.18033E+01 
  67298.8658     0.18429E+01 
  67331.1279     0.18832E+01 
  67363.3901     0.19243E+01 
  67395.6522     0.19662E+01 
  67427.9144     0.20089E+01 
  67460.1766     0.20524E+01 
  67492.4387     0.20967E+01 
  67524.7009     0.21419E+01 
  67556.9630     0.21879E+01 
  67589.2252     0.22347E+01 
  67621.4874     0.22825E+01 
  67653.7495     0.23311E+01 
  67686.0117     0.23807E+01 
  67718.2738     0.24311E+01 
  67750.5360     0.24826E+01 
  67782.7982     0.25349E+01 
  67815.0603     0.25883E+01 
  67847.3225     0.26426E+01 
  67879.5846     0.26979E+01 
  67911.8468     0.27543E+01 
  67944.1090     0.28117E+01 
  67976.3711     0.28701E+01 
  68008.6333     0.29297E+01 
  68040.8954     0.29903E+01 
  68073.1576     0.30520E+01 
  68105.4198     0.31149E+01 
  68137.6819     0.31789E+01 
  68169.9441     0.32440E+01 
  68202.2062     0.33104E+01 
  68234.4684     0.33779E+01 
  68266.7306     0.34467E+01 
  68298.9927     0.35167E+01 
  68331.2549     0.35879E+01 
  68363.5170     0.36605E+01 
  68395.7792     0.37343E+01 
  68428.0414     0.38095E+01 
  68460.3035     0.38860E+01 
  68492.5657     0.39639E+01 
  68524.8278     0.40431E+01 
  68557.0900     0.41238E+01 
  68589.3522     0.42059E+01 
  68621.6143     0.42894E+01 
  68653.8765     0.43744E+01 
  68686.1386     0.44609E+01 
  68718.4008     0.45489E+01 
  68750.6630     0.46385E+01 
  68782.9251     0.47296E+01 
  68815.1873     0.48223E+01 
  68847.4494     0.49166E+01 
  68879.7116     0.50125E+01 
  68911.9738     0.51101E+01 
  68944.2359     0.52094E+01 
  68976.4981     0.53104E+01 
  69008.7602     0.54131E+01 
  69041.0224     0.55176E+01 
  69073.2846     0.56238E+01 
  69105.5467     0.57319E+01 
  69137.8089     0.58418E+01 
  69170.0710     0.59535E+01 
  69202.3332     0.60672E+01 
  69234.5954     0.61827E+01 
  69266.8575     0.63002E+01 
  69299.1197     0.64197E+01 
  69331.3818     0.65412E+01 
  69363.6440     0.66646E+01 
  69395.9062     0.67902E+01 
  69428.1683     0.69178E+01 
  69460.4305     0.70475E+01 
  69492.6926     0.71793E+01 
  69524.9548     0.73133E+01 
  69557.2170     0.74495E+01 
  69589.4791     0.75879E+01 
  69621.7413     0.77286E+01 
  69654.0034     0.78716E+01 
  69686.2656     0.80168E+01 
  69718.5278     0.81644E+01 
  69750.7899     0.83144E+01 
  69783.0521     0.84668E+01 
  69815.3142     0.86216E+01 
  69847.5764     0.87789E+01 
  69879.8386     0.89386E+01 
  69912.1007     0.91009E+01 
  69944.3629     0.92658E+01 
  69976.6250     0.94332E+01 
  70008.8872     0.96033E+01 
  70041.1494     0.97760E+01 
  70073.4115     0.99514E+01 
  70105.6737     0.10129E+02 
  70137.9358     0.10310E+02 
  70170.1980     0.10494E+02 
  70202.4602     0.10680E+02 
  70234.7223     0.10870E+02 
  70266.9845     0.11062E+02 
  70299.2466     0.11257E+02 
  70331.5088     0.11455E+02 
  70363.7710     0.11656E+02 
  70396.0331     0.11860E+02 
  70428.2953     0.12067E+02 
  70460.5574     0.12277E+02 
  70492.8196     0.12491E+02 
  70525.0818     0.12707E+02 
  70557.3439     0.12927E+02 
  70589.6061     0.13150E+02 
  70621.8682     0.13376E+02 
  70654.1304     0.13605E+02 
  70686.3926     0.13838E+02 
  70718.6547     0.14074E+02 
  70750.9169     0.14314E+02 
  70783.1790     0.14557E+02 
  70815.4412     0.14803E+02 
  70847.7034     0.15053E+02 
  70879.9655     0.15306E+02 
  70912.2277     0.15563E+02 
  70944.4898     0.15824E+02 
  70976.7520     0.16088E+02 
  71009.0142     0.16356E+02 
  71041.2763     0.16628E+02 
  71073.5385     0.16903E+02 
  71105.8006     0.17182E+02 
  71138.0628     0.17465E+02 
  71170.3250     0.17752E+02 
  71202.5871     0.18043E+02 
  71234.8493     0.18337E+02 
  71267.1114     0.18636E+02 
  71299.3736     0.18939E+02 
  71331.6358     0.19245E+02 
  71363.8979     0.19556E+02 
  71396.1601     0.19871E+02 
  71428.4222     0.20190E+02 
  71460.6844     0.20513E+02 
  71492.9466     0.20840E+02 
  71525.2087     0.21172E+02 
  71557.4709     0.21508E+02 
  71589.7330     0.21848E+02 
  71621.9952     0.22192E+02 
  71654.2574     0.22541E+02 
  71686.5195     0.22894E+02 
  71718.7817     0.23252E+02 
  71751.0438     0.23614E+02 
  71783.3060     0.23981E+02 
  71815.5682     0.24352E+02 
  71847.8303     0.24728E+02 
  71880.0925     0.25108E+02 
  71912.3546     0.25493E+02 
  71944.6168     0.25883E+02 
  71976.8790     0.26278E+02 
  72009.1411     0.26677E+02 
  72041.4033     0.27081E+02 
  72073.6654     0.27489E+02 
  72105.9276     0.27903E+02 
  72138.1898     0.28321E+02 
  72170.4519     0.28745E+02 
  72202.7141     0.29173E+02 
  72234.9762     0.29606E+02 
  72267.2384     0.30044E+02 
  72299.5006     0.30487E+02 
  72331.7627     0.30936E+02 
  72364.0249     0.31389E+02 
  72396.2870     0.31847E+02 
  72428.5492     0.32311E+02 
  72460.8114     0.32779E+02 
  72493.0735     0.33253E+02 
  72525.3357     0.33732E+02 
  72557.5978     0.34216E+02 
  72589.8600     0.34706E+02 
