  32262.1600     0.18925E+02 
  32294.4222     0.19172E+02 
  32326.6843     0.19422E+02 
  32358.9465     0.19674E+02 
  32391.2086     0.19928E+02 
  32423.4708     0.20185E+02 
  32455.7330     0.20443E+02 
  32487.9951     0.20704E+02 
  32520.2573     0.20967E+02 
  32552.5194     0.21233E+02 
  32584.7816     0.21500E+02 
  32617.0438     0.21770E+02 
  32649.3059     0.22043E+02 
  32681.5681     0.22317E+02 
  32713.8302     0.22594E+02 
  32746.0924     0.22873E+02 
  32778.3546     0.23154E+02 
  32810.6167     0.23438E+02 
  32842.8789     0.23723E+02 
  32875.1410     0.24012E+02 
  32907.4032     0.24302E+02 
  32939.6654     0.24595E+02 
  32971.9275     0.24889E+02 
  33004.1897     0.25187E+02 
  33036.4518     0.25486E+02 
  33068.7140     0.25788E+02 
  33100.9762     0.26091E+02 
  33133.2383     0.26398E+02 
  33165.5005     0.26706E+02 
  33197.7626     0.27017E+02 
  33230.0248     0.27329E+02 
  33262.2870     0.27645E+02 
  33294.5491     0.27962E+02 
  33326.8113     0.28281E+02 
  33359.0734     0.28603E+02 
  33391.3356     0.28927E+02 
  33423.5978     0.29253E+02 
  33455.8599     0.29582E+02 
  33488.1221     0.29912E+02 
  33520.3842     0.30245E+02 
  33552.6464     0.30580E+02 
  33584.9086     0.30917E+02 
  33617.1707     0.31256E+02 
  33649.4329     0.31598E+02 
  33681.6950     0.31941E+02 
  33713.9572     0.32287E+02 
  33746.2194     0.32635E+02 
  33778.4815     0.32985E+02 
  33810.7437     0.33337E+02 
  33843.0058     0.33691E+02 
  33875.2680     0.34047E+02 
  33907.5302     0.34406E+02 
  33939.7923     0.34766E+02 
  33972.0545     0.35128E+02 
  34004.3166     0.35493E+02 
  34036.5788     0.35859E+02 
  34068.8410     0.36228E+02 
  34101.1031     0.36598E+02 
  34133.3653     0.36971E+02 
  34165.6274     0.37345E+02 
  34197.8896     0.37722E+02 
  34230.1518     0.38100E+02 
  34262.4139     0.38480E+02 
  34294.6761     0.38862E+02 
  34326.9382     0.39246E+02 
  34359.2004     0.39632E+02 
  34391.4626     0.40020E+02 
  34423.7247     0.40410E+02 
  34455.9869     0.40801E+02 
  34488.2490     0.41194E+02 
  34520.5112     0.41589E+02 
  34552.7734     0.41986E+02 
  34585.0355     0.42385E+02 
  34617.2977     0.42785E+02 
  34649.5598     0.43187E+02 
  34681.8220     0.43591E+02 
  34714.0842     0.43996E+02 
  34746.3463     0.44403E+02 
  34778.6085     0.44812E+02 
  34810.8706     0.45222E+02 
  34843.1328     0.45634E+02 
  34875.3950     0.46047E+02 
  34907.6571     0.46462E+02 
  34939.9193     0.46879E+02 
  34972.1814     0.47297E+02 
  35004.4436     0.47716E+02 
  35036.7058     0.48137E+02 
  35068.9679     0.48559E+02 
  35101.2301     0.48983E+02 
  35133.4922     0.49408E+02 
  35165.7544     0.49835E+02 
  35198.0166     0.50262E+02 
  35230.2787     0.50692E+02 
  35262.5409     0.51122E+02 
  35294.8030     0.51554E+02 
  35327.0652     0.51986E+02 
  35359.3274     0.52420E+02 
  35391.5895     0.52856E+02 
  35423.8517     0.53292E+02 
  35456.1138     0.53730E+02 
  35488.3760     0.54168E+02 
  35520.6382     0.54608E+02 
  35552.9003     0.55048E+02 
  35585.1625     0.55490E+02 
  35617.4246     0.55933E+02 
  35649.6868     0.56376E+02 
  35681.9490     0.56821E+02 
  35714.2111     0.57266E+02 
  35746.4733     0.57713E+02 
  35778.7354     0.58160E+02 
  35810.9976     0.58608E+02 
  35843.2598     0.59056E+02 
  35875.5219     0.59506E+02 
  35907.7841     0.59956E+02 
  35940.0462     0.60407E+02 
  35972.3084     0.60858E+02 
  36004.5706     0.61310E+02 
  36036.8327     0.61763E+02 
  36069.0949     0.62216E+02 
  36101.3570     0.62670E+02 
  36133.6192     0.63124E+02 
  36165.8814     0.63578E+02 
  36198.1435     0.64033E+02 
  36230.4057     0.64489E+02 
  36262.6678     0.64945E+02 
  36294.9300     0.65401E+02 
  36327.1922     0.65857E+02 
  36359.4543     0.66314E+02 
  36391.7165     0.66771E+02 
  36423.9786     0.67228E+02 
  36456.2408     0.67685E+02 
  36488.5030     0.68142E+02 
  36520.7651     0.68599E+02 
  36553.0273     0.69057E+02 
  36585.2894     0.69514E+02 
  36617.5516     0.69972E+02 
  36649.8138     0.70429E+02 
  36682.0759     0.70886E+02 
  36714.3381     0.71343E+02 
  36746.6002     0.71800E+02 
  36778.8624     0.72257E+02 
  36811.1246     0.72714E+02 
  36843.3867     0.73170E+02 
  36875.6489     0.73626E+02 
  36907.9110     0.74081E+02 
  36940.1732     0.74537E+02 
  36972.4354     0.74991E+02 
  37004.6975     0.75446E+02 
  37036.9597     0.75900E+02 
  37069.2218     0.76353E+02 
  37101.4840     0.76806E+02 
  37133.7462     0.77258E+02 
  37166.0083     0.77710E+02 
  37198.2705     0.78160E+02 
  37230.5326     0.78611E+02 
  37262.7948     0.79060E+02 
  37295.0570     0.79509E+02 
  37327.3191     0.79957E+02 
  37359.5813     0.80403E+02 
  37391.8434     0.80850E+02 
  37424.1056     0.81295E+02 
  37456.3678     0.81739E+02 
  37488.6299     0.82182E+02 
  37520.8921     0.82624E+02 
  37553.1542     0.83066E+02 
  37585.4164     0.83506E+02 
  37617.6786     0.83945E+02 
  37649.9407     0.84382E+02 
  37682.2029     0.84819E+02 
  37714.4650     0.85254E+02 
  37746.7272     0.85688E+02 
  37778.9894     0.86121E+02 
  37811.2515     0.86552E+02 
  37843.5137     0.86982E+02 
  37875.7758     0.87410E+02 
  37908.0380     0.87837E+02 
  37940.3002     0.88263E+02 
  37972.5623     0.88687E+02 
  38004.8245     0.89109E+02 
  38037.0866     0.89530E+02 
  38069.3488     0.89949E+02 
  38101.6110     0.90367E+02 
  38133.8731     0.90783E+02 
  38166.1353     0.91197E+02 
  38198.3974     0.91609E+02 
  38230.6596     0.92020E+02 
  38262.9218     0.92428E+02 
  38295.1839     0.92835E+02 
  38327.4461     0.93240E+02 
  38359.7082     0.93643E+02 
  38391.9704     0.94044E+02 
  38424.2326     0.94443E+02 
  38456.4947     0.94839E+02 
  38488.7569     0.95234E+02 
  38521.0190     0.95627E+02 
  38553.2812     0.96017E+02 
  38585.5434     0.96406E+02 
  38617.8055     0.96792E+02 
  38650.0677     0.97176E+02 
  38682.3298     0.97558E+02 
  38714.5920     0.97937E+02 
  38746.8542     0.98314E+02 
  38779.1163     0.98689E+02 
  38811.3785     0.99061E+02 
  38843.6406     0.99431E+02 
  38875.9028     0.99798E+02 
  38908.1650     0.10016E+03 
  38940.4271     0.10053E+03 
  38972.6893     0.10089E+03 
  39004.9514     0.10124E+03 
  39037.2136     0.10160E+03 
  39069.4758     0.10195E+03 
  39101.7379     0.10230E+03 
  39134.0001     0.10265E+03 
  39166.2622     0.10299E+03 
  39198.5244     0.10333E+03 
  39230.7866     0.10367E+03 
  39263.0487     0.10400E+03 
  39295.3109     0.10434E+03 
  39327.5730     0.10467E+03 
  39359.8352     0.10499E+03 
  39392.0974     0.10532E+03 
  39424.3595     0.10564E+03 
  39456.6217     0.10596E+03 
  39488.8838     0.10627E+03 
  39521.1460     0.10659E+03 
  39553.4082     0.10690E+03 
  39585.6703     0.10720E+03 
  39617.9325     0.10751E+03 
  39650.1946     0.10781E+03 
  39682.4568     0.10810E+03 
  39714.7190     0.10840E+03 
  39746.9811     0.10869E+03 
  39779.2433     0.10897E+03 
  39811.5054     0.10926E+03 
  39843.7676     0.10954E+03 
  39876.0298     0.10982E+03 
  39908.2919     0.11009E+03 
  39940.5541     0.11036E+03 
  39972.8162     0.11063E+03 
  40005.0784     0.11090E+03 
  40037.3406     0.11116E+03 
  40069.6027     0.11142E+03 
  40101.8649     0.11167E+03 
  40134.1270     0.11192E+03 
  40166.3892     0.11217E+03 
  40198.6514     0.11241E+03 
  40230.9135     0.11265E+03 
  40263.1757     0.11289E+03 
  40295.4378     0.11313E+03 
  40327.7000     0.11336E+03 
  40359.9622     0.11358E+03 
  40392.2243     0.11381E+03 
  40424.4865     0.11403E+03 
  40456.7486     0.11424E+03 
  40489.0108     0.11445E+03 
  40521.2730     0.11466E+03 
  40553.5351     0.11487E+03 
  40585.7973     0.11507E+03 
  40618.0594     0.11527E+03 
  40650.3216     0.11546E+03 
  40682.5838     0.11565E+03 
  40714.8459     0.11584E+03 
  40747.1081     0.11603E+03 
  40779.3702     0.11621E+03 
  40811.6324     0.11638E+03 
  40843.8946     0.11655E+03 
  40876.1567     0.11672E+03 
  40908.4189     0.11689E+03 
  40940.6810     0.11705E+03 
  40972.9432     0.11721E+03 
  41005.2054     0.11736E+03 
  41037.4675     0.11751E+03 
  41069.7297     0.11766E+03 
  41101.9918     0.11780E+03 
  41134.2540     0.11794E+03 
  41166.5162     0.11807E+03 
  41198.7783     0.11820E+03 
  41231.0405     0.11833E+03 
  41263.3026     0.11845E+03 
  41295.5648     0.11857E+03 
  41327.8270     0.11869E+03 
  41360.0891     0.11880E+03 
  41392.3513     0.11891E+03 
  41424.6134     0.11902E+03 
  41456.8756     0.11912E+03 
  41489.1378     0.11921E+03 
  41521.3999     0.11931E+03 
  41553.6621     0.11940E+03 
  41585.9242     0.11948E+03 
  41618.1864     0.11956E+03 
  41650.4486     0.11964E+03 
  41682.7107     0.11971E+03 
  41714.9729     0.11978E+03 
  41747.2350     0.11985E+03 
  41779.4972     0.11991E+03 
  41811.7594     0.11997E+03 
  41844.0215     0.12003E+03 
  41876.2837     0.12008E+03 
  41908.5458     0.12013E+03 
  41940.8080     0.12017E+03 
  41973.0702     0.12021E+03 
  42005.3323     0.12024E+03 
  42037.5945     0.12028E+03 
  42069.8566     0.12030E+03 
  42102.1188     0.12033E+03 
  42134.3810     0.12035E+03 
  42166.6431     0.12037E+03 
  42198.9053     0.12038E+03 
  42231.1674     0.12039E+03 
  42263.4296     0.12039E+03 
  42295.6918     0.12040E+03 
  42327.9539     0.12039E+03 
  42360.2161     0.12039E+03 
  42392.4782     0.12038E+03 
  42424.7404     0.12037E+03 
  42457.0026     0.12035E+03 
  42489.2647     0.12033E+03 
  42521.5269     0.12031E+03 
  42553.7890     0.12028E+03 
  42586.0512     0.12025E+03 
  42618.3134     0.12021E+03 
  42650.5755     0.12017E+03 
  42682.8377     0.12013E+03 
  42715.0998     0.12008E+03 
  42747.3620     0.12003E+03 
  42779.6242     0.11998E+03 
  42811.8863     0.11992E+03 
  42844.1485     0.11986E+03 
  42876.4106     0.11980E+03 
  42908.6728     0.11973E+03 
  42940.9350     0.11966E+03 
  42973.1971     0.11959E+03 
  43005.4593     0.11951E+03 
  43037.7214     0.11943E+03 
  43069.9836     0.11934E+03 
  43102.2458     0.11925E+03 
  43134.5079     0.11916E+03 
  43166.7701     0.11906E+03 
  43199.0322     0.11896E+03 
  43231.2944     0.11886E+03 
  43263.5566     0.11876E+03 
  43295.8187     0.11865E+03 
  43328.0809     0.11853E+03 
  43360.3430     0.11842E+03 
  43392.6052     0.11830E+03 
  43424.8674     0.11818E+03 
  43457.1295     0.11805E+03 
  43489.3917     0.11792E+03 
  43521.6538     0.11779E+03 
  43553.9160     0.11765E+03 
  43586.1782     0.11751E+03 
  43618.4403     0.11737E+03 
  43650.7025     0.11723E+03 
  43682.9646     0.11708E+03 
  43715.2268     0.11693E+03 
  43747.4890     0.11677E+03 
  43779.7511     0.11661E+03 
  43812.0133     0.11645E+03 
  43844.2754     0.11629E+03 
  43876.5376     0.11612E+03 
  43908.7998     0.11595E+03 
  43941.0619     0.11578E+03 
  43973.3241     0.11560E+03 
  44005.5862     0.11542E+03 
  44037.8484     0.11524E+03 
  44070.1106     0.11506E+03 
  44102.3727     0.11487E+03 
  44134.6349     0.11468E+03 
  44166.8970     0.11448E+03 
  44199.1592     0.11429E+03 
  44231.4214     0.11409E+03 
  44263.6835     0.11389E+03 
  44295.9457     0.11368E+03 
  44328.2078     0.11347E+03 
  44360.4700     0.11326E+03 
  44392.7322     0.11305E+03 
  44424.9943     0.11283E+03 
  44457.2565     0.11262E+03 
  44489.5186     0.11240E+03 
  44521.7808     0.11217E+03 
  44554.0430     0.11194E+03 
  44586.3051     0.11172E+03 
  44618.5673     0.11148E+03 
  44650.8294     0.11125E+03 
  44683.0916     0.11101E+03 
  44715.3538     0.11078E+03 
  44747.6159     0.11053E+03 
  44779.8781     0.11029E+03 
  44812.1402     0.11004E+03 
  44844.4024     0.10980E+03 
  44876.6646     0.10954E+03 
  44908.9267     0.10929E+03 
  44941.1889     0.10904E+03 
  44973.4510     0.10878E+03 
  45005.7132     0.10852E+03 
  45037.9754     0.10825E+03 
  45070.2375     0.10799E+03 
  45102.4997     0.10772E+03 
  45134.7618     0.10745E+03 
  45167.0240     0.10718E+03 
  45199.2862     0.10691E+03 
  45231.5483     0.10663E+03 
  45263.8105     0.10636E+03 
  45296.0726     0.10608E+03 
  45328.3348     0.10580E+03 
  45360.5970     0.10551E+03 
  45392.8591     0.10523E+03 
  45425.1213     0.10494E+03 
  45457.3834     0.10465E+03 
  45489.6456     0.10436E+03 
  45521.9078     0.10407E+03 
  45554.1699     0.10377E+03 
  45586.4321     0.10348E+03 
  45618.6942     0.10318E+03 
  45650.9564     0.10288E+03 
  45683.2186     0.10257E+03 
  45715.4807     0.10227E+03 
  45747.7429     0.10197E+03 
  45780.0050     0.10166E+03 
  45812.2672     0.10135E+03 
  45844.5294     0.10104E+03 
  45876.7915     0.10073E+03 
  45909.0537     0.10041E+03 
  45941.3158     0.10010E+03 
  45973.5780     0.99783E+02 
  46005.8402     0.99465E+02 
  46038.1023     0.99145E+02 
  46070.3645     0.98824E+02 
  46102.6266     0.98502E+02 
  46134.8888     0.98178E+02 
  46167.1510     0.97853E+02 
  46199.4131     0.97527E+02 
  46231.6753     0.97199E+02 
  46263.9374     0.96870E+02 
  46296.1996     0.96540E+02 
  46328.4618     0.96208E+02 
  46360.7239     0.95876E+02 
  46392.9861     0.95542E+02 
  46425.2482     0.95207E+02 
  46457.5104     0.94870E+02 
  46489.7726     0.94533E+02 
  46522.0347     0.94195E+02 
  46554.2969     0.93855E+02 
  46586.5590     0.93515E+02 
  46618.8212     0.93173E+02 
  46651.0834     0.92831E+02 
  46683.3455     0.92487E+02 
  46715.6077     0.92143E+02 
  46747.8698     0.91797E+02 
  46780.1320     0.91451E+02 
  46812.3942     0.91104E+02 
  46844.6563     0.90756E+02 
  46876.9185     0.90407E+02 
  46909.1806     0.90057E+02 
  46941.4428     0.89707E+02 
  46973.7050     0.89355E+02 
  47005.9671     0.89003E+02 
  47038.2293     0.88651E+02 
  47070.4914     0.88297E+02 
  47102.7536     0.87943E+02 
  47135.0158     0.87589E+02 
  47167.2779     0.87233E+02 
  47199.5401     0.86877E+02 
  47231.8022     0.86521E+02 
  47264.0644     0.86164E+02 
  47296.3266     0.85806E+02 
  47328.5887     0.85448E+02 
  47360.8509     0.85089E+02 
  47393.1130     0.84730E+02 
  47425.3752     0.84371E+02 
  47457.6374     0.84011E+02 
  47489.8995     0.83650E+02 
  47522.1617     0.83290E+02 
  47554.4238     0.82929E+02 
  47586.6860     0.82567E+02 
  47618.9482     0.82205E+02 
  47651.2103     0.81843E+02 
  47683.4725     0.81481E+02 
  47715.7346     0.81118E+02 
  47747.9968     0.80756E+02 
  47780.2590     0.80392E+02 
  47812.5211     0.80029E+02 
  47844.7833     0.79666E+02 
  47877.0454     0.79302E+02 
  47909.3076     0.78938E+02 
  47941.5698     0.78575E+02 
  47973.8319     0.78211E+02 
  48006.0941     0.77847E+02 
  48038.3562     0.77483E+02 
  48070.6184     0.77118E+02 
  48102.8806     0.76754E+02 
  48135.1427     0.76390E+02 
  48167.4049     0.76026E+02 
  48199.6670     0.75662E+02 
  48231.9292     0.75298E+02 
  48264.1914     0.74934E+02 
  48296.4535     0.74570E+02 
  48328.7157     0.74206E+02 
  48360.9778     0.73842E+02 
  48393.2400     0.73479E+02 
  48425.5022     0.73116E+02 
  48457.7643     0.72752E+02 
  48490.0265     0.72389E+02 
  48522.2886     0.72027E+02 
  48554.5508     0.71664E+02 
  48586.8130     0.71302E+02 
  48619.0751     0.70940E+02 
  48651.3373     0.70578E+02 
  48683.5994     0.70216E+02 
  48715.8616     0.69855E+02 
  48748.1238     0.69494E+02 
  48780.3859     0.69134E+02 
  48812.6481     0.68774E+02 
  48844.9102     0.68414E+02 
  48877.1724     0.68055E+02 
  48909.4346     0.67696E+02 
  48941.6967     0.67337E+02 
  48973.9589     0.66979E+02 
  49006.2210     0.66621E+02 
  49038.4832     0.66264E+02 
  49070.7454     0.65908E+02 
  49103.0075     0.65551E+02 
  49135.2697     0.65196E+02 
  49167.5318     0.64840E+02 
  49199.7940     0.64486E+02 
  49232.0562     0.64132E+02 
  49264.3183     0.63778E+02 
  49296.5805     0.63425E+02 
  49328.8426     0.63073E+02 
  49361.1048     0.62721E+02 
  49393.3670     0.62370E+02 
  49425.6291     0.62019E+02 
  49457.8913     0.61669E+02 
  49490.1534     0.61320E+02 
  49522.4156     0.60972E+02 
  49554.6778     0.60624E+02 
  49586.9399     0.60277E+02 
  49619.2021     0.59930E+02 
  49651.4642     0.59584E+02 
  49683.7264     0.59239E+02 
  49715.9886     0.58895E+02 
  49748.2507     0.58551E+02 
  49780.5129     0.58208E+02 
  49812.7750     0.57866E+02 
  49845.0372     0.57525E+02 
  49877.2994     0.57185E+02 
  49909.5615     0.56845E+02 
  49941.8237     0.56506E+02 
  49974.0858     0.56168E+02 
  50006.3480     0.55831E+02 
  50038.6102     0.55495E+02 
  50070.8723     0.55159E+02 
  50103.1345     0.54825E+02 
  50135.3966     0.54491E+02 
  50167.6588     0.54158E+02 
  50199.9210     0.53826E+02 
  50232.1831     0.53495E+02 
  50264.4453     0.53165E+02 
  50296.7074     0.52835E+02 
  50328.9696     0.52507E+02 
  50361.2318     0.52180E+02 
  50393.4939     0.51853E+02 
  50425.7561     0.51528E+02 
  50458.0182     0.51203E+02 
  50490.2804     0.50880E+02 
  50522.5426     0.50557E+02 
  50554.8047     0.50235E+02 
  50587.0669     0.49915E+02 
  50619.3290     0.49595E+02 
  50651.5912     0.49276E+02 
  50683.8534     0.48959E+02 
  50716.1155     0.48642E+02 
  50748.3777     0.48327E+02 
  50780.6398     0.48012E+02 
  50812.9020     0.47699E+02 
  50845.1642     0.47386E+02 
  50877.4263     0.47075E+02 
  50909.6885     0.46764E+02 
  50941.9506     0.46455E+02 
  50974.2128     0.46147E+02 
  51006.4750     0.45840E+02 
  51038.7371     0.45534E+02 
  51070.9993     0.45229E+02 
  51103.2614     0.44925E+02 
  51135.5236     0.44622E+02 
  51167.7858     0.44320E+02 
  51200.0479     0.44020E+02 
  51232.3101     0.43720E+02 
  51264.5722     0.43422E+02 
  51296.8344     0.43125E+02 
  51329.0966     0.42829E+02 
  51361.3587     0.42534E+02 
  51393.6209     0.42240E+02 
  51425.8830     0.41947E+02 
  51458.1452     0.41656E+02 
  51490.4074     0.41365E+02 
  51522.6695     0.41076E+02 
  51554.9317     0.40788E+02 
  51587.1938     0.40501E+02 
  51619.4560     0.40215E+02 
  51651.7182     0.39931E+02 
  51683.9803     0.39647E+02 
  51716.2425     0.39365E+02 
  51748.5046     0.39084E+02 
  51780.7668     0.38804E+02 
  51813.0290     0.38525E+02 
  51845.2911     0.38247E+02 
  51877.5533     0.37971E+02 
  51909.8154     0.37696E+02 
  51942.0776     0.37422E+02 
  51974.3398     0.37149E+02 
  52006.6019     0.36877E+02 
  52038.8641     0.36607E+02 
  52071.1262     0.36338E+02 
  52103.3884     0.36070E+02 
  52135.6506     0.35803E+02 
  52167.9127     0.35537E+02 
  52200.1749     0.35273E+02 
  52232.4370     0.35010E+02 
  52264.6992     0.34748E+02 
  52296.9614     0.34487E+02 
  52329.2235     0.34227E+02 
  52361.4857     0.33969E+02 
  52393.7478     0.33712E+02 
  52426.0100     0.33456E+02 
  52458.2722     0.33201E+02 
  52490.5343     0.32947E+02 
  52522.7965     0.32695E+02 
  52555.0586     0.32444E+02 
  52587.3208     0.32194E+02 
  52619.5830     0.31945E+02 
  52651.8451     0.31698E+02 
  52684.1073     0.31452E+02 
  52716.3694     0.31207E+02 
  52748.6316     0.30963E+02 
  52780.8938     0.30720E+02 
  52813.1559     0.30479E+02 
  52845.4181     0.30239E+02 
  52877.6802     0.30000E+02 
  52909.9424     0.29762E+02 
  52942.2046     0.29525E+02 
  52974.4667     0.29290E+02 
  53006.7289     0.29056E+02 
  53038.9910     0.28823E+02 
  53071.2532     0.28591E+02 
  53103.5154     0.28361E+02 
  53135.7775     0.28131E+02 
  53168.0397     0.27903E+02 
  53200.3018     0.27677E+02 
  53232.5640     0.27451E+02 
  53264.8262     0.27226E+02 
  53297.0883     0.27003E+02 
  53329.3505     0.26781E+02 
  53361.6126     0.26560E+02 
  53393.8748     0.26341E+02 
  53426.1370     0.26122E+02 
  53458.3991     0.25905E+02 
  53490.6613     0.25689E+02 
  53522.9234     0.25474E+02 
  53555.1856     0.25260E+02 
  53587.4478     0.25048E+02 
  53619.7099     0.24836E+02 
  53651.9721     0.24626E+02 
  53684.2342     0.24417E+02 
  53716.4964     0.24210E+02 
  53748.7586     0.24003E+02 
  53781.0207     0.23798E+02 
  53813.2829     0.23593E+02 
  53845.5450     0.23390E+02 
  53877.8072     0.23188E+02 
  53910.0694     0.22988E+02 
  53942.3315     0.22788E+02 
  53974.5937     0.22590E+02 
  54006.8558     0.22392E+02 
  54039.1180     0.22196E+02 
  54071.3802     0.22001E+02 
  54103.6423     0.21808E+02 
  54135.9045     0.21615E+02 
  54168.1666     0.21424E+02 
  54200.4288     0.21233E+02 
  54232.6910     0.21044E+02 
  54264.9531     0.20856E+02 
  54297.2153     0.20669E+02 
  54329.4774     0.20483E+02 
  54361.7396     0.20298E+02 
  54394.0018     0.20115E+02 
  54426.2639     0.19932E+02 
  54458.5261     0.19751E+02 
  54490.7882     0.19571E+02 
  54523.0504     0.19392E+02 
  54555.3126     0.19214E+02 
  54587.5747     0.19037E+02 
  54619.8369     0.18861E+02 
  54652.0990     0.18687E+02 
  54684.3612     0.18513E+02 
  54716.6234     0.18340E+02 
  54748.8855     0.18169E+02 
  54781.1477     0.17999E+02 
  54813.4098     0.17830E+02 
  54845.6720     0.17661E+02 
  54877.9342     0.17494E+02 
  54910.1963     0.17328E+02 
  54942.4585     0.17163E+02 
  54974.7206     0.16999E+02 
  55006.9828     0.16837E+02 
  55039.2450     0.16675E+02 
  55071.5071     0.16514E+02 
  55103.7693     0.16355E+02 
  55136.0314     0.16196E+02 
  55168.2936     0.16038E+02 
  55200.5558     0.15882E+02 
  55232.8179     0.15726E+02 
  55265.0801     0.15572E+02 
  55297.3422     0.15418E+02 
  55329.6044     0.15266E+02 
  55361.8666     0.15115E+02 
  55394.1287     0.14964E+02 
  55426.3909     0.14815E+02 
  55458.6530     0.14666E+02 
  55490.9152     0.14519E+02 
  55523.1774     0.14373E+02 
  55555.4395     0.14227E+02 
  55587.7017     0.14083E+02 
  55619.9638     0.13940E+02 
  55652.2260     0.13797E+02 
  55684.4882     0.13656E+02 
  55716.7503     0.13515E+02 
  55749.0125     0.13376E+02 
  55781.2746     0.13237E+02 
  55813.5368     0.13100E+02 
  55845.7990     0.12963E+02 
  55878.0611     0.12827E+02 
  55910.3233     0.12693E+02 
  55942.5854     0.12559E+02 
  55974.8476     0.12426E+02 
  56007.1098     0.12294E+02 
  56039.3719     0.12163E+02 
  56071.6341     0.12033E+02 
  56103.8962     0.11904E+02 
  56136.1584     0.11776E+02 
  56168.4206     0.11649E+02 
  56200.6827     0.11522E+02 
  56232.9449     0.11397E+02 
  56265.2070     0.11273E+02 
  56297.4692     0.11149E+02 
  56329.7314     0.11026E+02 
  56361.9935     0.10904E+02 
  56394.2557     0.10783E+02 
  56426.5178     0.10663E+02 
  56458.7800     0.10544E+02 
  56491.0422     0.10426E+02 
  56523.3043     0.10309E+02 
  56555.5665     0.10192E+02 
  56587.8286     0.10076E+02 
  56620.0908     0.99615E+01 
  56652.3530     0.98475E+01 
  56684.6151     0.97344E+01 
  56716.8773     0.96221E+01 
  56749.1394     0.95107E+01 
  56781.4016     0.94001E+01 
  56813.6638     0.92904E+01 
  56845.9259     0.91815E+01 
  56878.1881     0.90734E+01 
  56910.4502     0.89661E+01 
  56942.7124     0.88597E+01 
  56974.9746     0.87541E+01 
  57007.2367     0.86492E+01 
  57039.4989     0.85452E+01 
  57071.7610     0.84420E+01 
  57104.0232     0.83396E+01 
  57136.2854     0.82380E+01 
  57168.5475     0.81372E+01 
  57200.8097     0.80372E+01 
  57233.0718     0.79379E+01 
  57265.3340     0.78394E+01 
  57297.5962     0.77417E+01 
  57329.8583     0.76448E+01 
  57362.1205     0.75487E+01 
  57394.3826     0.74533E+01 
  57426.6448     0.73587E+01 
  57458.9070     0.72648E+01 
  57491.1691     0.71717E+01 
  57523.4313     0.70793E+01 
  57555.6934     0.69877E+01 
  57587.9556     0.68968E+01 
  57620.2178     0.68067E+01 
  57652.4799     0.67173E+01 
  57684.7421     0.66286E+01 
  57717.0042     0.65407E+01 
  57749.2664     0.64534E+01 
  57781.5286     0.63669E+01 
  57813.7907     0.62812E+01 
  57846.0529     0.61961E+01 
  57878.3150     0.61117E+01 
  57910.5772     0.60280E+01 
  57942.8394     0.59451E+01 
  57975.1015     0.58628E+01 
  58007.3637     0.57813E+01 
  58039.6258     0.57004E+01 
  58071.8880     0.56202E+01 
  58104.1502     0.55407E+01 
  58136.4123     0.54619E+01 
  58168.6745     0.53837E+01 
  58200.9366     0.53063E+01 
  58233.1988     0.52295E+01 
  58265.4610     0.51533E+01 
  58297.7231     0.50779E+01 
  58329.9853     0.50031E+01 
  58362.2474     0.49289E+01 
  58394.5096     0.48554E+01 
  58426.7718     0.47826E+01 
  58459.0339     0.47104E+01 
  58491.2961     0.46388E+01 
  58523.5582     0.45679E+01 
  58555.8204     0.44976E+01 
  58588.0826     0.44280E+01 
  58620.3447     0.43590E+01 
  58652.6069     0.42906E+01 
  58684.8690     0.42229E+01 
  58717.1312     0.41558E+01 
  58749.3934     0.40893E+01 
  58781.6555     0.40234E+01 
  58813.9177     0.39581E+01 
  58846.1798     0.38935E+01 
  58878.4420     0.38295E+01 
  58910.7042     0.37660E+01 
  58942.9663     0.37032E+01 
  58975.2285     0.36410E+01 
  59007.4906     0.35793E+01 
  59039.7528     0.35183E+01 
  59072.0150     0.34579E+01 
  59104.2771     0.33980E+01 
  59136.5393     0.33388E+01 
  59168.8014     0.32801E+01 
  59201.0636     0.32220E+01 
  59233.3258     0.31645E+01 
  59265.5879     0.31076E+01 
  59297.8501     0.30512E+01 
  59330.1122     0.29954E+01 
  59362.3744     0.29402E+01 
  59394.6366     0.28856E+01 
  59426.8987     0.28315E+01 
  59459.1609     0.27780E+01 
  59491.4230     0.27251E+01 
  59523.6852     0.26727E+01 
  59555.9474     0.26209E+01 
  59588.2095     0.25697E+01 
  59620.4717     0.25190E+01 
  59652.7338     0.24688E+01 
  59684.9960     0.24192E+01 
  59717.2582     0.23702E+01 
  59749.5203     0.23217E+01 
  59781.7825     0.22737E+01 
  59814.0446     0.22263E+01 
  59846.3068     0.21795E+01 
  59878.5690     0.21332E+01 
  59910.8311     0.20874E+01 
  59943.0933     0.20422E+01 
  59975.3554     0.19975E+01 
  60007.6176     0.19533E+01 
  60039.8798     0.19097E+01 
  60072.1419     0.18666E+01 
  60104.4041     0.18240E+01 
  60136.6662     0.17820E+01 
  60168.9284     0.17405E+01 
  60201.1906     0.16995E+01 
  60233.4527     0.16591E+01 
  60265.7149     0.16191E+01 
  60297.9770     0.15797E+01 
  60330.2392     0.15409E+01 
  60362.5014     0.15025E+01 
  60394.7635     0.14647E+01 
  60427.0257     0.14274E+01 
  60459.2878     0.13906E+01 
  60491.5500     0.13544E+01 
  60523.8122     0.13187E+01 
  60556.0743     0.12834E+01 
  60588.3365     0.12487E+01 
  60620.5986     0.12146E+01 
  60652.8608     0.11809E+01 
  60685.1230     0.11478E+01 
  60717.3851     0.11152E+01 
  60749.6473     0.10831E+01 
  60781.9094     0.10515E+01 
  60814.1716     0.10205E+01 
  60846.4338     0.98992E+00 
  60878.6959     0.95990E+00 
  60910.9581     0.93040E+00 
  60943.2202     0.90143E+00 
  60975.4824     0.87297E+00 
  61007.7446     0.84503E+00 
  61040.0067     0.81762E+00 
  61072.2689     0.79073E+00 
  61104.5310     0.76436E+00 
  61136.7932     0.73851E+00 
  61169.0554     0.71319E+00 
  61201.3175     0.68839E+00 
  61233.5797     0.66412E+00 
  61265.8418     0.64038E+00 
  61298.1040     0.61717E+00 
  61330.3662     0.59448E+00 
  61362.6283     0.57233E+00 
  61394.8905     0.55071E+00 
  61427.1526     0.52962E+00 
  61459.4148     0.50907E+00 
  61491.6770     0.48906E+00 
  61523.9391     0.46959E+00 
  61556.2013     0.45065E+00 
  61588.4634     0.43227E+00 
  61620.7256     0.41442E+00 
  61652.9878     0.39713E+00 
  61685.2499     0.38038E+00 
  61717.5121     0.36419E+00 
  61749.7742     0.34855E+00 
  61782.0364     0.33347E+00 
  61814.2986     0.31895E+00 
  61846.5607     0.30499E+00 
  61878.8229     0.29160E+00 
  61911.0850     0.27878E+00 
  61943.3472     0.26653E+00 
  61975.6094     0.25485E+00 
  62007.8715     0.24376E+00 
  62040.1337     0.23325E+00 
  62072.3958     0.22332E+00 
  62104.6580     0.21398E+00 
  62136.9202     0.20524E+00 
  62169.1823     0.19710E+00 
  62201.4445     0.18956E+00 
  62233.7066     0.18262E+00 
  62265.9688     0.17630E+00 
  62298.2310     0.17059E+00 
  62330.4931     0.16550E+00 
  62362.7553     0.16104E+00 
  62395.0174     0.15720E+00 
  62427.2796     0.15401E+00 
  62459.5418     0.15145E+00 
  62491.8039     0.14954E+00 
  62524.0661     0.14829E+00 
  62556.3282     0.14769E+00 
  62588.5904     0.14775E+00 
  62620.8526     0.14849E+00 
  62653.1147     0.14990E+00 
  62685.3769     0.15200E+00 
  62717.6390     0.15478E+00 
  62749.9012     0.15826E+00 
  62782.1634     0.16245E+00 
  62814.4255     0.16735E+00 
  62846.6877     0.17296E+00 
  62878.9498     0.17930E+00 
  62911.2120     0.18638E+00 
  62943.4742     0.19420E+00 
  62975.7363     0.20277E+00 
  63007.9985     0.21209E+00 
  63040.2606     0.22219E+00 
  63072.5228     0.23306E+00 
  63104.7850     0.24471E+00 
  63137.0471     0.25717E+00 
  63169.3093     0.27042E+00 
  63201.5714     0.28449E+00 
  63233.8336     0.29939E+00 
  63266.0958     0.31512E+00 
  63298.3579     0.33169E+00 
  63330.6201     0.34912E+00 
  63362.8822     0.36742E+00 
  63395.1444     0.38659E+00 
  63427.4066     0.40666E+00 
  63459.6687     0.42762E+00 
  63491.9309     0.44950E+00 
  63524.1930     0.47231E+00 
  63556.4552     0.49606E+00 
  63588.7174     0.52075E+00 
  63620.9795     0.54642E+00 
  63653.2417     0.57306E+00 
  63685.5038     0.60069E+00 
  63717.7660     0.62933E+00 
  63750.0282     0.65899E+00 
  63782.2903     0.68969E+00 
  63814.5525     0.72144E+00 
  63846.8146     0.75426E+00 
  63879.0768     0.78816E+00 
  63911.3390     0.82315E+00 
  63943.6011     0.85927E+00 
  63975.8633     0.89651E+00 
  64008.1254     0.93491E+00 
  64040.3876     0.97447E+00 
  64072.6498     0.10152E+01 
  64104.9119     0.10572E+01 
  64137.1741     0.11003E+01 
  64169.4362     0.11447E+01 
  64201.6984     0.11904E+01 
  64233.9606     0.12374E+01 
  64266.2227     0.12856E+01 
  64298.4849     0.13352E+01 
  64330.7470     0.13861E+01 
  64363.0092     0.14384E+01 
  64395.2714     0.14921E+01 
  64427.5335     0.15472E+01 
  64459.7957     0.16037E+01 
  64492.0578     0.16617E+01 
  64524.3200     0.17211E+01 
  64556.5822     0.17821E+01 
  64588.8443     0.18446E+01 
  64621.1065     0.19086E+01 
  64653.3686     0.19743E+01 
  64685.6308     0.20415E+01 
  64717.8930     0.21104E+01 
  64750.1551     0.21809E+01 
  64782.4173     0.22531E+01 
  64814.6794     0.23271E+01 
  64846.9416     0.24028E+01 
  64879.2038     0.24802E+01 
  64911.4659     0.25595E+01 
  64943.7281     0.26406E+01 
  64975.9902     0.27236E+01 
  65008.2524     0.28085E+01 
  65040.5146     0.28954E+01 
  65072.7767     0.29842E+01 
  65105.0389     0.30750E+01 
  65137.3010     0.31678E+01 
  65169.5632     0.32628E+01 
  65201.8254     0.33598E+01 
  65234.0875     0.34590E+01 
  65266.3497     0.35603E+01 
  65298.6118     0.36639E+01 
  65330.8740     0.37698E+01 
  65363.1362     0.38779E+01 
  65395.3983     0.39884E+01 
  65427.6605     0.41013E+01 
  65459.9226     0.42166E+01 
  65492.1848     0.43344E+01 
  65524.4470     0.44546E+01 
  65556.7091     0.45775E+01 
  65588.9713     0.47029E+01 
  65621.2334     0.48310E+01 
  65653.4956     0.49618E+01 
  65685.7578     0.50953E+01 
  65718.0199     0.52315E+01 
  65750.2821     0.53707E+01 
  65782.5442     0.55127E+01 
  65814.8064     0.56576E+01 
  65847.0686     0.58056E+01 
  65879.3307     0.59565E+01 
  65911.5929     0.61106E+01 
  65943.8550     0.62678E+01 
  65976.1172     0.64283E+01 
  66008.3794     0.65919E+01 
  66040.6415     0.67589E+01 
  66072.9037     0.69293E+01 
  66105.1658     0.71031E+01 
  66137.4280     0.72804E+01 
  66169.6902     0.74612E+01 
  66201.9523     0.76457E+01 
  66234.2145     0.78338E+01 
  66266.4766     0.80257E+01 
  66298.7388     0.82214E+01 
  66331.0010     0.84210E+01 
  66363.2631     0.86245E+01 
  66395.5253     0.88320E+01 
  66427.7874     0.90436E+01 
  66460.0496     0.92593E+01 
  66492.3118     0.94793E+01 
  66524.5739     0.97036E+01 
  66556.8361     0.99322E+01 
  66589.0982     0.10165E+02 
  66621.3604     0.10403E+02 
  66653.6226     0.10645E+02 
  66685.8847     0.10892E+02 
  66718.1469     0.11144E+02 
  66750.4090     0.11400E+02 
  66782.6712     0.11661E+02 
  66814.9334     0.11928E+02 
  66847.1955     0.12199E+02 
  66879.4577     0.12476E+02 
  66911.7198     0.12758E+02 
  66943.9820     0.13045E+02 
  66976.2442     0.13338E+02 
  67008.5063     0.13636E+02 
  67040.7685     0.13939E+02 
  67073.0306     0.14249E+02 
  67105.2928     0.14564E+02 
  67137.5550     0.14886E+02 
  67169.8171     0.15213E+02 
  67202.0793     0.15546E+02 
  67234.3414     0.15886E+02 
  67266.6036     0.16231E+02 
  67298.8658     0.16584E+02 
  67331.1279     0.16942E+02 
  67363.3901     0.17308E+02 
  67395.6522     0.17680E+02 
  67427.9144     0.18059E+02 
  67460.1766     0.18444E+02 
  67492.4387     0.18837E+02 
  67524.7009     0.19237E+02 
  67556.9630     0.19645E+02 
  67589.2252     0.20059E+02 
  67621.4874     0.20482E+02 
  67653.7495     0.20912E+02 
  67686.0117     0.21349E+02 
  67718.2738     0.21795E+02 
  67750.5360     0.22248E+02 
  67782.7982     0.22710E+02 
  67815.0603     0.23180E+02 
  67847.3225     0.23658E+02 
  67879.5846     0.24144E+02 
  67911.8468     0.24640E+02 
  67944.1090     0.25144E+02 
  67976.3711     0.25657E+02 
  68008.6333     0.26179E+02 
  68040.8954     0.26710E+02 
  68073.1576     0.27251E+02 
  68105.4198     0.27801E+02 
  68137.6819     0.28360E+02 
  68169.9441     0.28930E+02 
  68202.2062     0.29509E+02 
  68234.4684     0.30098E+02 
  68266.7306     0.30697E+02 
  68298.9927     0.31307E+02 
  68331.2549     0.31927E+02 
  68363.5170     0.32558E+02 
  68395.7792     0.33200E+02 
  68428.0414     0.33852E+02 
  68460.3035     0.34516E+02 
  68492.5657     0.35190E+02 
  68524.8278     0.35877E+02 
  68557.0900     0.36574E+02 
  68589.3522     0.37284E+02 
  68621.6143     0.38005E+02 
  68653.8765     0.38739E+02 
  68686.1386     0.39485E+02 
  68718.4008     0.40243E+02 
  68750.6630     0.41014E+02 
  68782.9251     0.41797E+02 
  68815.1873     0.42593E+02 
  68847.4494     0.43403E+02 
  68879.7116     0.44226E+02 
  68911.9738     0.45062E+02 
  68944.2359     0.45912E+02 
  68976.4981     0.46775E+02 
  69008.7602     0.47653E+02 
  69041.0224     0.48544E+02 
  69073.2846     0.49451E+02 
  69105.5467     0.50371E+02 
  69137.8089     0.51307E+02 
  69170.0710     0.52257E+02 
  69202.3332     0.53222E+02 
  69234.5954     0.54203E+02 
  69266.8575     0.55199E+02 
  69299.1197     0.56211E+02 
  69331.3818     0.57239E+02 
  69363.6440     0.58283E+02 
  69395.9062     0.59343E+02 
  69428.1683     0.60420E+02 
  69460.4305     0.61513E+02 
  69492.6926     0.62624E+02 
  69524.9548     0.63751E+02 
  69557.2170     0.64896E+02 
  69589.4791     0.66058E+02 
  69621.7413     0.67238E+02 
  69654.0034     0.68436E+02 
  69686.2656     0.69652E+02 
  69718.5278     0.70886E+02 
  69750.7899     0.72139E+02 
  69783.0521     0.73410E+02 
  69815.3142     0.74701E+02 
  69847.5764     0.76011E+02 
  69879.8386     0.77340E+02 
  69912.1007     0.78688E+02 
  69944.3629     0.80057E+02 
  69976.6250     0.81446E+02 
  70008.8872     0.82855E+02 
  70041.1494     0.84284E+02 
  70073.4115     0.85734E+02 
  70105.6737     0.87205E+02 
  70137.9358     0.88698E+02 
  70170.1980     0.90211E+02 
  70202.4602     0.91747E+02 
  70234.7223     0.93304E+02 
  70266.9845     0.94883E+02 
  70299.2466     0.96484E+02 
  70331.5088     0.98108E+02 
  70363.7710     0.99755E+02 
  70396.0331     0.10142E+03 
  70428.2953     0.10312E+03 
  70460.5574     0.10483E+03 
  70492.8196     0.10657E+03 
  70525.0818     0.10834E+03 
  70557.3439     0.11012E+03 
  70589.6061     0.11194E+03 
  70621.8682     0.11377E+03 
  70654.1304     0.11563E+03 
  70686.3926     0.11752E+03 
  70718.6547     0.11943E+03 
  70750.9169     0.12137E+03 
  70783.1790     0.12333E+03 
  70815.4412     0.12532E+03 
  70847.7034     0.12733E+03 
  70879.9655     0.12938E+03 
  70912.2277     0.13144E+03 
  70944.4898     0.13354E+03 
  70976.7520     0.13566E+03 
  71009.0142     0.13781E+03 
  71041.2763     0.13998E+03 
  71073.5385     0.14219E+03 
  71105.8006     0.14442E+03 
  71138.0628     0.14668E+03 
  71170.3250     0.14897E+03 
  71202.5871     0.15128E+03 
  71234.8493     0.15363E+03 
  71267.1114     0.15600E+03 
  71299.3736     0.15841E+03 
  71331.6358     0.16084E+03 
  71363.8979     0.16330E+03 
  71396.1601     0.16580E+03 
  71428.4222     0.16832E+03 
  71460.6844     0.17087E+03 
  71492.9466     0.17345E+03 
  71525.2087     0.17607E+03 
  71557.4709     0.17871E+03 
  71589.7330     0.18139E+03 
  71621.9952     0.18410E+03 
  71654.2574     0.18684E+03 
  71686.5195     0.18961E+03 
  71718.7817     0.19241E+03 
  71751.0438     0.19525E+03 
  71783.3060     0.19811E+03 
  71815.5682     0.20101E+03 
  71847.8303     0.20395E+03 
  71880.0925     0.20691E+03 
  71912.3546     0.20991E+03 
  71944.6168     0.21294E+03 
  71976.8790     0.21601E+03 
  72009.1411     0.21911E+03 
  72041.4033     0.22224E+03 
  72073.6654     0.22541E+03 
  72105.9276     0.22861E+03 
  72138.1898     0.23184E+03 
  72170.4519     0.23511E+03 
  72202.7141     0.23842E+03 
  72234.9762     0.24175E+03 
  72267.2384     0.24513E+03 
  72299.5006     0.24854E+03 
  72331.7627     0.25198E+03 
  72364.0249     0.25546E+03 
  72396.2870     0.25898E+03 
  72428.5492     0.26253E+03 
  72460.8114     0.26612E+03 
  72493.0735     0.26974E+03 
  72525.3357     0.27340E+03 
  72557.5978     0.27709E+03 
  72589.8600     0.28083E+03 
