  32262.1600     0.26087E+02 
  32294.4222     0.26412E+02 
  32326.6843     0.26741E+02 
  32358.9465     0.27072E+02 
  32391.2086     0.27406E+02 
  32423.4708     0.27743E+02 
  32455.7330     0.28082E+02 
  32487.9951     0.28424E+02 
  32520.2573     0.28769E+02 
  32552.5194     0.29117E+02 
  32584.7816     0.29468E+02 
  32617.0438     0.29821E+02 
  32649.3059     0.30177E+02 
  32681.5681     0.30536E+02 
  32713.8302     0.30897E+02 
  32746.0924     0.31262E+02 
  32778.3546     0.31629E+02 
  32810.6167     0.31999E+02 
  32842.8789     0.32371E+02 
  32875.1410     0.32747E+02 
  32907.4032     0.33125E+02 
  32939.6654     0.33506E+02 
  32971.9275     0.33889E+02 
  33004.1897     0.34276E+02 
  33036.4518     0.34665E+02 
  33068.7140     0.35056E+02 
  33100.9762     0.35451E+02 
  33133.2383     0.35848E+02 
  33165.5005     0.36248E+02 
  33197.7626     0.36651E+02 
  33230.0248     0.37056E+02 
  33262.2870     0.37464E+02 
  33294.5491     0.37875E+02 
  33326.8113     0.38288E+02 
  33359.0734     0.38704E+02 
  33391.3356     0.39123E+02 
  33423.5978     0.39545E+02 
  33455.8599     0.39969E+02 
  33488.1221     0.40395E+02 
  33520.3842     0.40825E+02 
  33552.6464     0.41256E+02 
  33584.9086     0.41691E+02 
  33617.1707     0.42128E+02 
  33649.4329     0.42568E+02 
  33681.6950     0.43010E+02 
  33713.9572     0.43455E+02 
  33746.2194     0.43902E+02 
  33778.4815     0.44352E+02 
  33810.7437     0.44804E+02 
  33843.0058     0.45259E+02 
  33875.2680     0.45716E+02 
  33907.5302     0.46176E+02 
  33939.7923     0.46638E+02 
  33972.0545     0.47103E+02 
  34004.3166     0.47570E+02 
  34036.5788     0.48040E+02 
  34068.8410     0.48511E+02 
  34101.1031     0.48986E+02 
  34133.3653     0.49462E+02 
  34165.6274     0.49941E+02 
  34197.8896     0.50423E+02 
  34230.1518     0.50906E+02 
  34262.4139     0.51392E+02 
  34294.6761     0.51880E+02 
  34326.9382     0.52370E+02 
  34359.2004     0.52863E+02 
  34391.4626     0.53358E+02 
  34423.7247     0.53854E+02 
  34455.9869     0.54353E+02 
  34488.2490     0.54855E+02 
  34520.5112     0.55358E+02 
  34552.7734     0.55863E+02 
  34585.0355     0.56371E+02 
  34617.2977     0.56880E+02 
  34649.5598     0.57392E+02 
  34681.8220     0.57905E+02 
  34714.0842     0.58420E+02 
  34746.3463     0.58938E+02 
  34778.6085     0.59457E+02 
  34810.8706     0.59978E+02 
  34843.1328     0.60501E+02 
  34875.3950     0.61026E+02 
  34907.6571     0.61553E+02 
  34939.9193     0.62081E+02 
  34972.1814     0.62611E+02 
  35004.4436     0.63143E+02 
  35036.7058     0.63677E+02 
  35068.9679     0.64212E+02 
  35101.2301     0.64749E+02 
  35133.4922     0.65287E+02 
  35165.7544     0.65827E+02 
  35198.0166     0.66369E+02 
  35230.2787     0.66912E+02 
  35262.5409     0.67457E+02 
  35294.8030     0.68003E+02 
  35327.0652     0.68550E+02 
  35359.3274     0.69099E+02 
  35391.5895     0.69649E+02 
  35423.8517     0.70201E+02 
  35456.1138     0.70754E+02 
  35488.3760     0.71308E+02 
  35520.6382     0.71863E+02 
  35552.9003     0.72419E+02 
  35585.1625     0.72977E+02 
  35617.4246     0.73536E+02 
  35649.6868     0.74096E+02 
  35681.9490     0.74656E+02 
  35714.2111     0.75218E+02 
  35746.4733     0.75781E+02 
  35778.7354     0.76345E+02 
  35810.9976     0.76910E+02 
  35843.2598     0.77475E+02 
  35875.5219     0.78042E+02 
  35907.7841     0.78609E+02 
  35940.0462     0.79177E+02 
  35972.3084     0.79746E+02 
  36004.5706     0.80315E+02 
  36036.8327     0.80885E+02 
  36069.0949     0.81456E+02 
  36101.3570     0.82027E+02 
  36133.6192     0.82599E+02 
  36165.8814     0.83171E+02 
  36198.1435     0.83744E+02 
  36230.4057     0.84317E+02 
  36262.6678     0.84890E+02 
  36294.9300     0.85464E+02 
  36327.1922     0.86038E+02 
  36359.4543     0.86613E+02 
  36391.7165     0.87187E+02 
  36423.9786     0.87762E+02 
  36456.2408     0.88337E+02 
  36488.5030     0.88912E+02 
  36520.7651     0.89487E+02 
  36553.0273     0.90062E+02 
  36585.2894     0.90637E+02 
  36617.5516     0.91212E+02 
  36649.8138     0.91787E+02 
  36682.0759     0.92362E+02 
  36714.3381     0.92936E+02 
  36746.6002     0.93510E+02 
  36778.8624     0.94084E+02 
  36811.1246     0.94658E+02 
  36843.3867     0.95231E+02 
  36875.6489     0.95804E+02 
  36907.9110     0.96377E+02 
  36940.1732     0.96949E+02 
  36972.4354     0.97520E+02 
  37004.6975     0.98091E+02 
  37036.9597     0.98662E+02 
  37069.2218     0.99231E+02 
  37101.4840     0.99800E+02 
  37133.7462     0.10037E+03 
  37166.0083     0.10094E+03 
  37198.2705     0.10150E+03 
  37230.5326     0.10207E+03 
  37262.7948     0.10263E+03 
  37295.0570     0.10320E+03 
  37327.3191     0.10376E+03 
  37359.5813     0.10432E+03 
  37391.8434     0.10488E+03 
  37424.1056     0.10544E+03 
  37456.3678     0.10600E+03 
  37488.6299     0.10656E+03 
  37520.8921     0.10711E+03 
  37553.1542     0.10767E+03 
  37585.4164     0.10822E+03 
  37617.6786     0.10877E+03 
  37649.9407     0.10932E+03 
  37682.2029     0.10987E+03 
  37714.4650     0.11042E+03 
  37746.7272     0.11097E+03 
  37778.9894     0.11151E+03 
  37811.2515     0.11205E+03 
  37843.5137     0.11260E+03 
  37875.7758     0.11313E+03 
  37908.0380     0.11367E+03 
  37940.3002     0.11421E+03 
  37972.5623     0.11474E+03 
  38004.8245     0.11527E+03 
  38037.0866     0.11580E+03 
  38069.3488     0.11633E+03 
  38101.6110     0.11686E+03 
  38133.8731     0.11738E+03 
  38166.1353     0.11791E+03 
  38198.3974     0.11843E+03 
  38230.6596     0.11894E+03 
  38262.9218     0.11946E+03 
  38295.1839     0.11997E+03 
  38327.4461     0.12048E+03 
  38359.7082     0.12099E+03 
  38391.9704     0.12150E+03 
  38424.2326     0.12200E+03 
  38456.4947     0.12250E+03 
  38488.7569     0.12300E+03 
  38521.0190     0.12350E+03 
  38553.2812     0.12399E+03 
  38585.5434     0.12448E+03 
  38617.8055     0.12497E+03 
  38650.0677     0.12546E+03 
  38682.3298     0.12594E+03 
  38714.5920     0.12642E+03 
  38746.8542     0.12690E+03 
  38779.1163     0.12738E+03 
  38811.3785     0.12785E+03 
  38843.6406     0.12832E+03 
  38875.9028     0.12878E+03 
  38908.1650     0.12925E+03 
  38940.4271     0.12971E+03 
  38972.6893     0.13016E+03 
  39004.9514     0.13062E+03 
  39037.2136     0.13107E+03 
  39069.4758     0.13152E+03 
  39101.7379     0.13196E+03 
  39134.0001     0.13240E+03 
  39166.2622     0.13284E+03 
  39198.5244     0.13328E+03 
  39230.7866     0.13371E+03 
  39263.0487     0.13414E+03 
  39295.3109     0.13456E+03 
  39327.5730     0.13498E+03 
  39359.8352     0.13540E+03 
  39392.0974     0.13582E+03 
  39424.3595     0.13623E+03 
  39456.6217     0.13664E+03 
  39488.8838     0.13704E+03 
  39521.1460     0.13744E+03 
  39553.4082     0.13784E+03 
  39585.6703     0.13823E+03 
  39617.9325     0.13862E+03 
  39650.1946     0.13901E+03 
  39682.4568     0.13939E+03 
  39714.7190     0.13977E+03 
  39746.9811     0.14014E+03 
  39779.2433     0.14051E+03 
  39811.5054     0.14088E+03 
  39843.7676     0.14124E+03 
  39876.0298     0.14160E+03 
  39908.2919     0.14196E+03 
  39940.5541     0.14231E+03 
  39972.8162     0.14265E+03 
  40005.0784     0.14300E+03 
  40037.3406     0.14334E+03 
  40069.6027     0.14367E+03 
  40101.8649     0.14400E+03 
  40134.1270     0.14433E+03 
  40166.3892     0.14465E+03 
  40198.6514     0.14497E+03 
  40230.9135     0.14529E+03 
  40263.1757     0.14560E+03 
  40295.4378     0.14590E+03 
  40327.7000     0.14621E+03 
  40359.9622     0.14650E+03 
  40392.2243     0.14680E+03 
  40424.4865     0.14709E+03 
  40456.7486     0.14737E+03 
  40489.0108     0.14765E+03 
  40521.2730     0.14793E+03 
  40553.5351     0.14820E+03 
  40585.7973     0.14847E+03 
  40618.0594     0.14873E+03 
  40650.3216     0.14899E+03 
  40682.5838     0.14925E+03 
  40714.8459     0.14950E+03 
  40747.1081     0.14974E+03 
  40779.3702     0.14998E+03 
  40811.6324     0.15022E+03 
  40843.8946     0.15045E+03 
  40876.1567     0.15068E+03 
  40908.4189     0.15090E+03 
  40940.6810     0.15112E+03 
  40972.9432     0.15134E+03 
  41005.2054     0.15155E+03 
  41037.4675     0.15175E+03 
  41069.7297     0.15195E+03 
  41101.9918     0.15215E+03 
  41134.2540     0.15234E+03 
  41166.5162     0.15253E+03 
  41198.7783     0.15271E+03 
  41231.0405     0.15289E+03 
  41263.3026     0.15306E+03 
  41295.5648     0.15323E+03 
  41327.8270     0.15339E+03 
  41360.0891     0.15355E+03 
  41392.3513     0.15371E+03 
  41424.6134     0.15386E+03 
  41456.8756     0.15400E+03 
  41489.1378     0.15414E+03 
  41521.3999     0.15428E+03 
  41553.6621     0.15441E+03 
  41585.9242     0.15454E+03 
  41618.1864     0.15466E+03 
  41650.4486     0.15478E+03 
  41682.7107     0.15489E+03 
  41714.9729     0.15500E+03 
  41747.2350     0.15510E+03 
  41779.4972     0.15520E+03 
  41811.7594     0.15530E+03 
  41844.0215     0.15539E+03 
  41876.2837     0.15547E+03 
  41908.5458     0.15555E+03 
  41940.8080     0.15563E+03 
  41973.0702     0.15570E+03 
  42005.3323     0.15576E+03 
  42037.5945     0.15583E+03 
  42069.8566     0.15588E+03 
  42102.1188     0.15594E+03 
  42134.3810     0.15598E+03 
  42166.6431     0.15603E+03 
  42198.9053     0.15606E+03 
  42231.1674     0.15610E+03 
  42263.4296     0.15613E+03 
  42295.6918     0.15615E+03 
  42327.9539     0.15617E+03 
  42360.2161     0.15619E+03 
  42392.4782     0.15620E+03 
  42424.7404     0.15620E+03 
  42457.0026     0.15621E+03 
  42489.2647     0.15620E+03 
  42521.5269     0.15620E+03 
  42553.7890     0.15618E+03 
  42586.0512     0.15617E+03 
  42618.3134     0.15615E+03 
  42650.5755     0.15612E+03 
  42682.8377     0.15609E+03 
  42715.0998     0.15605E+03 
  42747.3620     0.15602E+03 
  42779.6242     0.15597E+03 
  42811.8863     0.15592E+03 
  42844.1485     0.15587E+03 
  42876.4106     0.15581E+03 
  42908.6728     0.15575E+03 
  42940.9350     0.15569E+03 
  42973.1971     0.15562E+03 
  43005.4593     0.15554E+03 
  43037.7214     0.15546E+03 
  43069.9836     0.15538E+03 
  43102.2458     0.15529E+03 
  43134.5079     0.15520E+03 
  43166.7701     0.15510E+03 
  43199.0322     0.15500E+03 
  43231.2944     0.15490E+03 
  43263.5566     0.15479E+03 
  43295.8187     0.15467E+03 
  43328.0809     0.15456E+03 
  43360.3430     0.15443E+03 
  43392.6052     0.15431E+03 
  43424.8674     0.15418E+03 
  43457.1295     0.15404E+03 
  43489.3917     0.15390E+03 
  43521.6538     0.15376E+03 
  43553.9160     0.15361E+03 
  43586.1782     0.15346E+03 
  43618.4403     0.15331E+03 
  43650.7025     0.15315E+03 
  43682.9646     0.15299E+03 
  43715.2268     0.15282E+03 
  43747.4890     0.15265E+03 
  43779.7511     0.15247E+03 
  43812.0133     0.15229E+03 
  43844.2754     0.15211E+03 
  43876.5376     0.15193E+03 
  43908.7998     0.15173E+03 
  43941.0619     0.15154E+03 
  43973.3241     0.15134E+03 
  44005.5862     0.15114E+03 
  44037.8484     0.15093E+03 
  44070.1106     0.15072E+03 
  44102.3727     0.15051E+03 
  44134.6349     0.15029E+03 
  44166.8970     0.15007E+03 
  44199.1592     0.14985E+03 
  44231.4214     0.14962E+03 
  44263.6835     0.14939E+03 
  44295.9457     0.14915E+03 
  44328.2078     0.14892E+03 
  44360.4700     0.14867E+03 
  44392.7322     0.14843E+03 
  44424.9943     0.14818E+03 
  44457.2565     0.14793E+03 
  44489.5186     0.14767E+03 
  44521.7808     0.14741E+03 
  44554.0430     0.14715E+03 
  44586.3051     0.14688E+03 
  44618.5673     0.14661E+03 
  44650.8294     0.14634E+03 
  44683.0916     0.14606E+03 
  44715.3538     0.14578E+03 
  44747.6159     0.14550E+03 
  44779.8781     0.14521E+03 
  44812.1402     0.14493E+03 
  44844.4024     0.14463E+03 
  44876.6646     0.14434E+03 
  44908.9267     0.14404E+03 
  44941.1889     0.14374E+03 
  44973.4510     0.14343E+03 
  45005.7132     0.14313E+03 
  45037.9754     0.14282E+03 
  45070.2375     0.14250E+03 
  45102.4997     0.14219E+03 
  45134.7618     0.14187E+03 
  45167.0240     0.14155E+03 
  45199.2862     0.14122E+03 
  45231.5483     0.14089E+03 
  45263.8105     0.14056E+03 
  45296.0726     0.14023E+03 
  45328.3348     0.13989E+03 
  45360.5970     0.13956E+03 
  45392.8591     0.13921E+03 
  45425.1213     0.13887E+03 
  45457.3834     0.13852E+03 
  45489.6456     0.13818E+03 
  45521.9078     0.13782E+03 
  45554.1699     0.13747E+03 
  45586.4321     0.13711E+03 
  45618.6942     0.13675E+03 
  45650.9564     0.13639E+03 
  45683.2186     0.13603E+03 
  45715.4807     0.13566E+03 
  45747.7429     0.13530E+03 
  45780.0050     0.13492E+03 
  45812.2672     0.13455E+03 
  45844.5294     0.13418E+03 
  45876.7915     0.13380E+03 
  45909.0537     0.13342E+03 
  45941.3158     0.13304E+03 
  45973.5780     0.13265E+03 
  46005.8402     0.13227E+03 
  46038.1023     0.13188E+03 
  46070.3645     0.13149E+03 
  46102.6266     0.13110E+03 
  46134.8888     0.13070E+03 
  46167.1510     0.13031E+03 
  46199.4131     0.12991E+03 
  46231.6753     0.12951E+03 
  46263.9374     0.12911E+03 
  46296.1996     0.12871E+03 
  46328.4618     0.12830E+03 
  46360.7239     0.12789E+03 
  46392.9861     0.12749E+03 
  46425.2482     0.12708E+03 
  46457.5104     0.12666E+03 
  46489.7726     0.12625E+03 
  46522.0347     0.12583E+03 
  46554.2969     0.12542E+03 
  46586.5590     0.12500E+03 
  46618.8212     0.12458E+03 
  46651.0834     0.12416E+03 
  46683.3455     0.12373E+03 
  46715.6077     0.12331E+03 
  46747.8698     0.12288E+03 
  46780.1320     0.12246E+03 
  46812.3942     0.12203E+03 
  46844.6563     0.12160E+03 
  46876.9185     0.12117E+03 
  46909.1806     0.12074E+03 
  46941.4428     0.12030E+03 
  46973.7050     0.11987E+03 
  47005.9671     0.11943E+03 
  47038.2293     0.11899E+03 
  47070.4914     0.11856E+03 
  47102.7536     0.11812E+03 
  47135.0158     0.11768E+03 
  47167.2779     0.11723E+03 
  47199.5401     0.11679E+03 
  47231.8022     0.11635E+03 
  47264.0644     0.11590E+03 
  47296.3266     0.11546E+03 
  47328.5887     0.11501E+03 
  47360.8509     0.11456E+03 
  47393.1130     0.11412E+03 
  47425.3752     0.11367E+03 
  47457.6374     0.11322E+03 
  47489.8995     0.11277E+03 
  47522.1617     0.11232E+03 
  47554.4238     0.11186E+03 
  47586.6860     0.11141E+03 
  47618.9482     0.11096E+03 
  47651.2103     0.11051E+03 
  47683.4725     0.11005E+03 
  47715.7346     0.10960E+03 
  47747.9968     0.10914E+03 
  47780.2590     0.10868E+03 
  47812.5211     0.10823E+03 
  47844.7833     0.10777E+03 
  47877.0454     0.10731E+03 
  47909.3076     0.10685E+03 
  47941.5698     0.10640E+03 
  47973.8319     0.10594E+03 
  48006.0941     0.10548E+03 
  48038.3562     0.10502E+03 
  48070.6184     0.10456E+03 
  48102.8806     0.10410E+03 
  48135.1427     0.10364E+03 
  48167.4049     0.10318E+03 
  48199.6670     0.10272E+03 
  48231.9292     0.10226E+03 
  48264.1914     0.10180E+03 
  48296.4535     0.10133E+03 
  48328.7157     0.10087E+03 
  48360.9778     0.10041E+03 
  48393.2400     0.99950E+02 
  48425.5022     0.99488E+02 
  48457.7643     0.99027E+02 
  48490.0265     0.98565E+02 
  48522.2886     0.98103E+02 
  48554.5508     0.97642E+02 
  48586.8130     0.97180E+02 
  48619.0751     0.96719E+02 
  48651.3373     0.96258E+02 
  48683.5994     0.95797E+02 
  48715.8616     0.95336E+02 
  48748.1238     0.94875E+02 
  48780.3859     0.94414E+02 
  48812.6481     0.93954E+02 
  48844.9102     0.93493E+02 
  48877.1724     0.93033E+02 
  48909.4346     0.92574E+02 
  48941.6967     0.92114E+02 
  48973.9589     0.91655E+02 
  49006.2210     0.91196E+02 
  49038.4832     0.90738E+02 
  49070.7454     0.90280E+02 
  49103.0075     0.89822E+02 
  49135.2697     0.89365E+02 
  49167.5318     0.88908E+02 
  49199.7940     0.88452E+02 
  49232.0562     0.87996E+02 
  49264.3183     0.87541E+02 
  49296.5805     0.87086E+02 
  49328.8426     0.86632E+02 
  49361.1048     0.86178E+02 
  49393.3670     0.85724E+02 
  49425.6291     0.85272E+02 
  49457.8913     0.84820E+02 
  49490.1534     0.84368E+02 
  49522.4156     0.83917E+02 
  49554.6778     0.83467E+02 
  49586.9399     0.83018E+02 
  49619.2021     0.82569E+02 
  49651.4642     0.82120E+02 
  49683.7264     0.81673E+02 
  49715.9886     0.81226E+02 
  49748.2507     0.80780E+02 
  49780.5129     0.80335E+02 
  49812.7750     0.79890E+02 
  49845.0372     0.79447E+02 
  49877.2994     0.79004E+02 
  49909.5615     0.78562E+02 
  49941.8237     0.78120E+02 
  49974.0858     0.77680E+02 
  50006.3480     0.77240E+02 
  50038.6102     0.76802E+02 
  50070.8723     0.76364E+02 
  50103.1345     0.75927E+02 
  50135.3966     0.75491E+02 
  50167.6588     0.75056E+02 
  50199.9210     0.74622E+02 
  50232.1831     0.74189E+02 
  50264.4453     0.73756E+02 
  50296.7074     0.73325E+02 
  50328.9696     0.72895E+02 
  50361.2318     0.72466E+02 
  50393.4939     0.72037E+02 
  50425.7561     0.71610E+02 
  50458.0182     0.71184E+02 
  50490.2804     0.70759E+02 
  50522.5426     0.70335E+02 
  50554.8047     0.69912E+02 
  50587.0669     0.69490E+02 
  50619.3290     0.69069E+02 
  50651.5912     0.68650E+02 
  50683.8534     0.68231E+02 
  50716.1155     0.67814E+02 
  50748.3777     0.67398E+02 
  50780.6398     0.66982E+02 
  50812.9020     0.66569E+02 
  50845.1642     0.66156E+02 
  50877.4263     0.65744E+02 
  50909.6885     0.65334E+02 
  50941.9506     0.64924E+02 
  50974.2128     0.64516E+02 
  51006.4750     0.64110E+02 
  51038.7371     0.63704E+02 
  51070.9993     0.63300E+02 
  51103.2614     0.62897E+02 
  51135.5236     0.62495E+02 
  51167.7858     0.62094E+02 
  51200.0479     0.61695E+02 
  51232.3101     0.61297E+02 
  51264.5722     0.60900E+02 
  51296.8344     0.60505E+02 
  51329.0966     0.60110E+02 
  51361.3587     0.59718E+02 
  51393.6209     0.59326E+02 
  51425.8830     0.58936E+02 
  51458.1452     0.58547E+02 
  51490.4074     0.58159E+02 
  51522.6695     0.57773E+02 
  51554.9317     0.57388E+02 
  51587.1938     0.57005E+02 
  51619.4560     0.56623E+02 
  51651.7182     0.56242E+02 
  51683.9803     0.55862E+02 
  51716.2425     0.55484E+02 
  51748.5046     0.55108E+02 
  51780.7668     0.54732E+02 
  51813.0290     0.54358E+02 
  51845.2911     0.53986E+02 
  51877.5533     0.53615E+02 
  51909.8154     0.53245E+02 
  51942.0776     0.52877E+02 
  51974.3398     0.52510E+02 
  52006.6019     0.52144E+02 
  52038.8641     0.51780E+02 
  52071.1262     0.51418E+02 
  52103.3884     0.51057E+02 
  52135.6506     0.50697E+02 
  52167.9127     0.50339E+02 
  52200.1749     0.49982E+02 
  52232.4370     0.49626E+02 
  52264.6992     0.49273E+02 
  52296.9614     0.48920E+02 
  52329.2235     0.48569E+02 
  52361.4857     0.48220E+02 
  52393.7478     0.47871E+02 
  52426.0100     0.47525E+02 
  52458.2722     0.47180E+02 
  52490.5343     0.46836E+02 
  52522.7965     0.46494E+02 
  52555.0586     0.46153E+02 
  52587.3208     0.45814E+02 
  52619.5830     0.45476E+02 
  52651.8451     0.45140E+02 
  52684.1073     0.44805E+02 
  52716.3694     0.44471E+02 
  52748.6316     0.44140E+02 
  52780.8938     0.43809E+02 
  52813.1559     0.43480E+02 
  52845.4181     0.43153E+02 
  52877.6802     0.42827E+02 
  52909.9424     0.42503E+02 
  52942.2046     0.42180E+02 
  52974.4667     0.41859E+02 
  53006.7289     0.41539E+02 
  53038.9910     0.41220E+02 
  53071.2532     0.40903E+02 
  53103.5154     0.40588E+02 
  53135.7775     0.40274E+02 
  53168.0397     0.39962E+02 
  53200.3018     0.39651E+02 
  53232.5640     0.39341E+02 
  53264.8262     0.39033E+02 
  53297.0883     0.38727E+02 
  53329.3505     0.38422E+02 
  53361.6126     0.38119E+02 
  53393.8748     0.37817E+02 
  53426.1370     0.37516E+02 
  53458.3991     0.37217E+02 
  53490.6613     0.36920E+02 
  53522.9234     0.36624E+02 
  53555.1856     0.36330E+02 
  53587.4478     0.36037E+02 
  53619.7099     0.35745E+02 
  53651.9721     0.35455E+02 
  53684.2342     0.35167E+02 
  53716.4964     0.34880E+02 
  53748.7586     0.34594E+02 
  53781.0207     0.34310E+02 
  53813.2829     0.34028E+02 
  53845.5450     0.33747E+02 
  53877.8072     0.33467E+02 
  53910.0694     0.33189E+02 
  53942.3315     0.32912E+02 
  53974.5937     0.32637E+02 
  54006.8558     0.32364E+02 
  54039.1180     0.32091E+02 
  54071.3802     0.31821E+02 
  54103.6423     0.31551E+02 
  54135.9045     0.31284E+02 
  54168.1666     0.31017E+02 
  54200.4288     0.30752E+02 
  54232.6910     0.30489E+02 
  54264.9531     0.30227E+02 
  54297.2153     0.29967E+02 
  54329.4774     0.29707E+02 
  54361.7396     0.29450E+02 
  54394.0018     0.29194E+02 
  54426.2639     0.28939E+02 
  54458.5261     0.28686E+02 
  54490.7882     0.28434E+02 
  54523.0504     0.28183E+02 
  54555.3126     0.27934E+02 
  54587.5747     0.27687E+02 
  54619.8369     0.27441E+02 
  54652.0990     0.27196E+02 
  54684.3612     0.26953E+02 
  54716.6234     0.26711E+02 
  54748.8855     0.26470E+02 
  54781.1477     0.26231E+02 
  54813.4098     0.25994E+02 
  54845.6720     0.25757E+02 
  54877.9342     0.25523E+02 
  54910.1963     0.25289E+02 
  54942.4585     0.25057E+02 
  54974.7206     0.24826E+02 
  55006.9828     0.24597E+02 
  55039.2450     0.24369E+02 
  55071.5071     0.24143E+02 
  55103.7693     0.23917E+02 
  55136.0314     0.23694E+02 
  55168.2936     0.23471E+02 
  55200.5558     0.23250E+02 
  55232.8179     0.23030E+02 
  55265.0801     0.22812E+02 
  55297.3422     0.22595E+02 
  55329.6044     0.22379E+02 
  55361.8666     0.22165E+02 
  55394.1287     0.21952E+02 
  55426.3909     0.21740E+02 
  55458.6530     0.21530E+02 
  55490.9152     0.21321E+02 
  55523.1774     0.21113E+02 
  55555.4395     0.20907E+02 
  55587.7017     0.20702E+02 
  55619.9638     0.20498E+02 
  55652.2260     0.20295E+02 
  55684.4882     0.20094E+02 
  55716.7503     0.19894E+02 
  55749.0125     0.19696E+02 
  55781.2746     0.19498E+02 
  55813.5368     0.19302E+02 
  55845.7990     0.19108E+02 
  55878.0611     0.18914E+02 
  55910.3233     0.18722E+02 
  55942.5854     0.18531E+02 
  55974.8476     0.18341E+02 
  56007.1098     0.18153E+02 
  56039.3719     0.17966E+02 
  56071.6341     0.17780E+02 
  56103.8962     0.17595E+02 
  56136.1584     0.17411E+02 
  56168.4206     0.17229E+02 
  56200.6827     0.17048E+02 
  56232.9449     0.16868E+02 
  56265.2070     0.16690E+02 
  56297.4692     0.16512E+02 
  56329.7314     0.16336E+02 
  56361.9935     0.16161E+02 
  56394.2557     0.15988E+02 
  56426.5178     0.15815E+02 
  56458.7800     0.15644E+02 
  56491.0422     0.15473E+02 
  56523.3043     0.15304E+02 
  56555.5665     0.15136E+02 
  56587.8286     0.14970E+02 
  56620.0908     0.14804E+02 
  56652.3530     0.14640E+02 
  56684.6151     0.14477E+02 
  56716.8773     0.14315E+02 
  56749.1394     0.14154E+02 
  56781.4016     0.13994E+02 
  56813.6638     0.13835E+02 
  56845.9259     0.13678E+02 
  56878.1881     0.13521E+02 
  56910.4502     0.13366E+02 
  56942.7124     0.13212E+02 
  56974.9746     0.13059E+02 
  57007.2367     0.12907E+02 
  57039.4989     0.12756E+02 
  57071.7610     0.12606E+02 
  57104.0232     0.12458E+02 
  57136.2854     0.12310E+02 
  57168.5475     0.12164E+02 
  57200.8097     0.12019E+02 
  57233.0718     0.11874E+02 
  57265.3340     0.11731E+02 
  57297.5962     0.11589E+02 
  57329.8583     0.11448E+02 
  57362.1205     0.11308E+02 
  57394.3826     0.11169E+02 
  57426.6448     0.11031E+02 
  57458.9070     0.10894E+02 
  57491.1691     0.10758E+02 
  57523.4313     0.10623E+02 
  57555.6934     0.10489E+02 
  57587.9556     0.10357E+02 
  57620.2178     0.10225E+02 
  57652.4799     0.10094E+02 
  57684.7421     0.99644E+01 
  57717.0042     0.98357E+01 
  57749.2664     0.97080E+01 
  57781.5286     0.95813E+01 
  57813.7907     0.94556E+01 
  57846.0529     0.93309E+01 
  57878.3150     0.92071E+01 
  57910.5772     0.90844E+01 
  57942.8394     0.89626E+01 
  57975.1015     0.88418E+01 
  58007.3637     0.87220E+01 
  58039.6258     0.86031E+01 
  58071.8880     0.84852E+01 
  58104.1502     0.83682E+01 
  58136.4123     0.82522E+01 
  58168.6745     0.81372E+01 
  58200.9366     0.80230E+01 
  58233.1988     0.79099E+01 
  58265.4610     0.77976E+01 
  58297.7231     0.76863E+01 
  58329.9853     0.75760E+01 
  58362.2474     0.74665E+01 
  58394.5096     0.73580E+01 
  58426.7718     0.72504E+01 
  58459.0339     0.71437E+01 
  58491.2961     0.70379E+01 
  58523.5582     0.69330E+01 
  58555.8204     0.68290E+01 
  58588.0826     0.67259E+01 
  58620.3447     0.66237E+01 
  58652.6069     0.65224E+01 
  58684.8690     0.64220E+01 
  58717.1312     0.63225E+01 
  58749.3934     0.62238E+01 
  58781.6555     0.61260E+01 
  58813.9177     0.60291E+01 
  58846.1798     0.59331E+01 
  58878.4420     0.58379E+01 
  58910.7042     0.57436E+01 
  58942.9663     0.56502E+01 
  58975.2285     0.55576E+01 
  59007.4906     0.54659E+01 
  59039.7528     0.53750E+01 
  59072.0150     0.52849E+01 
  59104.2771     0.51957E+01 
  59136.5393     0.51074E+01 
  59168.8014     0.50199E+01 
  59201.0636     0.49332E+01 
  59233.3258     0.48474E+01 
  59265.5879     0.47623E+01 
  59297.8501     0.46782E+01 
  59330.1122     0.45948E+01 
  59362.3744     0.45122E+01 
  59394.6366     0.44305E+01 
  59426.8987     0.43496E+01 
  59459.1609     0.42695E+01 
  59491.4230     0.41902E+01 
  59523.6852     0.41118E+01 
  59555.9474     0.40341E+01 
  59588.2095     0.39572E+01 
  59620.4717     0.38812E+01 
  59652.7338     0.38059E+01 
  59684.9960     0.37315E+01 
  59717.2582     0.36578E+01 
  59749.5203     0.35849E+01 
  59781.7825     0.35129E+01 
  59814.0446     0.34416E+01 
  59846.3068     0.33711E+01 
  59878.5690     0.33014E+01 
  59910.8311     0.32324E+01 
  59943.0933     0.31643E+01 
  59975.3554     0.30969E+01 
  60007.6176     0.30304E+01 
  60039.8798     0.29646E+01 
  60072.1419     0.28995E+01 
  60104.4041     0.28353E+01 
  60136.6662     0.27718E+01 
  60168.9284     0.27091E+01 
  60201.1906     0.26472E+01 
  60233.4527     0.25861E+01 
  60265.7149     0.25257E+01 
  60297.9770     0.24661E+01 
  60330.2392     0.24073E+01 
  60362.5014     0.23492E+01 
  60394.7635     0.22919E+01 
  60427.0257     0.22354E+01 
  60459.2878     0.21796E+01 
  60491.5500     0.21246E+01 
  60523.8122     0.20704E+01 
  60556.0743     0.20170E+01 
  60588.3365     0.19643E+01 
  60620.5986     0.19124E+01 
  60652.8608     0.18612E+01 
  60685.1230     0.18108E+01 
  60717.3851     0.17612E+01 
  60749.6473     0.17124E+01 
  60781.9094     0.16643E+01 
  60814.1716     0.16170E+01 
  60846.4338     0.15705E+01 
  60878.6959     0.15247E+01 
  60910.9581     0.14797E+01 
  60943.2202     0.14355E+01 
  60975.4824     0.13921E+01 
  61007.7446     0.13494E+01 
  61040.0067     0.13076E+01 
  61072.2689     0.12665E+01 
  61104.5310     0.12261E+01 
  61136.7932     0.11866E+01 
  61169.0554     0.11479E+01 
  61201.3175     0.11099E+01 
  61233.5797     0.10727E+01 
  61265.8418     0.10363E+01 
  61298.1040     0.10008E+01 
  61330.3662     0.96596E+00 
  61362.6283     0.93197E+00 
  61394.8905     0.89879E+00 
  61427.1526     0.86641E+00 
  61459.4148     0.83483E+00 
  61491.6770     0.80407E+00 
  61523.9391     0.77412E+00 
  61556.2013     0.74500E+00 
  61588.4634     0.71669E+00 
  61620.7256     0.68921E+00 
  61652.9878     0.66256E+00 
  61685.2499     0.63675E+00 
  61717.5121     0.61177E+00 
  61749.7742     0.58764E+00 
  61782.0364     0.56435E+00 
  61814.2986     0.54192E+00 
  61846.5607     0.52035E+00 
  61878.8229     0.49964E+00 
  61911.0850     0.47979E+00 
  61943.3472     0.46083E+00 
  61975.6094     0.44274E+00 
  62007.8715     0.42553E+00 
  62040.1337     0.40922E+00 
  62072.3958     0.39381E+00 
  62104.6580     0.37930E+00 
  62136.9202     0.36570E+00 
  62169.1823     0.35302E+00 
  62201.4445     0.34127E+00 
  62233.7066     0.33045E+00 
  62265.9688     0.32057E+00 
  62298.2310     0.31164E+00 
  62330.4931     0.30366E+00 
  62362.7553     0.29665E+00 
  62395.0174     0.29062E+00 
  62427.2796     0.28556E+00 
  62459.5418     0.28150E+00 
  62491.8039     0.27844E+00 
  62524.0661     0.27638E+00 
  62556.3282     0.27535E+00 
  62588.5904     0.27534E+00 
  62620.8526     0.27638E+00 
  62653.1147     0.27847E+00 
  62685.3769     0.28161E+00 
  62717.6390     0.28583E+00 
  62749.9012     0.29114E+00 
  62782.1634     0.29754E+00 
  62814.4255     0.30504E+00 
  62846.6877     0.31367E+00 
  62878.9498     0.32343E+00 
  62911.2120     0.33434E+00 
  62943.4742     0.34640E+00 
  62975.7363     0.35964E+00 
  63007.9985     0.37406E+00 
  63040.2606     0.38968E+00 
  63072.5228     0.40652E+00 
  63104.7850     0.42459E+00 
  63137.0471     0.44390E+00 
  63169.3093     0.46448E+00 
  63201.5714     0.48633E+00 
  63233.8336     0.50948E+00 
  63266.0958     0.53393E+00 
  63298.3579     0.55972E+00 
  63330.6201     0.58685E+00 
  63362.8822     0.61534E+00 
  63395.1444     0.64521E+00 
  63427.4066     0.67648E+00 
  63459.6687     0.70917E+00 
  63491.9309     0.74330E+00 
  63524.1930     0.77889E+00 
  63556.4552     0.81596E+00 
  63588.7174     0.85453E+00 
  63620.9795     0.89463E+00 
  63653.2417     0.93626E+00 
  63685.5038     0.97946E+00 
  63717.7660     0.10243E+01 
  63750.0282     0.10707E+01 
  63782.2903     0.11187E+01 
  63814.5525     0.11684E+01 
  63846.8146     0.12198E+01 
  63879.0768     0.12729E+01 
  63911.3390     0.13277E+01 
  63943.6011     0.13843E+01 
  63975.8633     0.14427E+01 
  64008.1254     0.15029E+01 
  64040.3876     0.15649E+01 
  64072.6498     0.16289E+01 
  64104.9119     0.16947E+01 
  64137.1741     0.17625E+01 
  64169.4362     0.18322E+01 
  64201.6984     0.19039E+01 
  64233.9606     0.19776E+01 
  64266.2227     0.20535E+01 
  64298.4849     0.21314E+01 
  64330.7470     0.22114E+01 
  64363.0092     0.22936E+01 
  64395.2714     0.23779E+01 
  64427.5335     0.24646E+01 
  64459.7957     0.25534E+01 
  64492.0578     0.26446E+01 
  64524.3200     0.27382E+01 
  64556.5822     0.28341E+01 
  64588.8443     0.29324E+01 
  64621.1065     0.30332E+01 
  64653.3686     0.31365E+01 
  64685.6308     0.32423E+01 
  64717.8930     0.33507E+01 
  64750.1551     0.34618E+01 
  64782.4173     0.35755E+01 
  64814.6794     0.36919E+01 
  64846.9416     0.38111E+01 
  64879.2038     0.39331E+01 
  64911.4659     0.40580E+01 
  64943.7281     0.41858E+01 
  64975.9902     0.43165E+01 
  65008.2524     0.44502E+01 
  65040.5146     0.45870E+01 
  65072.7767     0.47269E+01 
  65105.0389     0.48699E+01 
  65137.3010     0.50162E+01 
  65169.5632     0.51657E+01 
  65201.8254     0.53185E+01 
  65234.0875     0.54747E+01 
  65266.3497     0.56344E+01 
  65298.6118     0.57975E+01 
  65330.8740     0.59643E+01 
  65363.1362     0.61346E+01 
  65395.3983     0.63086E+01 
  65427.6605     0.64863E+01 
  65459.9226     0.66678E+01 
  65492.1848     0.68533E+01 
  65524.4470     0.70426E+01 
  65556.7091     0.72359E+01 
  65588.9713     0.74333E+01 
  65621.2334     0.76349E+01 
  65653.4956     0.78406E+01 
  65685.7578     0.80507E+01 
  65718.0199     0.82650E+01 
  65750.2821     0.84838E+01 
  65782.5442     0.87072E+01 
  65814.8064     0.89350E+01 
  65847.0686     0.91676E+01 
  65879.3307     0.94048E+01 
  65911.5929     0.96469E+01 
  65943.8550     0.98939E+01 
  65976.1172     0.10146E+02 
  66008.3794     0.10403E+02 
  66040.6415     0.10665E+02 
  66072.9037     0.10932E+02 
  66105.1658     0.11205E+02 
  66137.4280     0.11483E+02 
  66169.6902     0.11767E+02 
  66201.9523     0.12056E+02 
  66234.2145     0.12351E+02 
  66266.4766     0.12652E+02 
  66298.7388     0.12958E+02 
  66331.0010     0.13271E+02 
  66363.2631     0.13589E+02 
  66395.5253     0.13914E+02 
  66427.7874     0.14245E+02 
  66460.0496     0.14583E+02 
  66492.3118     0.14926E+02 
  66524.5739     0.15277E+02 
  66556.8361     0.15634E+02 
  66589.0982     0.15998E+02 
  66621.3604     0.16369E+02 
  66653.6226     0.16747E+02 
  66685.8847     0.17132E+02 
  66718.1469     0.17524E+02 
  66750.4090     0.17924E+02 
  66782.6712     0.18331E+02 
  66814.9334     0.18746E+02 
  66847.1955     0.19168E+02 
  66879.4577     0.19599E+02 
  66911.7198     0.20037E+02 
  66943.9820     0.20484E+02 
  66976.2442     0.20938E+02 
  67008.5063     0.21401E+02 
  67040.7685     0.21873E+02 
  67073.0306     0.22353E+02 
  67105.2928     0.22842E+02 
  67137.5550     0.23340E+02 
  67169.8171     0.23847E+02 
  67202.0793     0.24363E+02 
  67234.3414     0.24889E+02 
  67266.6036     0.25423E+02 
  67298.8658     0.25968E+02 
  67331.1279     0.26522E+02 
  67363.3901     0.27086E+02 
  67395.6522     0.27661E+02 
  67427.9144     0.28245E+02 
  67460.1766     0.28840E+02 
  67492.4387     0.29445E+02 
  67524.7009     0.30061E+02 
  67556.9630     0.30688E+02 
  67589.2252     0.31326E+02 
  67621.4874     0.31975E+02 
  67653.7495     0.32635E+02 
  67686.0117     0.33307E+02 
  67718.2738     0.33990E+02 
  67750.5360     0.34686E+02 
  67782.7982     0.35393E+02 
  67815.0603     0.36112E+02 
  67847.3225     0.36844E+02 
  67879.5846     0.37589E+02 
  67911.8468     0.38346E+02 
  67944.1090     0.39116E+02 
  67976.3711     0.39899E+02 
  68008.6333     0.40695E+02 
  68040.8954     0.41504E+02 
  68073.1576     0.42328E+02 
  68105.4198     0.43165E+02 
  68137.6819     0.44016E+02 
  68169.9441     0.44881E+02 
  68202.2062     0.45761E+02 
  68234.4684     0.46655E+02 
  68266.7306     0.47565E+02 
  68298.9927     0.48489E+02 
  68331.2549     0.49428E+02 
  68363.5170     0.50383E+02 
  68395.7792     0.51353E+02 
  68428.0414     0.52339E+02 
  68460.3035     0.53341E+02 
  68492.5657     0.54360E+02 
  68524.8278     0.55394E+02 
  68557.0900     0.56446E+02 
  68589.3522     0.57514E+02 
  68621.6143     0.58600E+02 
  68653.8765     0.59702E+02 
  68686.1386     0.60823E+02 
  68718.4008     0.61961E+02 
  68750.6630     0.63117E+02 
  68782.9251     0.64291E+02 
  68815.1873     0.65484E+02 
  68847.4494     0.66695E+02 
  68879.7116     0.67925E+02 
  68911.9738     0.69174E+02 
  68944.2359     0.70443E+02 
  68976.4981     0.71731E+02 
  69008.7602     0.73039E+02 
  69041.0224     0.74367E+02 
  69073.2846     0.75716E+02 
  69105.5467     0.77084E+02 
  69137.8089     0.78474E+02 
  69170.0710     0.79885E+02 
  69202.3332     0.81317E+02 
  69234.5954     0.82770E+02 
  69266.8575     0.84246E+02 
  69299.1197     0.85743E+02 
  69331.3818     0.87262E+02 
  69363.6440     0.88804E+02 
  69395.9062     0.90369E+02 
  69428.1683     0.91957E+02 
  69460.4305     0.93568E+02 
  69492.6926     0.95202E+02 
  69524.9548     0.96861E+02 
  69557.2170     0.98543E+02 
  69589.4791     0.10025E+03 
  69621.7413     0.10198E+03 
  69654.0034     0.10374E+03 
  69686.2656     0.10552E+03 
  69718.5278     0.10732E+03 
  69750.7899     0.10916E+03 
  69783.0521     0.11101E+03 
  69815.3142     0.11290E+03 
  69847.5764     0.11481E+03 
  69879.8386     0.11675E+03 
  69912.1007     0.11871E+03 
  69944.3629     0.12070E+03 
  69976.6250     0.12272E+03 
  70008.8872     0.12476E+03 
  70041.1494     0.12684E+03 
  70073.4115     0.12894E+03 
  70105.6737     0.13107E+03 
  70137.9358     0.13323E+03 
  70170.1980     0.13542E+03 
  70202.4602     0.13764E+03 
  70234.7223     0.13989E+03 
  70266.9845     0.14216E+03 
  70299.2466     0.14447E+03 
  70331.5088     0.14681E+03 
  70363.7710     0.14918E+03 
  70396.0331     0.15158E+03 
  70428.2953     0.15401E+03 
  70460.5574     0.15647E+03 
  70492.8196     0.15896E+03 
  70525.0818     0.16149E+03 
  70557.3439     0.16405E+03 
  70589.6061     0.16664E+03 
  70621.8682     0.16926E+03 
  70654.1304     0.17192E+03 
  70686.3926     0.17461E+03 
  70718.6547     0.17733E+03 
  70750.9169     0.18009E+03 
  70783.1790     0.18288E+03 
  70815.4412     0.18571E+03 
  70847.7034     0.18857E+03 
  70879.9655     0.19146E+03 
  70912.2277     0.19439E+03 
  70944.4898     0.19736E+03 
  70976.7520     0.20036E+03 
  71009.0142     0.20340E+03 
  71041.2763     0.20647E+03 
  71073.5385     0.20958E+03 
  71105.8006     0.21273E+03 
  71138.0628     0.21591E+03 
  71170.3250     0.21913E+03 
  71202.5871     0.22239E+03 
  71234.8493     0.22569E+03 
  71267.1114     0.22902E+03 
  71299.3736     0.23239E+03 
  71331.6358     0.23580E+03 
  71363.8979     0.23925E+03 
  71396.1601     0.24274E+03 
  71428.4222     0.24627E+03 
  71460.6844     0.24983E+03 
  71492.9466     0.25344E+03 
  71525.2087     0.25708E+03 
  71557.4709     0.26077E+03 
  71589.7330     0.26450E+03 
  71621.9952     0.26826E+03 
  71654.2574     0.27207E+03 
  71686.5195     0.27592E+03 
  71718.7817     0.27980E+03 
  71751.0438     0.28373E+03 
  71783.3060     0.28771E+03 
  71815.5682     0.29172E+03 
  71847.8303     0.29577E+03 
  71880.0925     0.29987E+03 
  71912.3546     0.30401E+03 
  71944.6168     0.30819E+03 
  71976.8790     0.31241E+03 
  72009.1411     0.31668E+03 
  72041.4033     0.32099E+03 
  72073.6654     0.32535E+03 
  72105.9276     0.32974E+03 
  72138.1898     0.33418E+03 
  72170.4519     0.33866E+03 
  72202.7141     0.34319E+03 
  72234.9762     0.34776E+03 
  72267.2384     0.35238E+03 
  72299.5006     0.35704E+03 
  72331.7627     0.36174E+03 
  72364.0249     0.36649E+03 
  72396.2870     0.37129E+03 
  72428.5492     0.37612E+03 
  72460.8114     0.38101E+03 
  72493.0735     0.38593E+03 
  72525.3357     0.39091E+03 
  72557.5978     0.39593E+03 
  72589.8600     0.40099E+03 
