  32262.1600     0.14822E-04 
  32294.4222     0.14982E-04 
  32326.6843     0.15143E-04 
  32358.9465     0.15305E-04 
  32391.2086     0.15468E-04 
  32423.4708     0.15632E-04 
  32455.7330     0.15797E-04 
  32487.9951     0.15963E-04 
  32520.2573     0.16131E-04 
  32552.5194     0.16299E-04 
  32584.7816     0.16468E-04 
  32617.0438     0.16639E-04 
  32649.3059     0.16810E-04 
  32681.5681     0.16983E-04 
  32713.8302     0.17156E-04 
  32746.0924     0.17331E-04 
  32778.3546     0.17506E-04 
  32810.6167     0.17683E-04 
  32842.8789     0.17861E-04 
  32875.1410     0.18040E-04 
  32907.4032     0.18219E-04 
  32939.6654     0.18400E-04 
  32971.9275     0.18582E-04 
  33004.1897     0.18765E-04 
  33036.4518     0.18949E-04 
  33068.7140     0.19134E-04 
  33100.9762     0.19320E-04 
  33133.2383     0.19506E-04 
  33165.5005     0.19694E-04 
  33197.7626     0.19883E-04 
  33230.0248     0.20073E-04 
  33262.2870     0.20264E-04 
  33294.5491     0.20456E-04 
  33326.8113     0.20649E-04 
  33359.0734     0.20842E-04 
  33391.3356     0.21037E-04 
  33423.5978     0.21233E-04 
  33455.8599     0.21429E-04 
  33488.1221     0.21627E-04 
  33520.3842     0.21825E-04 
  33552.6464     0.22025E-04 
  33584.9086     0.22225E-04 
  33617.1707     0.22427E-04 
  33649.4329     0.22629E-04 
  33681.6950     0.22832E-04 
  33713.9572     0.23036E-04 
  33746.2194     0.23241E-04 
  33778.4815     0.23447E-04 
  33810.7437     0.23653E-04 
  33843.0058     0.23861E-04 
  33875.2680     0.24069E-04 
  33907.5302     0.24279E-04 
  33939.7923     0.24489E-04 
  33972.0545     0.24700E-04 
  34004.3166     0.24912E-04 
  34036.5788     0.25124E-04 
  34068.8410     0.25338E-04 
  34101.1031     0.25552E-04 
  34133.3653     0.25767E-04 
  34165.6274     0.25983E-04 
  34197.8896     0.26200E-04 
  34230.1518     0.26417E-04 
  34262.4139     0.26636E-04 
  34294.6761     0.26855E-04 
  34326.9382     0.27074E-04 
  34359.2004     0.27295E-04 
  34391.4626     0.27516E-04 
  34423.7247     0.27738E-04 
  34455.9869     0.27961E-04 
  34488.2490     0.28184E-04 
  34520.5112     0.28408E-04 
  34552.7734     0.28633E-04 
  34585.0355     0.28858E-04 
  34617.2977     0.29085E-04 
  34649.5598     0.29311E-04 
  34681.8220     0.29539E-04 
  34714.0842     0.29767E-04 
  34746.3463     0.29996E-04 
  34778.6085     0.30225E-04 
  34810.8706     0.30455E-04 
  34843.1328     0.30685E-04 
  34875.3950     0.30916E-04 
  34907.6571     0.31148E-04 
  34939.9193     0.31380E-04 
  34972.1814     0.31613E-04 
  35004.4436     0.31847E-04 
  35036.7058     0.32080E-04 
  35068.9679     0.32315E-04 
  35101.2301     0.32550E-04 
  35133.4922     0.32785E-04 
  35165.7544     0.33021E-04 
  35198.0166     0.33257E-04 
  35230.2787     0.33494E-04 
  35262.5409     0.33731E-04 
  35294.8030     0.33969E-04 
  35327.0652     0.34207E-04 
  35359.3274     0.34446E-04 
  35391.5895     0.34685E-04 
  35423.8517     0.34924E-04 
  35456.1138     0.35164E-04 
  35488.3760     0.35404E-04 
  35520.6382     0.35644E-04 
  35552.9003     0.35885E-04 
  35585.1625     0.36126E-04 
  35617.4246     0.36367E-04 
  35649.6868     0.36609E-04 
  35681.9490     0.36851E-04 
  35714.2111     0.37093E-04 
  35746.4733     0.37335E-04 
  35778.7354     0.37578E-04 
  35810.9976     0.37821E-04 
  35843.2598     0.38064E-04 
  35875.5219     0.38307E-04 
  35907.7841     0.38551E-04 
  35940.0462     0.38795E-04 
  35972.3084     0.39039E-04 
  36004.5706     0.39283E-04 
  36036.8327     0.39527E-04 
  36069.0949     0.39771E-04 
  36101.3570     0.40016E-04 
  36133.6192     0.40260E-04 
  36165.8814     0.40505E-04 
  36198.1435     0.40749E-04 
  36230.4057     0.40994E-04 
  36262.6678     0.41239E-04 
  36294.9300     0.41483E-04 
  36327.1922     0.41728E-04 
  36359.4543     0.41973E-04 
  36391.7165     0.42218E-04 
  36423.9786     0.42462E-04 
  36456.2408     0.42707E-04 
  36488.5030     0.42952E-04 
  36520.7651     0.43196E-04 
  36553.0273     0.43441E-04 
  36585.2894     0.43685E-04 
  36617.5516     0.43929E-04 
  36649.8138     0.44173E-04 
  36682.0759     0.44417E-04 
  36714.3381     0.44661E-04 
  36746.6002     0.44904E-04 
  36778.8624     0.45148E-04 
  36811.1246     0.45391E-04 
  36843.3867     0.45634E-04 
  36875.6489     0.45876E-04 
  36907.9110     0.46119E-04 
  36940.1732     0.46361E-04 
  36972.4354     0.46603E-04 
  37004.6975     0.46845E-04 
  37036.9597     0.47086E-04 
  37069.2218     0.47327E-04 
  37101.4840     0.47567E-04 
  37133.7462     0.47808E-04 
  37166.0083     0.48047E-04 
  37198.2705     0.48287E-04 
  37230.5326     0.48526E-04 
  37262.7948     0.48765E-04 
  37295.0570     0.49003E-04 
  37327.3191     0.49241E-04 
  37359.5813     0.49478E-04 
  37391.8434     0.49715E-04 
  37424.1056     0.49951E-04 
  37456.3678     0.50187E-04 
  37488.6299     0.50422E-04 
  37520.8921     0.50657E-04 
  37553.1542     0.50891E-04 
  37585.4164     0.51125E-04 
  37617.6786     0.51358E-04 
  37649.9407     0.51591E-04 
  37682.2029     0.51823E-04 
  37714.4650     0.52054E-04 
  37746.7272     0.52284E-04 
  37778.9894     0.52514E-04 
  37811.2515     0.52744E-04 
  37843.5137     0.52972E-04 
  37875.7758     0.53200E-04 
  37908.0380     0.53427E-04 
  37940.3002     0.53654E-04 
  37972.5623     0.53880E-04 
  38004.8245     0.54105E-04 
  38037.0866     0.54329E-04 
  38069.3488     0.54552E-04 
  38101.6110     0.54775E-04 
  38133.8731     0.54997E-04 
  38166.1353     0.55218E-04 
  38198.3974     0.55438E-04 
  38230.6596     0.55657E-04 
  38262.9218     0.55876E-04 
  38295.1839     0.56093E-04 
  38327.4461     0.56310E-04 
  38359.7082     0.56526E-04 
  38391.9704     0.56741E-04 
  38424.2326     0.56954E-04 
  38456.4947     0.57167E-04 
  38488.7569     0.57379E-04 
  38521.0190     0.57590E-04 
  38553.2812     0.57800E-04 
  38585.5434     0.58009E-04 
  38617.8055     0.58217E-04 
  38650.0677     0.58424E-04 
  38682.3298     0.58630E-04 
  38714.5920     0.58835E-04 
  38746.8542     0.59039E-04 
  38779.1163     0.59242E-04 
  38811.3785     0.59443E-04 
  38843.6406     0.59644E-04 
  38875.9028     0.59843E-04 
  38908.1650     0.60041E-04 
  38940.4271     0.60239E-04 
  38972.6893     0.60434E-04 
  39004.9514     0.60629E-04 
  39037.2136     0.60823E-04 
  39069.4758     0.61015E-04 
  39101.7379     0.61206E-04 
  39134.0001     0.61396E-04 
  39166.2622     0.61585E-04 
  39198.5244     0.61773E-04 
  39230.7866     0.61959E-04 
  39263.0487     0.62144E-04 
  39295.3109     0.62328E-04 
  39327.5730     0.62510E-04 
  39359.8352     0.62691E-04 
  39392.0974     0.62871E-04 
  39424.3595     0.63050E-04 
  39456.6217     0.63227E-04 
  39488.8838     0.63403E-04 
  39521.1460     0.63577E-04 
  39553.4082     0.63750E-04 
  39585.6703     0.63922E-04 
  39617.9325     0.64092E-04 
  39650.1946     0.64261E-04 
  39682.4568     0.64429E-04 
  39714.7190     0.64595E-04 
  39746.9811     0.64760E-04 
  39779.2433     0.64923E-04 
  39811.5054     0.65085E-04 
  39843.7676     0.65245E-04 
  39876.0298     0.65404E-04 
  39908.2919     0.65562E-04 
  39940.5541     0.65718E-04 
  39972.8162     0.65872E-04 
  40005.0784     0.66025E-04 
  40037.3406     0.66177E-04 
  40069.6027     0.66327E-04 
  40101.8649     0.66475E-04 
  40134.1270     0.66622E-04 
  40166.3892     0.66767E-04 
  40198.6514     0.66911E-04 
  40230.9135     0.67053E-04 
  40263.1757     0.67194E-04 
  40295.4378     0.67333E-04 
  40327.7000     0.67471E-04 
  40359.9622     0.67606E-04 
  40392.2243     0.67741E-04 
  40424.4865     0.67873E-04 
  40456.7486     0.68005E-04 
  40489.0108     0.68134E-04 
  40521.2730     0.68262E-04 
  40553.5351     0.68388E-04 
  40585.7973     0.68513E-04 
  40618.0594     0.68636E-04 
  40650.3216     0.68757E-04 
  40682.5838     0.68877E-04 
  40714.8459     0.68995E-04 
  40747.1081     0.69111E-04 
  40779.3702     0.69225E-04 
  40811.6324     0.69338E-04 
  40843.8946     0.69450E-04 
  40876.1567     0.69559E-04 
  40908.4189     0.69667E-04 
  40940.6810     0.69773E-04 
  40972.9432     0.69878E-04 
  41005.2054     0.69980E-04 
  41037.4675     0.70081E-04 
  41069.7297     0.70180E-04 
  41101.9918     0.70278E-04 
  41134.2540     0.70374E-04 
  41166.5162     0.70468E-04 
  41198.7783     0.70560E-04 
  41231.0405     0.70651E-04 
  41263.3026     0.70740E-04 
  41295.5648     0.70827E-04 
  41327.8270     0.70912E-04 
  41360.0891     0.70995E-04 
  41392.3513     0.71077E-04 
  41424.6134     0.71157E-04 
  41456.8756     0.71235E-04 
  41489.1378     0.71312E-04 
  41521.3999     0.71387E-04 
  41553.6621     0.71460E-04 
  41585.9242     0.71531E-04 
  41618.1864     0.71600E-04 
  41650.4486     0.71668E-04 
  41682.7107     0.71733E-04 
  41714.9729     0.71797E-04 
  41747.2350     0.71860E-04 
  41779.4972     0.71920E-04 
  41811.7594     0.71978E-04 
  41844.0215     0.72035E-04 
  41876.2837     0.72090E-04 
  41908.5458     0.72144E-04 
  41940.8080     0.72195E-04 
  41973.0702     0.72245E-04 
  42005.3323     0.72292E-04 
  42037.5945     0.72338E-04 
  42069.8566     0.72383E-04 
  42102.1188     0.72425E-04 
  42134.3810     0.72465E-04 
  42166.6431     0.72504E-04 
  42198.9053     0.72541E-04 
  42231.1674     0.72576E-04 
  42263.4296     0.72610E-04 
  42295.6918     0.72641E-04 
  42327.9539     0.72671E-04 
  42360.2161     0.72699E-04 
  42392.4782     0.72725E-04 
  42424.7404     0.72750E-04 
  42457.0026     0.72772E-04 
  42489.2647     0.72793E-04 
  42521.5269     0.72812E-04 
  42553.7890     0.72829E-04 
  42586.0512     0.72845E-04 
  42618.3134     0.72858E-04 
  42650.5755     0.72870E-04 
  42682.8377     0.72880E-04 
  42715.0998     0.72888E-04 
  42747.3620     0.72895E-04 
  42779.6242     0.72899E-04 
  42811.8863     0.72902E-04 
  42844.1485     0.72903E-04 
  42876.4106     0.72903E-04 
  42908.6728     0.72900E-04 
  42940.9350     0.72896E-04 
  42973.1971     0.72890E-04 
  43005.4593     0.72883E-04 
  43037.7214     0.72873E-04 
  43069.9836     0.72862E-04 
  43102.2458     0.72849E-04 
  43134.5079     0.72834E-04 
  43166.7701     0.72818E-04 
  43199.0322     0.72800E-04 
  43231.2944     0.72780E-04 
  43263.5566     0.72758E-04 
  43295.8187     0.72735E-04 
  43328.0809     0.72709E-04 
  43360.3430     0.72683E-04 
  43392.6052     0.72654E-04 
  43424.8674     0.72624E-04 
  43457.1295     0.72592E-04 
  43489.3917     0.72558E-04 
  43521.6538     0.72523E-04 
  43553.9160     0.72486E-04 
  43586.1782     0.72447E-04 
  43618.4403     0.72407E-04 
  43650.7025     0.72365E-04 
  43682.9646     0.72321E-04 
  43715.2268     0.72276E-04 
  43747.4890     0.72229E-04 
  43779.7511     0.72180E-04 
  43812.0133     0.72130E-04 
  43844.2754     0.72078E-04 
  43876.5376     0.72024E-04 
  43908.7998     0.71969E-04 
  43941.0619     0.71912E-04 
  43973.3241     0.71853E-04 
  44005.5862     0.71793E-04 
  44037.8484     0.71732E-04 
  44070.1106     0.71668E-04 
  44102.3727     0.71604E-04 
  44134.6349     0.71537E-04 
  44166.8970     0.71469E-04 
  44199.1592     0.71400E-04 
  44231.4214     0.71328E-04 
  44263.6835     0.71256E-04 
  44295.9457     0.71181E-04 
  44328.2078     0.71106E-04 
  44360.4700     0.71028E-04 
  44392.7322     0.70950E-04 
  44424.9943     0.70869E-04 
  44457.2565     0.70787E-04 
  44489.5186     0.70704E-04 
  44521.7808     0.70619E-04 
  44554.0430     0.70533E-04 
  44586.3051     0.70445E-04 
  44618.5673     0.70356E-04 
  44650.8294     0.70265E-04 
  44683.0916     0.70173E-04 
  44715.3538     0.70079E-04 
  44747.6159     0.69984E-04 
  44779.8781     0.69888E-04 
  44812.1402     0.69790E-04 
  44844.4024     0.69691E-04 
  44876.6646     0.69590E-04 
  44908.9267     0.69488E-04 
  44941.1889     0.69384E-04 
  44973.4510     0.69280E-04 
  45005.7132     0.69173E-04 
  45037.9754     0.69066E-04 
  45070.2375     0.68957E-04 
  45102.4997     0.68847E-04 
  45134.7618     0.68735E-04 
  45167.0240     0.68622E-04 
  45199.2862     0.68508E-04 
  45231.5483     0.68392E-04 
  45263.8105     0.68276E-04 
  45296.0726     0.68158E-04 
  45328.3348     0.68038E-04 
  45360.5970     0.67917E-04 
  45392.8591     0.67796E-04 
  45425.1213     0.67672E-04 
  45457.3834     0.67548E-04 
  45489.6456     0.67422E-04 
  45521.9078     0.67296E-04 
  45554.1699     0.67168E-04 
  45586.4321     0.67038E-04 
  45618.6942     0.66908E-04 
  45650.9564     0.66776E-04 
  45683.2186     0.66643E-04 
  45715.4807     0.66510E-04 
  45747.7429     0.66374E-04 
  45780.0050     0.66238E-04 
  45812.2672     0.66101E-04 
  45844.5294     0.65962E-04 
  45876.7915     0.65823E-04 
  45909.0537     0.65682E-04 
  45941.3158     0.65540E-04 
  45973.5780     0.65397E-04 
  46005.8402     0.65253E-04 
  46038.1023     0.65108E-04 
  46070.3645     0.64962E-04 
  46102.6266     0.64815E-04 
  46134.8888     0.64667E-04 
  46167.1510     0.64518E-04 
  46199.4131     0.64368E-04 
  46231.6753     0.64217E-04 
  46263.9374     0.64065E-04 
  46296.1996     0.63911E-04 
  46328.4618     0.63757E-04 
  46360.7239     0.63602E-04 
  46392.9861     0.63446E-04 
  46425.2482     0.63289E-04 
  46457.5104     0.63132E-04 
  46489.7726     0.62973E-04 
  46522.0347     0.62813E-04 
  46554.2969     0.62653E-04 
  46586.5590     0.62491E-04 
  46618.8212     0.62329E-04 
  46651.0834     0.62166E-04 
  46683.3455     0.62001E-04 
  46715.6077     0.61837E-04 
  46747.8698     0.61671E-04 
  46780.1320     0.61504E-04 
  46812.3942     0.61337E-04 
  46844.6563     0.61169E-04 
  46876.9185     0.61000E-04 
  46909.1806     0.60830E-04 
  46941.4428     0.60659E-04 
  46973.7050     0.60488E-04 
  47005.9671     0.60316E-04 
  47038.2293     0.60143E-04 
  47070.4914     0.59970E-04 
  47102.7536     0.59796E-04 
  47135.0158     0.59621E-04 
  47167.2779     0.59445E-04 
  47199.5401     0.59269E-04 
  47231.8022     0.59092E-04 
  47264.0644     0.58914E-04 
  47296.3266     0.58736E-04 
  47328.5887     0.58557E-04 
  47360.8509     0.58377E-04 
  47393.1130     0.58197E-04 
  47425.3752     0.58016E-04 
  47457.6374     0.57835E-04 
  47489.8995     0.57653E-04 
  47522.1617     0.57470E-04 
  47554.4238     0.57287E-04 
  47586.6860     0.57103E-04 
  47618.9482     0.56919E-04 
  47651.2103     0.56734E-04 
  47683.4725     0.56548E-04 
  47715.7346     0.56362E-04 
  47747.9968     0.56176E-04 
  47780.2590     0.55989E-04 
  47812.5211     0.55802E-04 
  47844.7833     0.55614E-04 
  47877.0454     0.55425E-04 
  47909.3076     0.55236E-04 
  47941.5698     0.55047E-04 
  47973.8319     0.54857E-04 
  48006.0941     0.54667E-04 
  48038.3562     0.54476E-04 
  48070.6184     0.54285E-04 
  48102.8806     0.54094E-04 
  48135.1427     0.53902E-04 
  48167.4049     0.53710E-04 
  48199.6670     0.53517E-04 
  48231.9292     0.53324E-04 
  48264.1914     0.53131E-04 
  48296.4535     0.52937E-04 
  48328.7157     0.52743E-04 
  48360.9778     0.52549E-04 
  48393.2400     0.52354E-04 
  48425.5022     0.52159E-04 
  48457.7643     0.51964E-04 
  48490.0265     0.51768E-04 
  48522.2886     0.51572E-04 
  48554.5508     0.51376E-04 
  48586.8130     0.51180E-04 
  48619.0751     0.50983E-04 
  48651.3373     0.50786E-04 
  48683.5994     0.50589E-04 
  48715.8616     0.50392E-04 
  48748.1238     0.50194E-04 
  48780.3859     0.49996E-04 
  48812.6481     0.49798E-04 
  48844.9102     0.49600E-04 
  48877.1724     0.49402E-04 
  48909.4346     0.49203E-04 
  48941.6967     0.49005E-04 
  48973.9589     0.48806E-04 
  49006.2210     0.48607E-04 
  49038.4832     0.48408E-04 
  49070.7454     0.48208E-04 
  49103.0075     0.48009E-04 
  49135.2697     0.47810E-04 
  49167.5318     0.47610E-04 
  49199.7940     0.47410E-04 
  49232.0562     0.47210E-04 
  49264.3183     0.47011E-04 
  49296.5805     0.46811E-04 
  49328.8426     0.46611E-04 
  49361.1048     0.46411E-04 
  49393.3670     0.46211E-04 
  49425.6291     0.46010E-04 
  49457.8913     0.45810E-04 
  49490.1534     0.45610E-04 
  49522.4156     0.45410E-04 
  49554.6778     0.45210E-04 
  49586.9399     0.45010E-04 
  49619.2021     0.44809E-04 
  49651.4642     0.44609E-04 
  49683.7264     0.44409E-04 
  49715.9886     0.44209E-04 
  49748.2507     0.44009E-04 
  49780.5129     0.43809E-04 
  49812.7750     0.43609E-04 
  49845.0372     0.43409E-04 
  49877.2994     0.43209E-04 
  49909.5615     0.43010E-04 
  49941.8237     0.42810E-04 
  49974.0858     0.42610E-04 
  50006.3480     0.42411E-04 
  50038.6102     0.42211E-04 
  50070.8723     0.42012E-04 
  50103.1345     0.41813E-04 
  50135.3966     0.41614E-04 
  50167.6588     0.41415E-04 
  50199.9210     0.41217E-04 
  50232.1831     0.41018E-04 
  50264.4453     0.40820E-04 
  50296.7074     0.40621E-04 
  50328.9696     0.40423E-04 
  50361.2318     0.40225E-04 
  50393.4939     0.40028E-04 
  50425.7561     0.39830E-04 
  50458.0182     0.39633E-04 
  50490.2804     0.39436E-04 
  50522.5426     0.39239E-04 
  50554.8047     0.39042E-04 
  50587.0669     0.38845E-04 
  50619.3290     0.38649E-04 
  50651.5912     0.38453E-04 
  50683.8534     0.38257E-04 
  50716.1155     0.38062E-04 
  50748.3777     0.37867E-04 
  50780.6398     0.37671E-04 
  50812.9020     0.37477E-04 
  50845.1642     0.37282E-04 
  50877.4263     0.37088E-04 
  50909.6885     0.36894E-04 
  50941.9506     0.36700E-04 
  50974.2128     0.36507E-04 
  51006.4750     0.36314E-04 
  51038.7371     0.36121E-04 
  51070.9993     0.35929E-04 
  51103.2614     0.35736E-04 
  51135.5236     0.35544E-04 
  51167.7858     0.35353E-04 
  51200.0479     0.35162E-04 
  51232.3101     0.34971E-04 
  51264.5722     0.34780E-04 
  51296.8344     0.34590E-04 
  51329.0966     0.34400E-04 
  51361.3587     0.34211E-04 
  51393.6209     0.34022E-04 
  51425.8830     0.33833E-04 
  51458.1452     0.33644E-04 
  51490.4074     0.33456E-04 
  51522.6695     0.33269E-04 
  51554.9317     0.33081E-04 
  51587.1938     0.32895E-04 
  51619.4560     0.32708E-04 
  51651.7182     0.32522E-04 
  51683.9803     0.32336E-04 
  51716.2425     0.32151E-04 
  51748.5046     0.31966E-04 
  51780.7668     0.31781E-04 
  51813.0290     0.31597E-04 
  51845.2911     0.31414E-04 
  51877.5533     0.31230E-04 
  51909.8154     0.31048E-04 
  51942.0776     0.30865E-04 
  51974.3398     0.30683E-04 
  52006.6019     0.30502E-04 
  52038.8641     0.30321E-04 
  52071.1262     0.30140E-04 
  52103.3884     0.29960E-04 
  52135.6506     0.29780E-04 
  52167.9127     0.29601E-04 
  52200.1749     0.29422E-04 
  52232.4370     0.29244E-04 
  52264.6992     0.29066E-04 
  52296.9614     0.28888E-04 
  52329.2235     0.28712E-04 
  52361.4857     0.28535E-04 
  52393.7478     0.28359E-04 
  52426.0100     0.28184E-04 
  52458.2722     0.28009E-04 
  52490.5343     0.27834E-04 
  52522.7965     0.27660E-04 
  52555.0586     0.27486E-04 
  52587.3208     0.27313E-04 
  52619.5830     0.27141E-04 
  52651.8451     0.26969E-04 
  52684.1073     0.26797E-04 
  52716.3694     0.26626E-04 
  52748.6316     0.26456E-04 
  52780.8938     0.26286E-04 
  52813.1559     0.26116E-04 
  52845.4181     0.25947E-04 
  52877.6802     0.25779E-04 
  52909.9424     0.25611E-04 
  52942.2046     0.25444E-04 
  52974.4667     0.25277E-04 
  53006.7289     0.25110E-04 
  53038.9910     0.24945E-04 
  53071.2532     0.24779E-04 
  53103.5154     0.24615E-04 
  53135.7775     0.24450E-04 
  53168.0397     0.24287E-04 
  53200.3018     0.24124E-04 
  53232.5640     0.23961E-04 
  53264.8262     0.23799E-04 
  53297.0883     0.23638E-04 
  53329.3505     0.23477E-04 
  53361.6126     0.23316E-04 
  53393.8748     0.23156E-04 
  53426.1370     0.22997E-04 
  53458.3991     0.22839E-04 
  53490.6613     0.22680E-04 
  53522.9234     0.22523E-04 
  53555.1856     0.22366E-04 
  53587.4478     0.22209E-04 
  53619.7099     0.22053E-04 
  53651.9721     0.21898E-04 
  53684.2342     0.21743E-04 
  53716.4964     0.21589E-04 
  53748.7586     0.21436E-04 
  53781.0207     0.21283E-04 
  53813.2829     0.21130E-04 
  53845.5450     0.20978E-04 
  53877.8072     0.20827E-04 
  53910.0694     0.20676E-04 
  53942.3315     0.20526E-04 
  53974.5937     0.20376E-04 
  54006.8558     0.20227E-04 
  54039.1180     0.20079E-04 
  54071.3802     0.19931E-04 
  54103.6423     0.19784E-04 
  54135.9045     0.19637E-04 
  54168.1666     0.19491E-04 
  54200.4288     0.19345E-04 
  54232.6910     0.19200E-04 
  54264.9531     0.19056E-04 
  54297.2153     0.18912E-04 
  54329.4774     0.18769E-04 
  54361.7396     0.18626E-04 
  54394.0018     0.18484E-04 
  54426.2639     0.18343E-04 
  54458.5261     0.18202E-04 
  54490.7882     0.18062E-04 
  54523.0504     0.17922E-04 
  54555.3126     0.17783E-04 
  54587.5747     0.17645E-04 
  54619.8369     0.17507E-04 
  54652.0990     0.17370E-04 
  54684.3612     0.17233E-04 
  54716.6234     0.17097E-04 
  54748.8855     0.16961E-04 
  54781.1477     0.16826E-04 
  54813.4098     0.16692E-04 
  54845.6720     0.16558E-04 
  54877.9342     0.16425E-04 
  54910.1963     0.16293E-04 
  54942.4585     0.16161E-04 
  54974.7206     0.16029E-04 
  55006.9828     0.15898E-04 
  55039.2450     0.15768E-04 
  55071.5071     0.15639E-04 
  55103.7693     0.15510E-04 
  55136.0314     0.15381E-04 
  55168.2936     0.15253E-04 
  55200.5558     0.15126E-04 
  55232.8179     0.14999E-04 
  55265.0801     0.14873E-04 
  55297.3422     0.14748E-04 
  55329.6044     0.14623E-04 
  55361.8666     0.14499E-04 
  55394.1287     0.14375E-04 
  55426.3909     0.14252E-04 
  55458.6530     0.14129E-04 
  55490.9152     0.14008E-04 
  55523.1774     0.13886E-04 
  55555.4395     0.13765E-04 
  55587.7017     0.13645E-04 
  55619.9638     0.13526E-04 
  55652.2260     0.13407E-04 
  55684.4882     0.13288E-04 
  55716.7503     0.13170E-04 
  55749.0125     0.13053E-04 
  55781.2746     0.12937E-04 
  55813.5368     0.12821E-04 
  55845.7990     0.12705E-04 
  55878.0611     0.12590E-04 
  55910.3233     0.12476E-04 
  55942.5854     0.12362E-04 
  55974.8476     0.12249E-04 
  56007.1098     0.12136E-04 
  56039.3719     0.12024E-04 
  56071.6341     0.11913E-04 
  56103.8962     0.11802E-04 
  56136.1584     0.11692E-04 
  56168.4206     0.11582E-04 
  56200.6827     0.11473E-04 
  56232.9449     0.11364E-04 
  56265.2070     0.11257E-04 
  56297.4692     0.11149E-04 
  56329.7314     0.11042E-04 
  56361.9935     0.10936E-04 
  56394.2557     0.10830E-04 
  56426.5178     0.10725E-04 
  56458.7800     0.10621E-04 
  56491.0422     0.10517E-04 
  56523.3043     0.10413E-04 
  56555.5665     0.10310E-04 
  56587.8286     0.10208E-04 
  56620.0908     0.10107E-04 
  56652.3530     0.10005E-04 
  56684.6151     0.99048E-05 
  56716.8773     0.98048E-05 
  56749.1394     0.97053E-05 
  56781.4016     0.96064E-05 
  56813.6638     0.95081E-05 
  56845.9259     0.94103E-05 
  56878.1881     0.93130E-05 
  56910.4502     0.92164E-05 
  56942.7124     0.91203E-05 
  56974.9746     0.90247E-05 
  57007.2367     0.89297E-05 
  57039.4989     0.88352E-05 
  57071.7610     0.87413E-05 
  57104.0232     0.86479E-05 
  57136.2854     0.85551E-05 
  57168.5475     0.84629E-05 
  57200.8097     0.83712E-05 
  57233.0718     0.82800E-05 
  57265.3340     0.81894E-05 
  57297.5962     0.80993E-05 
  57329.8583     0.80097E-05 
  57362.1205     0.79207E-05 
  57394.3826     0.78323E-05 
  57426.6448     0.77444E-05 
  57458.9070     0.76570E-05 
  57491.1691     0.75701E-05 
  57523.4313     0.74838E-05 
  57555.6934     0.73981E-05 
  57587.9556     0.73128E-05 
  57620.2178     0.72281E-05 
  57652.4799     0.71439E-05 
  57684.7421     0.70603E-05 
  57717.0042     0.69772E-05 
  57749.2664     0.68946E-05 
  57781.5286     0.68126E-05 
  57813.7907     0.67310E-05 
  57846.0529     0.66500E-05 
  57878.3150     0.65696E-05 
  57910.5772     0.64896E-05 
  57942.8394     0.64102E-05 
  57975.1015     0.63313E-05 
  58007.3637     0.62529E-05 
  58039.6258     0.61750E-05 
  58071.8880     0.60977E-05 
  58104.1502     0.60209E-05 
  58136.4123     0.59446E-05 
  58168.6745     0.58688E-05 
  58200.9366     0.57935E-05 
  58233.1988     0.57188E-05 
  58265.4610     0.56445E-05 
  58297.7231     0.55708E-05 
  58329.9853     0.54976E-05 
  58362.2474     0.54249E-05 
  58394.5096     0.53527E-05 
  58426.7718     0.52810E-05 
  58459.0339     0.52098E-05 
  58491.2961     0.51392E-05 
  58523.5582     0.50690E-05 
  58555.8204     0.49993E-05 
  58588.0826     0.49302E-05 
  58620.3447     0.48616E-05 
  58652.6069     0.47934E-05 
  58684.8690     0.47258E-05 
  58717.1312     0.46587E-05 
  58749.3934     0.45921E-05 
  58781.6555     0.45259E-05 
  58813.9177     0.44603E-05 
  58846.1798     0.43952E-05 
  58878.4420     0.43306E-05 
  58910.7042     0.42665E-05 
  58942.9663     0.42029E-05 
  58975.2285     0.41398E-05 
  59007.4906     0.40771E-05 
  59039.7528     0.40150E-05 
  59072.0150     0.39534E-05 
  59104.2771     0.38923E-05 
  59136.5393     0.38317E-05 
  59168.8014     0.37716E-05 
  59201.0636     0.37119E-05 
  59233.3258     0.36528E-05 
  59265.5879     0.35942E-05 
  59297.8501     0.35360E-05 
  59330.1122     0.34784E-05 
  59362.3744     0.34212E-05 
  59394.6366     0.33646E-05 
  59426.8987     0.33084E-05 
  59459.1609     0.32528E-05 
  59491.4230     0.31976E-05 
  59523.6852     0.31430E-05 
  59555.9474     0.30888E-05 
  59588.2095     0.30351E-05 
  59620.4717     0.29820E-05 
  59652.7338     0.29293E-05 
  59684.9960     0.28771E-05 
  59717.2582     0.28254E-05 
  59749.5203     0.27743E-05 
  59781.7825     0.27236E-05 
  59814.0446     0.26734E-05 
  59846.3068     0.26237E-05 
  59878.5690     0.25745E-05 
  59910.8311     0.25258E-05 
  59943.0933     0.24777E-05 
  59975.3554     0.24300E-05 
  60007.6176     0.23828E-05 
  60039.8798     0.23361E-05 
  60072.1419     0.22900E-05 
  60104.4041     0.22443E-05 
  60136.6662     0.21991E-05 
  60168.9284     0.21545E-05 
  60201.1906     0.21104E-05 
  60233.4527     0.20667E-05 
  60265.7149     0.20236E-05 
  60297.9770     0.19810E-05 
  60330.2392     0.19389E-05 
  60362.5014     0.18973E-05 
  60394.7635     0.18563E-05 
  60427.0257     0.18157E-05 
  60459.2878     0.17757E-05 
  60491.5500     0.17362E-05 
  60523.8122     0.16972E-05 
  60556.0743     0.16588E-05 
  60588.3365     0.16209E-05 
  60620.5986     0.15835E-05 
  60652.8608     0.15466E-05 
  60685.1230     0.15103E-05 
  60717.3851     0.14745E-05 
  60749.6473     0.14392E-05 
  60781.9094     0.14045E-05 
  60814.1716     0.13703E-05 
  60846.4338     0.13367E-05 
  60878.6959     0.13036E-05 
  60910.9581     0.12711E-05 
  60943.2202     0.12391E-05 
  60975.4824     0.12077E-05 
  61007.7446     0.11768E-05 
  61040.0067     0.11465E-05 
  61072.2689     0.11168E-05 
  61104.5310     0.10876E-05 
  61136.7932     0.10590E-05 
  61169.0554     0.10310E-05 
  61201.3175     0.10036E-05 
  61233.5797     0.97675E-06 
  61265.8418     0.95049E-06 
  61298.1040     0.92482E-06 
  61330.3662     0.89975E-06 
  61362.6283     0.87527E-06 
  61394.8905     0.85140E-06 
  61427.1526     0.82814E-06 
  61459.4148     0.80549E-06 
  61491.6770     0.78346E-06 
  61523.9391     0.76206E-06 
  61556.2013     0.74128E-06 
  61588.4634     0.72113E-06 
  61620.7256     0.70163E-06 
  61652.9878     0.68276E-06 
  61685.2499     0.66455E-06 
  61717.5121     0.64699E-06 
  61749.7742     0.63009E-06 
  61782.0364     0.61385E-06 
  61814.2986     0.59829E-06 
  61846.5607     0.58341E-06 
  61878.8229     0.56922E-06 
  61911.0850     0.55571E-06 
  61943.3472     0.54291E-06 
  61975.6094     0.53081E-06 
  62007.8715     0.51942E-06 
  62040.1337     0.50875E-06 
  62072.3958     0.49881E-06 
  62104.6580     0.48961E-06 
  62136.9202     0.48114E-06 
  62169.1823     0.47343E-06 
  62201.4445     0.46647E-06 
  62233.7066     0.46028E-06 
  62265.9688     0.45487E-06 
  62298.2310     0.45024E-06 
  62330.4931     0.44641E-06 
  62362.7553     0.44337E-06 
  62395.0174     0.44115E-06 
  62427.2796     0.43974E-06 
  62459.5418     0.43917E-06 
  62491.8039     0.43944E-06 
  62524.0661     0.44055E-06 
  62556.3282     0.44253E-06 
  62588.5904     0.44538E-06 
  62620.8526     0.44911E-06 
  62653.1147     0.45373E-06 
  62685.3769     0.45925E-06 
  62717.6390     0.46569E-06 
  62749.9012     0.47306E-06 
  62782.1634     0.48136E-06 
  62814.4255     0.49062E-06 
  62846.6877     0.50084E-06 
  62878.9498     0.51204E-06 
  62911.2120     0.52422E-06 
  62943.4742     0.53741E-06 
  62975.7363     0.55161E-06 
  63007.9985     0.56684E-06 
  63040.2606     0.58311E-06 
  63072.5228     0.60044E-06 
  63104.7850     0.61884E-06 
  63137.0471     0.63833E-06 
  63169.3093     0.65892E-06 
  63201.5714     0.68062E-06 
  63233.8336     0.70346E-06 
  63266.0958     0.72745E-06 
  63298.3579     0.75260E-06 
  63330.6201     0.77893E-06 
  63362.8822     0.80646E-06 
  63395.1444     0.83521E-06 
  63427.4066     0.86518E-06 
  63459.6687     0.89641E-06 
  63491.9309     0.92891E-06 
  63524.1930     0.96269E-06 
  63556.4552     0.99778E-06 
  63588.7174     0.10342E-05 
  63620.9795     0.10719E-05 
  63653.2417     0.11111E-05 
  63685.5038     0.11516E-05 
  63717.7660     0.11935E-05 
  63750.0282     0.12368E-05 
  63782.2903     0.12816E-05 
  63814.5525     0.13278E-05 
  63846.8146     0.13756E-05 
  63879.0768     0.14248E-05 
  63911.3390     0.14756E-05 
  63943.6011     0.15279E-05 
  63975.8633     0.15819E-05 
  64008.1254     0.16374E-05 
  64040.3876     0.16946E-05 
  64072.6498     0.17534E-05 
  64104.9119     0.18139E-05 
  64137.1741     0.18760E-05 
  64169.4362     0.19400E-05 
  64201.6984     0.20057E-05 
  64233.9606     0.20731E-05 
  64266.2227     0.21424E-05 
  64298.4849     0.22135E-05 
  64330.7470     0.22865E-05 
  64363.0092     0.23614E-05 
  64395.2714     0.24381E-05 
  64427.5335     0.25169E-05 
  64459.7957     0.25976E-05 
  64492.0578     0.26804E-05 
  64524.3200     0.27651E-05 
  64556.5822     0.28520E-05 
  64588.8443     0.29410E-05 
  64621.1065     0.30321E-05 
  64653.3686     0.31253E-05 
  64685.6308     0.32208E-05 
  64717.8930     0.33185E-05 
  64750.1551     0.34185E-05 
  64782.4173     0.35208E-05 
  64814.6794     0.36254E-05 
  64846.9416     0.37324E-05 
  64879.2038     0.38418E-05 
  64911.4659     0.39537E-05 
  64943.7281     0.40680E-05 
  64975.9902     0.41849E-05 
  65008.2524     0.43043E-05 
  65040.5146     0.44263E-05 
  65072.7767     0.45510E-05 
  65105.0389     0.46783E-05 
  65137.3010     0.48084E-05 
  65169.5632     0.49412E-05 
  65201.8254     0.50768E-05 
  65234.0875     0.52153E-05 
  65266.3497     0.53566E-05 
  65298.6118     0.55009E-05 
  65330.8740     0.56481E-05 
  65363.1362     0.57984E-05 
  65395.3983     0.59517E-05 
  65427.6605     0.61081E-05 
  65459.9226     0.62677E-05 
  65492.1848     0.64304E-05 
  65524.4470     0.65964E-05 
  65556.7091     0.67657E-05 
  65588.9713     0.69383E-05 
  65621.2334     0.71144E-05 
  65653.4956     0.72938E-05 
  65685.7578     0.74767E-05 
  65718.0199     0.76632E-05 
  65750.2821     0.78532E-05 
  65782.5442     0.80469E-05 
  65814.8064     0.82443E-05 
  65847.0686     0.84454E-05 
  65879.3307     0.86503E-05 
  65911.5929     0.88591E-05 
  65943.8550     0.90718E-05 
  65976.1172     0.92884E-05 
  66008.3794     0.95090E-05 
  66040.6415     0.97338E-05 
  66072.9037     0.99626E-05 
  66105.1658     0.10196E-04 
  66137.4280     0.10433E-04 
  66169.6902     0.10674E-04 
  66201.9523     0.10920E-04 
  66234.2145     0.11171E-04 
  66266.4766     0.11426E-04 
  66298.7388     0.11685E-04 
  66331.0010     0.11949E-04 
  66363.2631     0.12218E-04 
  66395.5253     0.12491E-04 
  66427.7874     0.12769E-04 
  66460.0496     0.13052E-04 
  66492.3118     0.13340E-04 
  66524.5739     0.13633E-04 
  66556.8361     0.13931E-04 
  66589.0982     0.14234E-04 
  66621.3604     0.14542E-04 
  66653.6226     0.14856E-04 
  66685.8847     0.15175E-04 
  66718.1469     0.15499E-04 
  66750.4090     0.15829E-04 
  66782.6712     0.16164E-04 
  66814.9334     0.16505E-04 
  66847.1955     0.16852E-04 
  66879.4577     0.17204E-04 
  66911.7198     0.17562E-04 
  66943.9820     0.17926E-04 
  66976.2442     0.18296E-04 
  67008.5063     0.18672E-04 
  67040.7685     0.19054E-04 
  67073.0306     0.19442E-04 
  67105.2928     0.19837E-04 
  67137.5550     0.20238E-04 
  67169.8171     0.20645E-04 
  67202.0793     0.21059E-04 
  67234.3414     0.21480E-04 
  67266.6036     0.21907E-04 
  67298.8658     0.22341E-04 
  67331.1279     0.22781E-04 
  67363.3901     0.23229E-04 
  67395.6522     0.23683E-04 
  67427.9144     0.24145E-04 
  67460.1766     0.24614E-04 
  67492.4387     0.25090E-04 
  67524.7009     0.25573E-04 
  67556.9630     0.26064E-04 
  67589.2252     0.26562E-04 
  67621.4874     0.27068E-04 
  67653.7495     0.27581E-04 
  67686.0117     0.28102E-04 
  67718.2738     0.28631E-04 
  67750.5360     0.29168E-04 
  67782.7982     0.29713E-04 
  67815.0603     0.30266E-04 
  67847.3225     0.30827E-04 
  67879.5846     0.31396E-04 
  67911.8468     0.31974E-04 
  67944.1090     0.32560E-04 
  67976.3711     0.33155E-04 
  68008.6333     0.33758E-04 
  68040.8954     0.34370E-04 
  68073.1576     0.34991E-04 
  68105.4198     0.35620E-04 
  68137.6819     0.36259E-04 
  68169.9441     0.36907E-04 
  68202.2062     0.37564E-04 
  68234.4684     0.38230E-04 
  68266.7306     0.38905E-04 
  68298.9927     0.39590E-04 
  68331.2549     0.40285E-04 
  68363.5170     0.40989E-04 
  68395.7792     0.41703E-04 
  68428.0414     0.42426E-04 
  68460.3035     0.43160E-04 
  68492.5657     0.43903E-04 
  68524.8278     0.44657E-04 
  68557.0900     0.45421E-04 
  68589.3522     0.46195E-04 
  68621.6143     0.46980E-04 
  68653.8765     0.47775E-04 
  68686.1386     0.48580E-04 
  68718.4008     0.49397E-04 
  68750.6630     0.50224E-04 
  68782.9251     0.51062E-04 
  68815.1873     0.51911E-04 
  68847.4494     0.52771E-04 
  68879.7116     0.53642E-04 
  68911.9738     0.54524E-04 
  68944.2359     0.55418E-04 
  68976.4981     0.56323E-04 
  69008.7602     0.57240E-04 
  69041.0224     0.58169E-04 
  69073.2846     0.59109E-04 
  69105.5467     0.60061E-04 
  69137.8089     0.61025E-04 
  69170.0710     0.62001E-04 
  69202.3332     0.62989E-04 
  69234.5954     0.63989E-04 
  69266.8575     0.65002E-04 
  69299.1197     0.66027E-04 
  69331.3818     0.67064E-04 
  69363.6440     0.68114E-04 
  69395.9062     0.69177E-04 
  69428.1683     0.70253E-04 
  69460.4305     0.71342E-04 
  69492.6926     0.72443E-04 
  69524.9548     0.73558E-04 
  69557.2170     0.74686E-04 
  69589.4791     0.75827E-04 
  69621.7413     0.76981E-04 
  69654.0034     0.78149E-04 
  69686.2656     0.79331E-04 
  69718.5278     0.80526E-04 
  69750.7899     0.81735E-04 
  69783.0521     0.82957E-04 
  69815.3142     0.84194E-04 
  69847.5764     0.85445E-04 
  69879.8386     0.86709E-04 
  69912.1007     0.87988E-04 
  69944.3629     0.89282E-04 
  69976.6250     0.90589E-04 
  70008.8872     0.91911E-04 
  70041.1494     0.93248E-04 
  70073.4115     0.94599E-04 
  70105.6737     0.95965E-04 
  70137.9358     0.97346E-04 
  70170.1980     0.98741E-04 
  70202.4602     0.10015E-03 
  70234.7223     0.10158E-03 
  70266.9845     0.10302E-03 
  70299.2466     0.10447E-03 
  70331.5088     0.10595E-03 
  70363.7710     0.10743E-03 
  70396.0331     0.10894E-03 
  70428.2953     0.11045E-03 
  70460.5574     0.11199E-03 
  70492.8196     0.11354E-03 
  70525.0818     0.11510E-03 
  70557.3439     0.11668E-03 
  70589.6061     0.11828E-03 
  70621.8682     0.11989E-03 
  70654.1304     0.12152E-03 
  70686.3926     0.12316E-03 
  70718.6547     0.12483E-03 
  70750.9169     0.12650E-03 
  70783.1790     0.12820E-03 
  70815.4412     0.12991E-03 
  70847.7034     0.13163E-03 
  70879.9655     0.13338E-03 
  70912.2277     0.13514E-03 
  70944.4898     0.13691E-03 
  70976.7520     0.13871E-03 
  71009.0142     0.14052E-03 
  71041.2763     0.14234E-03 
  71073.5385     0.14419E-03 
  71105.8006     0.14605E-03 
  71138.0628     0.14793E-03 
  71170.3250     0.14982E-03 
  71202.5871     0.15173E-03 
  71234.8493     0.15366E-03 
  71267.1114     0.15561E-03 
  71299.3736     0.15758E-03 
  71331.6358     0.15956E-03 
  71363.8979     0.16156E-03 
  71396.1601     0.16357E-03 
  71428.4222     0.16561E-03 
  71460.6844     0.16766E-03 
  71492.9466     0.16973E-03 
  71525.2087     0.17181E-03 
  71557.4709     0.17392E-03 
  71589.7330     0.17604E-03 
  71621.9952     0.17818E-03 
  71654.2574     0.18033E-03 
  71686.5195     0.18251E-03 
  71718.7817     0.18470E-03 
  71751.0438     0.18691E-03 
  71783.3060     0.18914E-03 
  71815.5682     0.19139E-03 
  71847.8303     0.19365E-03 
  71880.0925     0.19594E-03 
  71912.3546     0.19824E-03 
  71944.6168     0.20055E-03 
  71976.8790     0.20289E-03 
  72009.1411     0.20524E-03 
  72041.4033     0.20762E-03 
  72073.6654     0.21001E-03 
  72105.9276     0.21241E-03 
  72138.1898     0.21484E-03 
  72170.4519     0.21729E-03 
  72202.7141     0.21975E-03 
  72234.9762     0.22223E-03 
  72267.2384     0.22473E-03 
  72299.5006     0.22724E-03 
  72331.7627     0.22978E-03 
  72364.0249     0.23233E-03 
  72396.2870     0.23490E-03 
  72428.5492     0.23749E-03 
  72460.8114     0.24010E-03 
  72493.0735     0.24272E-03 
  72525.3357     0.24536E-03 
  72557.5978     0.24802E-03 
  72589.8600     0.25070E-03 
