  32262.1600     0.15791E+03 
  32294.4222     0.15968E+03 
  32326.6843     0.16146E+03 
  32358.9465     0.16325E+03 
  32391.2086     0.16506E+03 
  32423.4708     0.16688E+03 
  32455.7330     0.16872E+03 
  32487.9951     0.17057E+03 
  32520.2573     0.17243E+03 
  32552.5194     0.17430E+03 
  32584.7816     0.17619E+03 
  32617.0438     0.17809E+03 
  32649.3059     0.18001E+03 
  32681.5681     0.18193E+03 
  32713.8302     0.18388E+03 
  32746.0924     0.18583E+03 
  32778.3546     0.18780E+03 
  32810.6167     0.18978E+03 
  32842.8789     0.19178E+03 
  32875.1410     0.19379E+03 
  32907.4032     0.19581E+03 
  32939.6654     0.19785E+03 
  32971.9275     0.19990E+03 
  33004.1897     0.20196E+03 
  33036.4518     0.20404E+03 
  33068.7140     0.20613E+03 
  33100.9762     0.20823E+03 
  33133.2383     0.21035E+03 
  33165.5005     0.21248E+03 
  33197.7626     0.21463E+03 
  33230.0248     0.21678E+03 
  33262.2870     0.21895E+03 
  33294.5491     0.22114E+03 
  33326.8113     0.22333E+03 
  33359.0734     0.22555E+03 
  33391.3356     0.22777E+03 
  33423.5978     0.23001E+03 
  33455.8599     0.23226E+03 
  33488.1221     0.23452E+03 
  33520.3842     0.23679E+03 
  33552.6464     0.23908E+03 
  33584.9086     0.24139E+03 
  33617.1707     0.24370E+03 
  33649.4329     0.24603E+03 
  33681.6950     0.24837E+03 
  33713.9572     0.25072E+03 
  33746.2194     0.25309E+03 
  33778.4815     0.25547E+03 
  33810.7437     0.25786E+03 
  33843.0058     0.26026E+03 
  33875.2680     0.26268E+03 
  33907.5302     0.26511E+03 
  33939.7923     0.26755E+03 
  33972.0545     0.27001E+03 
  34004.3166     0.27247E+03 
  34036.5788     0.27495E+03 
  34068.8410     0.27744E+03 
  34101.1031     0.27995E+03 
  34133.3653     0.28246E+03 
  34165.6274     0.28499E+03 
  34197.8896     0.28753E+03 
  34230.1518     0.29008E+03 
  34262.4139     0.29264E+03 
  34294.6761     0.29522E+03 
  34326.9382     0.29781E+03 
  34359.2004     0.30040E+03 
  34391.4626     0.30301E+03 
  34423.7247     0.30564E+03 
  34455.9869     0.30827E+03 
  34488.2490     0.31091E+03 
  34520.5112     0.31357E+03 
  34552.7734     0.31623E+03 
  34585.0355     0.31891E+03 
  34617.2977     0.32160E+03 
  34649.5598     0.32430E+03 
  34681.8220     0.32701E+03 
  34714.0842     0.32973E+03 
  34746.3463     0.33246E+03 
  34778.6085     0.33520E+03 
  34810.8706     0.33795E+03 
  34843.1328     0.34071E+03 
  34875.3950     0.34348E+03 
  34907.6571     0.34627E+03 
  34939.9193     0.34906E+03 
  34972.1814     0.35186E+03 
  35004.4436     0.35467E+03 
  35036.7058     0.35749E+03 
  35068.9679     0.36032E+03 
  35101.2301     0.36316E+03 
  35133.4922     0.36601E+03 
  35165.7544     0.36887E+03 
  35198.0166     0.37174E+03 
  35230.2787     0.37461E+03 
  35262.5409     0.37750E+03 
  35294.8030     0.38039E+03 
  35327.0652     0.38329E+03 
  35359.3274     0.38620E+03 
  35391.5895     0.38912E+03 
  35423.8517     0.39205E+03 
  35456.1138     0.39498E+03 
  35488.3760     0.39793E+03 
  35520.6382     0.40088E+03 
  35552.9003     0.40384E+03 
  35585.1625     0.40680E+03 
  35617.4246     0.40977E+03 
  35649.6868     0.41275E+03 
  35681.9490     0.41574E+03 
  35714.2111     0.41874E+03 
  35746.4733     0.42174E+03 
  35778.7354     0.42474E+03 
  35810.9976     0.42776E+03 
  35843.2598     0.43078E+03 
  35875.5219     0.43380E+03 
  35907.7841     0.43684E+03 
  35940.0462     0.43988E+03 
  35972.3084     0.44292E+03 
  36004.5706     0.44597E+03 
  36036.8327     0.44902E+03 
  36069.0949     0.45208E+03 
  36101.3570     0.45515E+03 
  36133.6192     0.45822E+03 
  36165.8814     0.46130E+03 
  36198.1435     0.46438E+03 
  36230.4057     0.46746E+03 
  36262.6678     0.47055E+03 
  36294.9300     0.47364E+03 
  36327.1922     0.47674E+03 
  36359.4543     0.47984E+03 
  36391.7165     0.48294E+03 
  36423.9786     0.48605E+03 
  36456.2408     0.48916E+03 
  36488.5030     0.49227E+03 
  36520.7651     0.49539E+03 
  36553.0273     0.49851E+03 
  36585.2894     0.50163E+03 
  36617.5516     0.50476E+03 
  36649.8138     0.50788E+03 
  36682.0759     0.51101E+03 
  36714.3381     0.51414E+03 
  36746.6002     0.51727E+03 
  36778.8624     0.52041E+03 
  36811.1246     0.52354E+03 
  36843.3867     0.52668E+03 
  36875.6489     0.52982E+03 
  36907.9110     0.53295E+03 
  36940.1732     0.53609E+03 
  36972.4354     0.53923E+03 
  37004.6975     0.54237E+03 
  37036.9597     0.54551E+03 
  37069.2218     0.54865E+03 
  37101.4840     0.55179E+03 
  37133.7462     0.55492E+03 
  37166.0083     0.55806E+03 
  37198.2705     0.56120E+03 
  37230.5326     0.56433E+03 
  37262.7948     0.56747E+03 
  37295.0570     0.57060E+03 
  37327.3191     0.57373E+03 
  37359.5813     0.57686E+03 
  37391.8434     0.57999E+03 
  37424.1056     0.58311E+03 
  37456.3678     0.58623E+03 
  37488.6299     0.58935E+03 
  37520.8921     0.59247E+03 
  37553.1542     0.59558E+03 
  37585.4164     0.59869E+03 
  37617.6786     0.60180E+03 
  37649.9407     0.60490E+03 
  37682.2029     0.60800E+03 
  37714.4650     0.61110E+03 
  37746.7272     0.61419E+03 
  37778.9894     0.61728E+03 
  37811.2515     0.62036E+03 
  37843.5137     0.62344E+03 
  37875.7758     0.62651E+03 
  37908.0380     0.62958E+03 
  37940.3002     0.63264E+03 
  37972.5623     0.63569E+03 
  38004.8245     0.63874E+03 
  38037.0866     0.64179E+03 
  38069.3488     0.64483E+03 
  38101.6110     0.64786E+03 
  38133.8731     0.65088E+03 
  38166.1353     0.65390E+03 
  38198.3974     0.65691E+03 
  38230.6596     0.65992E+03 
  38262.9218     0.66291E+03 
  38295.1839     0.66590E+03 
  38327.4461     0.66888E+03 
  38359.7082     0.67185E+03 
  38391.9704     0.67482E+03 
  38424.2326     0.67778E+03 
  38456.4947     0.68072E+03 
  38488.7569     0.68366E+03 
  38521.0190     0.68659E+03 
  38553.2812     0.68951E+03 
  38585.5434     0.69243E+03 
  38617.8055     0.69533E+03 
  38650.0677     0.69822E+03 
  38682.3298     0.70110E+03 
  38714.5920     0.70397E+03 
  38746.8542     0.70684E+03 
  38779.1163     0.70969E+03 
  38811.3785     0.71253E+03 
  38843.6406     0.71536E+03 
  38875.9028     0.71818E+03 
  38908.1650     0.72098E+03 
  38940.4271     0.72378E+03 
  38972.6893     0.72656E+03 
  39004.9514     0.72933E+03 
  39037.2136     0.73209E+03 
  39069.4758     0.73484E+03 
  39101.7379     0.73758E+03 
  39134.0001     0.74030E+03 
  39166.2622     0.74301E+03 
  39198.5244     0.74571E+03 
  39230.7866     0.74839E+03 
  39263.0487     0.75106E+03 
  39295.3109     0.75372E+03 
  39327.5730     0.75636E+03 
  39359.8352     0.75899E+03 
  39392.0974     0.76160E+03 
  39424.3595     0.76421E+03 
  39456.6217     0.76679E+03 
  39488.8838     0.76936E+03 
  39521.1460     0.77192E+03 
  39553.4082     0.77446E+03 
  39585.6703     0.77699E+03 
  39617.9325     0.77950E+03 
  39650.1946     0.78200E+03 
  39682.4568     0.78448E+03 
  39714.7190     0.78694E+03 
  39746.9811     0.78939E+03 
  39779.2433     0.79182E+03 
  39811.5054     0.79424E+03 
  39843.7676     0.79664E+03 
  39876.0298     0.79902E+03 
  39908.2919     0.80139E+03 
  39940.5541     0.80374E+03 
  39972.8162     0.80607E+03 
  40005.0784     0.80838E+03 
  40037.3406     0.81068E+03 
  40069.6027     0.81296E+03 
  40101.8649     0.81522E+03 
  40134.1270     0.81747E+03 
  40166.3892     0.81970E+03 
  40198.6514     0.82190E+03 
  40230.9135     0.82409E+03 
  40263.1757     0.82626E+03 
  40295.4378     0.82842E+03 
  40327.7000     0.83055E+03 
  40359.9622     0.83267E+03 
  40392.2243     0.83476E+03 
  40424.4865     0.83684E+03 
  40456.7486     0.83890E+03 
  40489.0108     0.84093E+03 
  40521.2730     0.84295E+03 
  40553.5351     0.84495E+03 
  40585.7973     0.84693E+03 
  40618.0594     0.84889E+03 
  40650.3216     0.85083E+03 
  40682.5838     0.85275E+03 
  40714.8459     0.85464E+03 
  40747.1081     0.85652E+03 
  40779.3702     0.85838E+03 
  40811.6324     0.86022E+03 
  40843.8946     0.86203E+03 
  40876.1567     0.86383E+03 
  40908.4189     0.86560E+03 
  40940.6810     0.86735E+03 
  40972.9432     0.86908E+03 
  41005.2054     0.87079E+03 
  41037.4675     0.87248E+03 
  41069.7297     0.87415E+03 
  41101.9918     0.87579E+03 
  41134.2540     0.87741E+03 
  41166.5162     0.87902E+03 
  41198.7783     0.88059E+03 
  41231.0405     0.88215E+03 
  41263.3026     0.88369E+03 
  41295.5648     0.88520E+03 
  41327.8270     0.88669E+03 
  41360.0891     0.88816E+03 
  41392.3513     0.88960E+03 
  41424.6134     0.89102E+03 
  41456.8756     0.89242E+03 
  41489.1378     0.89380E+03 
  41521.3999     0.89515E+03 
  41553.6621     0.89649E+03 
  41585.9242     0.89779E+03 
  41618.1864     0.89908E+03 
  41650.4486     0.90034E+03 
  41682.7107     0.90158E+03 
  41714.9729     0.90279E+03 
  41747.2350     0.90399E+03 
  41779.4972     0.90515E+03 
  41811.7594     0.90630E+03 
  41844.0215     0.90742E+03 
  41876.2837     0.90852E+03 
  41908.5458     0.90959E+03 
  41940.8080     0.91064E+03 
  41973.0702     0.91167E+03 
  42005.3323     0.91267E+03 
  42037.5945     0.91365E+03 
  42069.8566     0.91460E+03 
  42102.1188     0.91554E+03 
  42134.3810     0.91644E+03 
  42166.6431     0.91732E+03 
  42198.9053     0.91818E+03 
  42231.1674     0.91902E+03 
  42263.4296     0.91983E+03 
  42295.6918     0.92061E+03 
  42327.9539     0.92138E+03 
  42360.2161     0.92211E+03 
  42392.4782     0.92283E+03 
  42424.7404     0.92352E+03 
  42457.0026     0.92418E+03 
  42489.2647     0.92482E+03 
  42521.5269     0.92544E+03 
  42553.7890     0.92603E+03 
  42586.0512     0.92660E+03 
  42618.3134     0.92714E+03 
  42650.5755     0.92766E+03 
  42682.8377     0.92815E+03 
  42715.0998     0.92862E+03 
  42747.3620     0.92907E+03 
  42779.6242     0.92949E+03 
  42811.8863     0.92989E+03 
  42844.1485     0.93026E+03 
  42876.4106     0.93061E+03 
  42908.6728     0.93093E+03 
  42940.9350     0.93123E+03 
  42973.1971     0.93150E+03 
  43005.4593     0.93175E+03 
  43037.7214     0.93198E+03 
  43069.9836     0.93218E+03 
  43102.2458     0.93235E+03 
  43134.5079     0.93251E+03 
  43166.7701     0.93263E+03 
  43199.0322     0.93274E+03 
  43231.2944     0.93282E+03 
  43263.5566     0.93287E+03 
  43295.8187     0.93290E+03 
  43328.0809     0.93291E+03 
  43360.3430     0.93289E+03 
  43392.6052     0.93285E+03 
  43424.8674     0.93279E+03 
  43457.1295     0.93270E+03 
  43489.3917     0.93258E+03 
  43521.6538     0.93245E+03 
  43553.9160     0.93228E+03 
  43586.1782     0.93210E+03 
  43618.4403     0.93189E+03 
  43650.7025     0.93166E+03 
  43682.9646     0.93140E+03 
  43715.2268     0.93112E+03 
  43747.4890     0.93081E+03 
  43779.7511     0.93049E+03 
  43812.0133     0.93014E+03 
  43844.2754     0.92976E+03 
  43876.5376     0.92936E+03 
  43908.7998     0.92894E+03 
  43941.0619     0.92850E+03 
  43973.3241     0.92803E+03 
  44005.5862     0.92754E+03 
  44037.8484     0.92702E+03 
  44070.1106     0.92648E+03 
  44102.3727     0.92592E+03 
  44134.6349     0.92534E+03 
  44166.8970     0.92473E+03 
  44199.1592     0.92411E+03 
  44231.4214     0.92345E+03 
  44263.6835     0.92278E+03 
  44295.9457     0.92208E+03 
  44328.2078     0.92136E+03 
  44360.4700     0.92062E+03 
  44392.7322     0.91986E+03 
  44424.9943     0.91907E+03 
  44457.2565     0.91827E+03 
  44489.5186     0.91744E+03 
  44521.7808     0.91658E+03 
  44554.0430     0.91571E+03 
  44586.3051     0.91481E+03 
  44618.5673     0.91390E+03 
  44650.8294     0.91296E+03 
  44683.0916     0.91200E+03 
  44715.3538     0.91102E+03 
  44747.6159     0.91002E+03 
  44779.8781     0.90899E+03 
  44812.1402     0.90795E+03 
  44844.4024     0.90688E+03 
  44876.6646     0.90579E+03 
  44908.9267     0.90469E+03 
  44941.1889     0.90356E+03 
  44973.4510     0.90241E+03 
  45005.7132     0.90124E+03 
  45037.9754     0.90005E+03 
  45070.2375     0.89884E+03 
  45102.4997     0.89761E+03 
  45134.7618     0.89636E+03 
  45167.0240     0.89509E+03 
  45199.2862     0.89381E+03 
  45231.5483     0.89250E+03 
  45263.8105     0.89117E+03 
  45296.0726     0.88982E+03 
  45328.3348     0.88845E+03 
  45360.5970     0.88707E+03 
  45392.8591     0.88566E+03 
  45425.1213     0.88424E+03 
  45457.3834     0.88280E+03 
  45489.6456     0.88134E+03 
  45521.9078     0.87986E+03 
  45554.1699     0.87836E+03 
  45586.4321     0.87684E+03 
  45618.6942     0.87531E+03 
  45650.9564     0.87375E+03 
  45683.2186     0.87218E+03 
  45715.4807     0.87059E+03 
  45747.7429     0.86899E+03 
  45780.0050     0.86736E+03 
  45812.2672     0.86572E+03 
  45844.5294     0.86407E+03 
  45876.7915     0.86239E+03 
  45909.0537     0.86070E+03 
  45941.3158     0.85899E+03 
  45973.5780     0.85726E+03 
  46005.8402     0.85552E+03 
  46038.1023     0.85376E+03 
  46070.3645     0.85199E+03 
  46102.6266     0.85020E+03 
  46134.8888     0.84839E+03 
  46167.1510     0.84657E+03 
  46199.4131     0.84473E+03 
  46231.6753     0.84287E+03 
  46263.9374     0.84101E+03 
  46296.1996     0.83912E+03 
  46328.4618     0.83722E+03 
  46360.7239     0.83531E+03 
  46392.9861     0.83338E+03 
  46425.2482     0.83143E+03 
  46457.5104     0.82947E+03 
  46489.7726     0.82750E+03 
  46522.0347     0.82551E+03 
  46554.2969     0.82351E+03 
  46586.5590     0.82149E+03 
  46618.8212     0.81946E+03 
  46651.0834     0.81742E+03 
  46683.3455     0.81536E+03 
  46715.6077     0.81329E+03 
  46747.8698     0.81121E+03 
  46780.1320     0.80911E+03 
  46812.3942     0.80700E+03 
  46844.6563     0.80488E+03 
  46876.9185     0.80274E+03 
  46909.1806     0.80059E+03 
  46941.4428     0.79843E+03 
  46973.7050     0.79626E+03 
  47005.9671     0.79408E+03 
  47038.2293     0.79188E+03 
  47070.4914     0.78967E+03 
  47102.7536     0.78745E+03 
  47135.0158     0.78522E+03 
  47167.2779     0.78298E+03 
  47199.5401     0.78072E+03 
  47231.8022     0.77846E+03 
  47264.0644     0.77618E+03 
  47296.3266     0.77390E+03 
  47328.5887     0.77160E+03 
  47360.8509     0.76929E+03 
  47393.1130     0.76698E+03 
  47425.3752     0.76465E+03 
  47457.6374     0.76231E+03 
  47489.8995     0.75996E+03 
  47522.1617     0.75761E+03 
  47554.4238     0.75524E+03 
  47586.6860     0.75286E+03 
  47618.9482     0.75048E+03 
  47651.2103     0.74808E+03 
  47683.4725     0.74568E+03 
  47715.7346     0.74327E+03 
  47747.9968     0.74085E+03 
  47780.2590     0.73842E+03 
  47812.5211     0.73598E+03 
  47844.7833     0.73353E+03 
  47877.0454     0.73108E+03 
  47909.3076     0.72862E+03 
  47941.5698     0.72615E+03 
  47973.8319     0.72367E+03 
  48006.0941     0.72119E+03 
  48038.3562     0.71870E+03 
  48070.6184     0.71620E+03 
  48102.8806     0.71369E+03 
  48135.1427     0.71118E+03 
  48167.4049     0.70866E+03 
  48199.6670     0.70613E+03 
  48231.9292     0.70360E+03 
  48264.1914     0.70106E+03 
  48296.4535     0.69852E+03 
  48328.7157     0.69597E+03 
  48360.9778     0.69341E+03 
  48393.2400     0.69085E+03 
  48425.5022     0.68828E+03 
  48457.7643     0.68571E+03 
  48490.0265     0.68313E+03 
  48522.2886     0.68055E+03 
  48554.5508     0.67796E+03 
  48586.8130     0.67536E+03 
  48619.0751     0.67276E+03 
  48651.3373     0.67016E+03 
  48683.5994     0.66755E+03 
  48715.8616     0.66494E+03 
  48748.1238     0.66233E+03 
  48780.3859     0.65971E+03 
  48812.6481     0.65708E+03 
  48844.9102     0.65446E+03 
  48877.1724     0.65183E+03 
  48909.4346     0.64919E+03 
  48941.6967     0.64655E+03 
  48973.9589     0.64391E+03 
  49006.2210     0.64127E+03 
  49038.4832     0.63862E+03 
  49070.7454     0.63597E+03 
  49103.0075     0.63332E+03 
  49135.2697     0.63066E+03 
  49167.5318     0.62801E+03 
  49199.7940     0.62535E+03 
  49232.0562     0.62269E+03 
  49264.3183     0.62002E+03 
  49296.5805     0.61736E+03 
  49328.8426     0.61469E+03 
  49361.1048     0.61202E+03 
  49393.3670     0.60935E+03 
  49425.6291     0.60668E+03 
  49457.8913     0.60400E+03 
  49490.1534     0.60133E+03 
  49522.4156     0.59865E+03 
  49554.6778     0.59598E+03 
  49586.9399     0.59330E+03 
  49619.2021     0.59062E+03 
  49651.4642     0.58794E+03 
  49683.7264     0.58526E+03 
  49715.9886     0.58258E+03 
  49748.2507     0.57990E+03 
  49780.5129     0.57722E+03 
  49812.7750     0.57455E+03 
  49845.0372     0.57187E+03 
  49877.2994     0.56919E+03 
  49909.5615     0.56651E+03 
  49941.8237     0.56383E+03 
  49974.0858     0.56115E+03 
  50006.3480     0.55848E+03 
  50038.6102     0.55580E+03 
  50070.8723     0.55313E+03 
  50103.1345     0.55045E+03 
  50135.3966     0.54778E+03 
  50167.6588     0.54511E+03 
  50199.9210     0.54244E+03 
  50232.1831     0.53977E+03 
  50264.4453     0.53710E+03 
  50296.7074     0.53444E+03 
  50328.9696     0.53177E+03 
  50361.2318     0.52911E+03 
  50393.4939     0.52645E+03 
  50425.7561     0.52379E+03 
  50458.0182     0.52114E+03 
  50490.2804     0.51849E+03 
  50522.5426     0.51583E+03 
  50554.8047     0.51319E+03 
  50587.0669     0.51054E+03 
  50619.3290     0.50790E+03 
  50651.5912     0.50526E+03 
  50683.8534     0.50262E+03 
  50716.1155     0.49999E+03 
  50748.3777     0.49736E+03 
  50780.6398     0.49473E+03 
  50812.9020     0.49210E+03 
  50845.1642     0.48948E+03 
  50877.4263     0.48686E+03 
  50909.6885     0.48425E+03 
  50941.9506     0.48164E+03 
  50974.2128     0.47903E+03 
  51006.4750     0.47643E+03 
  51038.7371     0.47383E+03 
  51070.9993     0.47123E+03 
  51103.2614     0.46864E+03 
  51135.5236     0.46606E+03 
  51167.7858     0.46347E+03 
  51200.0479     0.46089E+03 
  51232.3101     0.45832E+03 
  51264.5722     0.45575E+03 
  51296.8344     0.45318E+03 
  51329.0966     0.45062E+03 
  51361.3587     0.44807E+03 
  51393.6209     0.44552E+03 
  51425.8830     0.44297E+03 
  51458.1452     0.44043E+03 
  51490.4074     0.43789E+03 
  51522.6695     0.43536E+03 
  51554.9317     0.43283E+03 
  51587.1938     0.43031E+03 
  51619.4560     0.42780E+03 
  51651.7182     0.42528E+03 
  51683.9803     0.42278E+03 
  51716.2425     0.42028E+03 
  51748.5046     0.41778E+03 
  51780.7668     0.41530E+03 
  51813.0290     0.41281E+03 
  51845.2911     0.41034E+03 
  51877.5533     0.40786E+03 
  51909.8154     0.40540E+03 
  51942.0776     0.40294E+03 
  51974.3398     0.40048E+03 
  52006.6019     0.39804E+03 
  52038.8641     0.39559E+03 
  52071.1262     0.39316E+03 
  52103.3884     0.39073E+03 
  52135.6506     0.38831E+03 
  52167.9127     0.38589E+03 
  52200.1749     0.38348E+03 
  52232.4370     0.38107E+03 
  52264.6992     0.37868E+03 
  52296.9614     0.37628E+03 
  52329.2235     0.37390E+03 
  52361.4857     0.37152E+03 
  52393.7478     0.36915E+03 
  52426.0100     0.36679E+03 
  52458.2722     0.36443E+03 
  52490.5343     0.36208E+03 
  52522.7965     0.35973E+03 
  52555.0586     0.35740E+03 
  52587.3208     0.35507E+03 
  52619.5830     0.35274E+03 
  52651.8451     0.35043E+03 
  52684.1073     0.34812E+03 
  52716.3694     0.34581E+03 
  52748.6316     0.34352E+03 
  52780.8938     0.34123E+03 
  52813.1559     0.33895E+03 
  52845.4181     0.33668E+03 
  52877.6802     0.33441E+03 
  52909.9424     0.33215E+03 
  52942.2046     0.32990E+03 
  52974.4667     0.32766E+03 
  53006.7289     0.32542E+03 
  53038.9910     0.32319E+03 
  53071.2532     0.32097E+03 
  53103.5154     0.31876E+03 
  53135.7775     0.31655E+03 
  53168.0397     0.31436E+03 
  53200.3018     0.31216E+03 
  53232.5640     0.30998E+03 
  53264.8262     0.30781E+03 
  53297.0883     0.30564E+03 
  53329.3505     0.30348E+03 
  53361.6126     0.30133E+03 
  53393.8748     0.29918E+03 
  53426.1370     0.29705E+03 
  53458.3991     0.29492E+03 
  53490.6613     0.29280E+03 
  53522.9234     0.29069E+03 
  53555.1856     0.28858E+03 
  53587.4478     0.28648E+03 
  53619.7099     0.28440E+03 
  53651.9721     0.28231E+03 
  53684.2342     0.28024E+03 
  53716.4964     0.27818E+03 
  53748.7586     0.27612E+03 
  53781.0207     0.27407E+03 
  53813.2829     0.27203E+03 
  53845.5450     0.27000E+03 
  53877.8072     0.26798E+03 
  53910.0694     0.26596E+03 
  53942.3315     0.26395E+03 
  53974.5937     0.26195E+03 
  54006.8558     0.25996E+03 
  54039.1180     0.25798E+03 
  54071.3802     0.25601E+03 
  54103.6423     0.25404E+03 
  54135.9045     0.25208E+03 
  54168.1666     0.25013E+03 
  54200.4288     0.24819E+03 
  54232.6910     0.24626E+03 
  54264.9531     0.24433E+03 
  54297.2153     0.24241E+03 
  54329.4774     0.24051E+03 
  54361.7396     0.23861E+03 
  54394.0018     0.23671E+03 
  54426.2639     0.23483E+03 
  54458.5261     0.23296E+03 
  54490.7882     0.23109E+03 
  54523.0504     0.22923E+03 
  54555.3126     0.22738E+03 
  54587.5747     0.22554E+03 
  54619.8369     0.22371E+03 
  54652.0990     0.22188E+03 
  54684.3612     0.22006E+03 
  54716.6234     0.21826E+03 
  54748.8855     0.21646E+03 
  54781.1477     0.21467E+03 
  54813.4098     0.21288E+03 
  54845.6720     0.21111E+03 
  54877.9342     0.20934E+03 
  54910.1963     0.20758E+03 
  54942.4585     0.20583E+03 
  54974.7206     0.20409E+03 
  55006.9828     0.20236E+03 
  55039.2450     0.20064E+03 
  55071.5071     0.19892E+03 
  55103.7693     0.19721E+03 
  55136.0314     0.19552E+03 
  55168.2936     0.19382E+03 
  55200.5558     0.19214E+03 
  55232.8179     0.19047E+03 
  55265.0801     0.18880E+03 
  55297.3422     0.18715E+03 
  55329.6044     0.18550E+03 
  55361.8666     0.18386E+03 
  55394.1287     0.18222E+03 
  55426.3909     0.18060E+03 
  55458.6530     0.17898E+03 
  55490.9152     0.17738E+03 
  55523.1774     0.17578E+03 
  55555.4395     0.17419E+03 
  55587.7017     0.17261E+03 
  55619.9638     0.17103E+03 
  55652.2260     0.16947E+03 
  55684.4882     0.16791E+03 
  55716.7503     0.16636E+03 
  55749.0125     0.16482E+03 
  55781.2746     0.16329E+03 
  55813.5368     0.16176E+03 
  55845.7990     0.16024E+03 
  55878.0611     0.15874E+03 
  55910.3233     0.15724E+03 
  55942.5854     0.15574E+03 
  55974.8476     0.15426E+03 
  56007.1098     0.15279E+03 
  56039.3719     0.15132E+03 
  56071.6341     0.14986E+03 
  56103.8962     0.14841E+03 
  56136.1584     0.14697E+03 
  56168.4206     0.14553E+03 
  56200.6827     0.14410E+03 
  56232.9449     0.14268E+03 
  56265.2070     0.14127E+03 
  56297.4692     0.13987E+03 
  56329.7314     0.13848E+03 
  56361.9935     0.13709E+03 
  56394.2557     0.13571E+03 
  56426.5178     0.13434E+03 
  56458.7800     0.13298E+03 
  56491.0422     0.13162E+03 
  56523.3043     0.13028E+03 
  56555.5665     0.12894E+03 
  56587.8286     0.12761E+03 
  56620.0908     0.12628E+03 
  56652.3530     0.12497E+03 
  56684.6151     0.12366E+03 
  56716.8773     0.12236E+03 
  56749.1394     0.12107E+03 
  56781.4016     0.11979E+03 
  56813.6638     0.11851E+03 
  56845.9259     0.11724E+03 
  56878.1881     0.11598E+03 
  56910.4502     0.11473E+03 
  56942.7124     0.11348E+03 
  56974.9746     0.11225E+03 
  57007.2367     0.11102E+03 
  57039.4989     0.10979E+03 
  57071.7610     0.10858E+03 
  57104.0232     0.10737E+03 
  57136.2854     0.10617E+03 
  57168.5475     0.10498E+03 
  57200.8097     0.10380E+03 
  57233.0718     0.10262E+03 
  57265.3340     0.10145E+03 
  57297.5962     0.10029E+03 
  57329.8583     0.99137E+02 
  57362.1205     0.97991E+02 
  57394.3826     0.96852E+02 
  57426.6448     0.95721E+02 
  57458.9070     0.94596E+02 
  57491.1691     0.93480E+02 
  57523.4313     0.92370E+02 
  57555.6934     0.91269E+02 
  57587.9556     0.90174E+02 
  57620.2178     0.89087E+02 
  57652.4799     0.88007E+02 
  57684.7421     0.86934E+02 
  57717.0042     0.85869E+02 
  57749.2664     0.84811E+02 
  57781.5286     0.83761E+02 
  57813.7907     0.82717E+02 
  57846.0529     0.81681E+02 
  57878.3150     0.80652E+02 
  57910.5772     0.79630E+02 
  57942.8394     0.78615E+02 
  57975.1015     0.77608E+02 
  58007.3637     0.76607E+02 
  58039.6258     0.75614E+02 
  58071.8880     0.74628E+02 
  58104.1502     0.73649E+02 
  58136.4123     0.72676E+02 
  58168.6745     0.71711E+02 
  58200.9366     0.70754E+02 
  58233.1988     0.69803E+02 
  58265.4610     0.68859E+02 
  58297.7231     0.67922E+02 
  58329.9853     0.66992E+02 
  58362.2474     0.66069E+02 
  58394.5096     0.65153E+02 
  58426.7718     0.64244E+02 
  58459.0339     0.63341E+02 
  58491.2961     0.62446E+02 
  58523.5582     0.61558E+02 
  58555.8204     0.60676E+02 
  58588.0826     0.59801E+02 
  58620.3447     0.58933E+02 
  58652.6069     0.58072E+02 
  58684.8690     0.57218E+02 
  58717.1312     0.56371E+02 
  58749.3934     0.55530E+02 
  58781.6555     0.54696E+02 
  58813.9177     0.53869E+02 
  58846.1798     0.53049E+02 
  58878.4420     0.52235E+02 
  58910.7042     0.51428E+02 
  58942.9663     0.50628E+02 
  58975.2285     0.49835E+02 
  59007.4906     0.49048E+02 
  59039.7528     0.48268E+02 
  59072.0150     0.47495E+02 
  59104.2771     0.46728E+02 
  59136.5393     0.45968E+02 
  59168.8014     0.45215E+02 
  59201.0636     0.44468E+02 
  59233.3258     0.43728E+02 
  59265.5879     0.42995E+02 
  59297.8501     0.42268E+02 
  59330.1122     0.41548E+02 
  59362.3744     0.40834E+02 
  59394.6366     0.40127E+02 
  59426.8987     0.39427E+02 
  59459.1609     0.38733E+02 
  59491.4230     0.38046E+02 
  59523.6852     0.37366E+02 
  59555.9474     0.36692E+02 
  59588.2095     0.36025E+02 
  59620.4717     0.35364E+02 
  59652.7338     0.34710E+02 
  59684.9960     0.34062E+02 
  59717.2582     0.33421E+02 
  59749.5203     0.32787E+02 
  59781.7825     0.32159E+02 
  59814.0446     0.31538E+02 
  59846.3068     0.30923E+02 
  59878.5690     0.30315E+02 
  59910.8311     0.29714E+02 
  59943.0933     0.29119E+02 
  59975.3554     0.28531E+02 
  60007.6176     0.27949E+02 
  60039.8798     0.27374E+02 
  60072.1419     0.26806E+02 
  60104.4041     0.26244E+02 
  60136.6662     0.25689E+02 
  60168.9284     0.25140E+02 
  60201.1906     0.24598E+02 
  60233.4527     0.24063E+02 
  60265.7149     0.23535E+02 
  60297.9770     0.23013E+02 
  60330.2392     0.22498E+02 
  60362.5014     0.21990E+02 
  60394.7635     0.21488E+02 
  60427.0257     0.20993E+02 
  60459.2878     0.20505E+02 
  60491.5500     0.20023E+02 
  60523.8122     0.19549E+02 
  60556.0743     0.19081E+02 
  60588.3365     0.18620E+02 
  60620.5986     0.18166E+02 
  60652.8608     0.17719E+02 
  60685.1230     0.17279E+02 
  60717.3851     0.16845E+02 
  60749.6473     0.16419E+02 
  60781.9094     0.15999E+02 
  60814.1716     0.15587E+02 
  60846.4338     0.15181E+02 
  60878.6959     0.14783E+02 
  60910.9581     0.14391E+02 
  60943.2202     0.14007E+02 
  60975.4824     0.13630E+02 
  61007.7446     0.13260E+02 
  61040.0067     0.12897E+02 
  61072.2689     0.12541E+02 
  61104.5310     0.12193E+02 
  61136.7932     0.11852E+02 
  61169.0554     0.11518E+02 
  61201.3175     0.11192E+02 
  61233.5797     0.10873E+02 
  61265.8418     0.10562E+02 
  61298.1040     0.10258E+02 
  61330.3662     0.99614E+01 
  61362.6283     0.96726E+01 
  61394.8905     0.93915E+01 
  61427.1526     0.91180E+01 
  61459.4148     0.88523E+01 
  61491.6770     0.85944E+01 
  61523.9391     0.83444E+01 
  61556.2013     0.81022E+01 
  61588.4634     0.78679E+01 
  61620.7256     0.76417E+01 
  61652.9878     0.74236E+01 
  61685.2499     0.72135E+01 
  61717.5121     0.70117E+01 
  61749.7742     0.68181E+01 
  61782.0364     0.66328E+01 
  61814.2986     0.64559E+01 
  61846.5607     0.62874E+01 
  61878.8229     0.61274E+01 
  61911.0850     0.59760E+01 
  61943.3472     0.58333E+01 
  61975.6094     0.56993E+01 
  62007.8715     0.55741E+01 
  62040.1337     0.54578E+01 
  62072.3958     0.53505E+01 
  62104.6580     0.52522E+01 
  62136.9202     0.51630E+01 
  62169.1823     0.50831E+01 
  62201.4445     0.50124E+01 
  62233.7066     0.49512E+01 
  62265.9688     0.48994E+01 
  62298.2310     0.48572E+01 
  62330.4931     0.48246E+01 
  62362.7553     0.48018E+01 
  62395.0174     0.47889E+01 
  62427.2796     0.47859E+01 
  62459.5418     0.47930E+01 
  62491.8039     0.48103E+01 
  62524.0661     0.48379E+01 
  62556.3282     0.48758E+01 
  62588.5904     0.49242E+01 
  62620.8526     0.49833E+01 
  62653.1147     0.50531E+01 
  62685.3769     0.51337E+01 
  62717.6390     0.52253E+01 
  62749.9012     0.53280E+01 
  62782.1634     0.54419E+01 
  62814.4255     0.55672E+01 
  62846.6877     0.57039E+01 
  62878.9498     0.58523E+01 
  62911.2120     0.60124E+01 
  62943.4742     0.61844E+01 
  62975.7363     0.63684E+01 
  63007.9985     0.65646E+01 
  63040.2606     0.67731E+01 
  63072.5228     0.69940E+01 
  63104.7850     0.72276E+01 
  63137.0471     0.74739E+01 
  63169.3093     0.77332E+01 
  63201.5714     0.80056E+01 
  63233.8336     0.82912E+01 
  63266.0958     0.85902E+01 
  63298.3579     0.89028E+01 
  63330.6201     0.92292E+01 
  63362.8822     0.95695E+01 
  63395.1444     0.99239E+01 
  63427.4066     0.10293E+02 
  63459.6687     0.10676E+02 
  63491.9309     0.11074E+02 
  63524.1930     0.11486E+02 
  63556.4552     0.11914E+02 
  63588.7174     0.12357E+02 
  63620.9795     0.12815E+02 
  63653.2417     0.13290E+02 
  63685.5038     0.13779E+02 
  63717.7660     0.14285E+02 
  63750.0282     0.14808E+02 
  63782.2903     0.15346E+02 
  63814.5525     0.15902E+02 
  63846.8146     0.16474E+02 
  63879.0768     0.17064E+02 
  63911.3390     0.17671E+02 
  63943.6011     0.18295E+02 
  63975.8633     0.18938E+02 
  64008.1254     0.19598E+02 
  64040.3876     0.20277E+02 
  64072.6498     0.20975E+02 
  64104.9119     0.21691E+02 
  64137.1741     0.22426E+02 
  64169.4362     0.23181E+02 
  64201.6984     0.23956E+02 
  64233.9606     0.24750E+02 
  64266.2227     0.25565E+02 
  64298.4849     0.26400E+02 
  64330.7470     0.27256E+02 
  64363.0092     0.28133E+02 
  64395.2714     0.29031E+02 
  64427.5335     0.29950E+02 
  64459.7957     0.30892E+02 
  64492.0578     0.31856E+02 
  64524.3200     0.32842E+02 
  64556.5822     0.33852E+02 
  64588.8443     0.34884E+02 
  64621.1065     0.35940E+02 
  64653.3686     0.37019E+02 
  64685.6308     0.38123E+02 
  64717.8930     0.39251E+02 
  64750.1551     0.40404E+02 
  64782.4173     0.41583E+02 
  64814.6794     0.42786E+02 
  64846.9416     0.44016E+02 
  64879.2038     0.45271E+02 
  64911.4659     0.46554E+02 
  64943.7281     0.47863E+02 
  64975.9902     0.49199E+02 
  65008.2524     0.50563E+02 
  65040.5146     0.51955E+02 
  65072.7767     0.53376E+02 
  65105.0389     0.54825E+02 
  65137.3010     0.56304E+02 
  65169.5632     0.57812E+02 
  65201.8254     0.59351E+02 
  65234.0875     0.60919E+02 
  65266.3497     0.62519E+02 
  65298.6118     0.64150E+02 
  65330.8740     0.65812E+02 
  65363.1362     0.67507E+02 
  65395.3983     0.69234E+02 
  65427.6605     0.70995E+02 
  65459.9226     0.72789E+02 
  65492.1848     0.74616E+02 
  65524.4470     0.76478E+02 
  65556.7091     0.78375E+02 
  65588.9713     0.80308E+02 
  65621.2334     0.82276E+02 
  65653.4956     0.84280E+02 
  65685.7578     0.86321E+02 
  65718.0199     0.88400E+02 
  65750.2821     0.90516E+02 
  65782.5442     0.92670E+02 
  65814.8064     0.94863E+02 
  65847.0686     0.97096E+02 
  65879.3307     0.99368E+02 
  65911.5929     0.10168E+03 
  65943.8550     0.10403E+03 
  65976.1172     0.10643E+03 
  66008.3794     0.10887E+03 
  66040.6415     0.11135E+03 
  66072.9037     0.11387E+03 
  66105.1658     0.11643E+03 
  66137.4280     0.11904E+03 
  66169.6902     0.12170E+03 
  66201.9523     0.12440E+03 
  66234.2145     0.12714E+03 
  66266.4766     0.12994E+03 
  66298.7388     0.13278E+03 
  66331.0010     0.13566E+03 
  66363.2631     0.13860E+03 
  66395.5253     0.14159E+03 
  66427.7874     0.14462E+03 
  66460.0496     0.14770E+03 
  66492.3118     0.15084E+03 
  66524.5739     0.15403E+03 
  66556.8361     0.15727E+03 
  66589.0982     0.16056E+03 
  66621.3604     0.16390E+03 
  66653.6226     0.16730E+03 
  66685.8847     0.17076E+03 
  66718.1469     0.17426E+03 
  66750.4090     0.17783E+03 
  66782.6712     0.18145E+03 
  66814.9334     0.18513E+03 
  66847.1955     0.18887E+03 
  66879.4577     0.19267E+03 
  66911.7198     0.19652E+03 
  66943.9820     0.20044E+03 
  66976.2442     0.20442E+03 
  67008.5063     0.20846E+03 
  67040.7685     0.21256E+03 
  67073.0306     0.21673E+03 
  67105.2928     0.22096E+03 
  67137.5550     0.22525E+03 
  67169.8171     0.22961E+03 
  67202.0793     0.23404E+03 
  67234.3414     0.23853E+03 
  67266.6036     0.24309E+03 
  67298.8658     0.24772E+03 
  67331.1279     0.25242E+03 
  67363.3901     0.25719E+03 
  67395.6522     0.26203E+03 
  67427.9144     0.26694E+03 
  67460.1766     0.27193E+03 
  67492.4387     0.27699E+03 
  67524.7009     0.28212E+03 
  67556.9630     0.28733E+03 
  67589.2252     0.29261E+03 
  67621.4874     0.29798E+03 
  67653.7495     0.30341E+03 
  67686.0117     0.30893E+03 
  67718.2738     0.31453E+03 
  67750.5360     0.32021E+03 
  67782.7982     0.32596E+03 
  67815.0603     0.33180E+03 
  67847.3225     0.33773E+03 
  67879.5846     0.34374E+03 
  67911.8468     0.34983E+03 
  67944.1090     0.35601E+03 
  67976.3711     0.36227E+03 
  68008.6333     0.36862E+03 
  68040.8954     0.37506E+03 
  68073.1576     0.38159E+03 
  68105.4198     0.38821E+03 
  68137.6819     0.39492E+03 
  68169.9441     0.40172E+03 
  68202.2062     0.40862E+03 
  68234.4684     0.41561E+03 
  68266.7306     0.42269E+03 
  68298.9927     0.42987E+03 
  68331.2549     0.43715E+03 
  68363.5170     0.44452E+03 
  68395.7792     0.45200E+03 
  68428.0414     0.45957E+03 
  68460.3035     0.46725E+03 
  68492.5657     0.47502E+03 
  68524.8278     0.48290E+03 
  68557.0900     0.49088E+03 
  68589.3522     0.49897E+03 
  68621.6143     0.50716E+03 
  68653.8765     0.51546E+03 
  68686.1386     0.52387E+03 
  68718.4008     0.53238E+03 
  68750.6630     0.54101E+03 
  68782.9251     0.54975E+03 
  68815.1873     0.55859E+03 
  68847.4494     0.56755E+03 
  68879.7116     0.57663E+03 
  68911.9738     0.58582E+03 
  68944.2359     0.59512E+03 
  68976.4981     0.60454E+03 
  69008.7602     0.61408E+03 
  69041.0224     0.62374E+03 
  69073.2846     0.63352E+03 
  69105.5467     0.64342E+03 
  69137.8089     0.65344E+03 
  69170.0710     0.66359E+03 
  69202.3332     0.67386E+03 
  69234.5954     0.68425E+03 
  69266.8575     0.69477E+03 
  69299.1197     0.70542E+03 
  69331.3818     0.71620E+03 
  69363.6440     0.72710E+03 
  69395.9062     0.73814E+03 
  69428.1683     0.74930E+03 
  69460.4305     0.76061E+03 
  69492.6926     0.77204E+03 
  69524.9548     0.78361E+03 
  69557.2170     0.79531E+03 
  69589.4791     0.80715E+03 
  69621.7413     0.81913E+03 
  69654.0034     0.83125E+03 
  69686.2656     0.84351E+03 
  69718.5278     0.85591E+03 
  69750.7899     0.86845E+03 
  69783.0521     0.88114E+03 
  69815.3142     0.89397E+03 
  69847.5764     0.90694E+03 
  69879.8386     0.92006E+03 
  69912.1007     0.93333E+03 
  69944.3629     0.94675E+03 
  69976.6250     0.96031E+03 
  70008.8872     0.97403E+03 
  70041.1494     0.98790E+03 
  70073.4115     0.10019E+04 
  70105.6737     0.10161E+04 
  70137.9358     0.10304E+04 
  70170.1980     0.10449E+04 
  70202.4602     0.10596E+04 
  70234.7223     0.10744E+04 
  70266.9845     0.10893E+04 
  70299.2466     0.11044E+04 
  70331.5088     0.11197E+04 
  70363.7710     0.11352E+04 
  70396.0331     0.11508E+04 
  70428.2953     0.11665E+04 
  70460.5574     0.11825E+04 
  70492.8196     0.11986E+04 
  70525.0818     0.12148E+04 
  70557.3439     0.12313E+04 
  70589.6061     0.12479E+04 
  70621.8682     0.12647E+04 
  70654.1304     0.12816E+04 
  70686.3926     0.12987E+04 
  70718.6547     0.13160E+04 
  70750.9169     0.13335E+04 
  70783.1790     0.13511E+04 
  70815.4412     0.13689E+04 
  70847.7034     0.13869E+04 
  70879.9655     0.14051E+04 
  70912.2277     0.14234E+04 
  70944.4898     0.14420E+04 
  70976.7520     0.14607E+04 
  71009.0142     0.14796E+04 
  71041.2763     0.14986E+04 
  71073.5385     0.15179E+04 
  71105.8006     0.15373E+04 
  71138.0628     0.15570E+04 
  71170.3250     0.15768E+04 
  71202.5871     0.15968E+04 
  71234.8493     0.16169E+04 
  71267.1114     0.16373E+04 
  71299.3736     0.16579E+04 
  71331.6358     0.16786E+04 
  71363.8979     0.16996E+04 
  71396.1601     0.17207E+04 
  71428.4222     0.17420E+04 
  71460.6844     0.17635E+04 
  71492.9466     0.17853E+04 
  71525.2087     0.18072E+04 
  71557.4709     0.18293E+04 
  71589.7330     0.18516E+04 
  71621.9952     0.18741E+04 
  71654.2574     0.18967E+04 
  71686.5195     0.19196E+04 
  71718.7817     0.19427E+04 
  71751.0438     0.19660E+04 
  71783.3060     0.19895E+04 
  71815.5682     0.20132E+04 
  71847.8303     0.20371E+04 
  71880.0925     0.20612E+04 
  71912.3546     0.20855E+04 
  71944.6168     0.21099E+04 
  71976.8790     0.21346E+04 
  72009.1411     0.21596E+04 
  72041.4033     0.21847E+04 
  72073.6654     0.22100E+04 
  72105.9276     0.22355E+04 
  72138.1898     0.22612E+04 
  72170.4519     0.22871E+04 
  72202.7141     0.23133E+04 
  72234.9762     0.23396E+04 
  72267.2384     0.23662E+04 
  72299.5006     0.23929E+04 
  72331.7627     0.24199E+04 
  72364.0249     0.24471E+04 
  72396.2870     0.24745E+04 
  72428.5492     0.25021E+04 
  72460.8114     0.25299E+04 
  72493.0735     0.25579E+04 
  72525.3357     0.25861E+04 
  72557.5978     0.26146E+04 
  72589.8600     0.26432E+04 
