  32262.1600     0.23440E+02 
  32294.4222     0.23684E+02 
  32326.6843     0.23930E+02 
  32358.9465     0.24177E+02 
  32391.2086     0.24427E+02 
  32423.4708     0.24677E+02 
  32455.7330     0.24930E+02 
  32487.9951     0.25184E+02 
  32520.2573     0.25440E+02 
  32552.5194     0.25697E+02 
  32584.7816     0.25956E+02 
  32617.0438     0.26217E+02 
  32649.3059     0.26480E+02 
  32681.5681     0.26744E+02 
  32713.8302     0.27009E+02 
  32746.0924     0.27277E+02 
  32778.3546     0.27546E+02 
  32810.6167     0.27817E+02 
  32842.8789     0.28089E+02 
  32875.1410     0.28363E+02 
  32907.4032     0.28639E+02 
  32939.6654     0.28916E+02 
  32971.9275     0.29195E+02 
  33004.1897     0.29475E+02 
  33036.4518     0.29757E+02 
  33068.7140     0.30041E+02 
  33100.9762     0.30327E+02 
  33133.2383     0.30614E+02 
  33165.5005     0.30902E+02 
  33197.7626     0.31193E+02 
  33230.0248     0.31485E+02 
  33262.2870     0.31778E+02 
  33294.5491     0.32073E+02 
  33326.8113     0.32370E+02 
  33359.0734     0.32668E+02 
  33391.3356     0.32968E+02 
  33423.5978     0.33270E+02 
  33455.8599     0.33573E+02 
  33488.1221     0.33877E+02 
  33520.3842     0.34184E+02 
  33552.6464     0.34491E+02 
  33584.9086     0.34801E+02 
  33617.1707     0.35112E+02 
  33649.4329     0.35424E+02 
  33681.6950     0.35738E+02 
  33713.9572     0.36053E+02 
  33746.2194     0.36370E+02 
  33778.4815     0.36689E+02 
  33810.7437     0.37009E+02 
  33843.0058     0.37331E+02 
  33875.2680     0.37654E+02 
  33907.5302     0.37978E+02 
  33939.7923     0.38304E+02 
  33972.0545     0.38632E+02 
  34004.3166     0.38961E+02 
  34036.5788     0.39291E+02 
  34068.8410     0.39623E+02 
  34101.1031     0.39956E+02 
  34133.3653     0.40291E+02 
  34165.6274     0.40627E+02 
  34197.8896     0.40964E+02 
  34230.1518     0.41303E+02 
  34262.4139     0.41643E+02 
  34294.6761     0.41985E+02 
  34326.9382     0.42328E+02 
  34359.2004     0.42673E+02 
  34391.4626     0.43018E+02 
  34423.7247     0.43366E+02 
  34455.9869     0.43714E+02 
  34488.2490     0.44064E+02 
  34520.5112     0.44415E+02 
  34552.7734     0.44767E+02 
  34585.0355     0.45121E+02 
  34617.2977     0.45476E+02 
  34649.5598     0.45832E+02 
  34681.8220     0.46189E+02 
  34714.0842     0.46548E+02 
  34746.3463     0.46908E+02 
  34778.6085     0.47269E+02 
  34810.8706     0.47631E+02 
  34843.1328     0.47994E+02 
  34875.3950     0.48359E+02 
  34907.6571     0.48725E+02 
  34939.9193     0.49092E+02 
  34972.1814     0.49460E+02 
  35004.4436     0.49829E+02 
  35036.7058     0.50199E+02 
  35068.9679     0.50571E+02 
  35101.2301     0.50943E+02 
  35133.4922     0.51316E+02 
  35165.7544     0.51691E+02 
  35198.0166     0.52067E+02 
  35230.2787     0.52443E+02 
  35262.5409     0.52821E+02 
  35294.8030     0.53199E+02 
  35327.0652     0.53579E+02 
  35359.3274     0.53959E+02 
  35391.5895     0.54341E+02 
  35423.8517     0.54723E+02 
  35456.1138     0.55106E+02 
  35488.3760     0.55490E+02 
  35520.6382     0.55875E+02 
  35552.9003     0.56261E+02 
  35585.1625     0.56648E+02 
  35617.4246     0.57036E+02 
  35649.6868     0.57424E+02 
  35681.9490     0.57813E+02 
  35714.2111     0.58203E+02 
  35746.4733     0.58594E+02 
  35778.7354     0.58985E+02 
  35810.9976     0.59377E+02 
  35843.2598     0.59770E+02 
  35875.5219     0.60163E+02 
  35907.7841     0.60558E+02 
  35940.0462     0.60952E+02 
  35972.3084     0.61348E+02 
  36004.5706     0.61744E+02 
  36036.8327     0.62141E+02 
  36069.0949     0.62538E+02 
  36101.3570     0.62936E+02 
  36133.6192     0.63334E+02 
  36165.8814     0.63733E+02 
  36198.1435     0.64132E+02 
  36230.4057     0.64532E+02 
  36262.6678     0.64932E+02 
  36294.9300     0.65333E+02 
  36327.1922     0.65734E+02 
  36359.4543     0.66135E+02 
  36391.7165     0.66537E+02 
  36423.9786     0.66940E+02 
  36456.2408     0.67342E+02 
  36488.5030     0.67745E+02 
  36520.7651     0.68148E+02 
  36553.0273     0.68552E+02 
  36585.2894     0.68955E+02 
  36617.5516     0.69359E+02 
  36649.8138     0.69764E+02 
  36682.0759     0.70168E+02 
  36714.3381     0.70572E+02 
  36746.6002     0.70977E+02 
  36778.8624     0.71382E+02 
  36811.1246     0.71787E+02 
  36843.3867     0.72192E+02 
  36875.6489     0.72597E+02 
  36907.9110     0.73002E+02 
  36940.1732     0.73407E+02 
  36972.4354     0.73812E+02 
  37004.6975     0.74217E+02 
  37036.9597     0.74622E+02 
  37069.2218     0.75027E+02 
  37101.4840     0.75432E+02 
  37133.7462     0.75837E+02 
  37166.0083     0.76242E+02 
  37198.2705     0.76646E+02 
  37230.5326     0.77051E+02 
  37262.7948     0.77455E+02 
  37295.0570     0.77859E+02 
  37327.3191     0.78262E+02 
  37359.5813     0.78666E+02 
  37391.8434     0.79069E+02 
  37424.1056     0.79472E+02 
  37456.3678     0.79874E+02 
  37488.6299     0.80276E+02 
  37520.8921     0.80678E+02 
  37553.1542     0.81079E+02 
  37585.4164     0.81480E+02 
  37617.6786     0.81881E+02 
  37649.9407     0.82281E+02 
  37682.2029     0.82680E+02 
  37714.4650     0.83079E+02 
  37746.7272     0.83478E+02 
  37778.9894     0.83876E+02 
  37811.2515     0.84273E+02 
  37843.5137     0.84670E+02 
  37875.7758     0.85066E+02 
  37908.0380     0.85461E+02 
  37940.3002     0.85856E+02 
  37972.5623     0.86250E+02 
  38004.8245     0.86643E+02 
  38037.0866     0.87036E+02 
  38069.3488     0.87427E+02 
  38101.6110     0.87818E+02 
  38133.8731     0.88209E+02 
  38166.1353     0.88598E+02 
  38198.3974     0.88986E+02 
  38230.6596     0.89374E+02 
  38262.9218     0.89761E+02 
  38295.1839     0.90146E+02 
  38327.4461     0.90531E+02 
  38359.7082     0.90915E+02 
  38391.9704     0.91298E+02 
  38424.2326     0.91680E+02 
  38456.4947     0.92060E+02 
  38488.7569     0.92440E+02 
  38521.0190     0.92819E+02 
  38553.2812     0.93196E+02 
  38585.5434     0.93572E+02 
  38617.8055     0.93948E+02 
  38650.0677     0.94322E+02 
  38682.3298     0.94694E+02 
  38714.5920     0.95066E+02 
  38746.8542     0.95436E+02 
  38779.1163     0.95805E+02 
  38811.3785     0.96173E+02 
  38843.6406     0.96540E+02 
  38875.9028     0.96905E+02 
  38908.1650     0.97268E+02 
  38940.4271     0.97631E+02 
  38972.6893     0.97992E+02 
  39004.9514     0.98351E+02 
  39037.2136     0.98709E+02 
  39069.4758     0.99066E+02 
  39101.7379     0.99421E+02 
  39134.0001     0.99775E+02 
  39166.2622     0.10013E+03 
  39198.5244     0.10048E+03 
  39230.7866     0.10083E+03 
  39263.0487     0.10117E+03 
  39295.3109     0.10152E+03 
  39327.5730     0.10186E+03 
  39359.8352     0.10221E+03 
  39392.0974     0.10255E+03 
  39424.3595     0.10289E+03 
  39456.6217     0.10322E+03 
  39488.8838     0.10356E+03 
  39521.1460     0.10389E+03 
  39553.4082     0.10422E+03 
  39585.6703     0.10455E+03 
  39617.9325     0.10488E+03 
  39650.1946     0.10521E+03 
  39682.4568     0.10553E+03 
  39714.7190     0.10586E+03 
  39746.9811     0.10618E+03 
  39779.2433     0.10650E+03 
  39811.5054     0.10681E+03 
  39843.7676     0.10713E+03 
  39876.0298     0.10744E+03 
  39908.2919     0.10775E+03 
  39940.5541     0.10806E+03 
  39972.8162     0.10837E+03 
  40005.0784     0.10867E+03 
  40037.3406     0.10898E+03 
  40069.6027     0.10928E+03 
  40101.8649     0.10958E+03 
  40134.1270     0.10987E+03 
  40166.3892     0.11017E+03 
  40198.6514     0.11046E+03 
  40230.9135     0.11075E+03 
  40263.1757     0.11104E+03 
  40295.4378     0.11132E+03 
  40327.7000     0.11161E+03 
  40359.9622     0.11189E+03 
  40392.2243     0.11217E+03 
  40424.4865     0.11244E+03 
  40456.7486     0.11272E+03 
  40489.0108     0.11299E+03 
  40521.2730     0.11326E+03 
  40553.5351     0.11353E+03 
  40585.7973     0.11379E+03 
  40618.0594     0.11405E+03 
  40650.3216     0.11431E+03 
  40682.5838     0.11457E+03 
  40714.8459     0.11483E+03 
  40747.1081     0.11508E+03 
  40779.3702     0.11533E+03 
  40811.6324     0.11558E+03 
  40843.8946     0.11582E+03 
  40876.1567     0.11607E+03 
  40908.4189     0.11631E+03 
  40940.6810     0.11654E+03 
  40972.9432     0.11678E+03 
  41005.2054     0.11701E+03 
  41037.4675     0.11724E+03 
  41069.7297     0.11747E+03 
  41101.9918     0.11769E+03 
  41134.2540     0.11792E+03 
  41166.5162     0.11814E+03 
  41198.7783     0.11835E+03 
  41231.0405     0.11857E+03 
  41263.3026     0.11878E+03 
  41295.5648     0.11899E+03 
  41327.8270     0.11920E+03 
  41360.0891     0.11940E+03 
  41392.3513     0.11960E+03 
  41424.6134     0.11980E+03 
  41456.8756     0.11999E+03 
  41489.1378     0.12019E+03 
  41521.3999     0.12038E+03 
  41553.6621     0.12057E+03 
  41585.9242     0.12075E+03 
  41618.1864     0.12093E+03 
  41650.4486     0.12111E+03 
  41682.7107     0.12129E+03 
  41714.9729     0.12146E+03 
  41747.2350     0.12163E+03 
  41779.4972     0.12180E+03 
  41811.7594     0.12196E+03 
  41844.0215     0.12213E+03 
  41876.2837     0.12229E+03 
  41908.5458     0.12244E+03 
  41940.8080     0.12260E+03 
  41973.0702     0.12275E+03 
  42005.3323     0.12289E+03 
  42037.5945     0.12304E+03 
  42069.8566     0.12318E+03 
  42102.1188     0.12332E+03 
  42134.3810     0.12346E+03 
  42166.6431     0.12359E+03 
  42198.9053     0.12372E+03 
  42231.1674     0.12385E+03 
  42263.4296     0.12397E+03 
  42295.6918     0.12410E+03 
  42327.9539     0.12421E+03 
  42360.2161     0.12433E+03 
  42392.4782     0.12444E+03 
  42424.7404     0.12455E+03 
  42457.0026     0.12466E+03 
  42489.2647     0.12476E+03 
  42521.5269     0.12486E+03 
  42553.7890     0.12496E+03 
  42586.0512     0.12506E+03 
  42618.3134     0.12515E+03 
  42650.5755     0.12524E+03 
  42682.8377     0.12533E+03 
  42715.0998     0.12541E+03 
  42747.3620     0.12549E+03 
  42779.6242     0.12557E+03 
  42811.8863     0.12564E+03 
  42844.1485     0.12571E+03 
  42876.4106     0.12578E+03 
  42908.6728     0.12585E+03 
  42940.9350     0.12591E+03 
  42973.1971     0.12597E+03 
  43005.4593     0.12602E+03 
  43037.7214     0.12608E+03 
  43069.9836     0.12613E+03 
  43102.2458     0.12617E+03 
  43134.5079     0.12622E+03 
  43166.7701     0.12626E+03 
  43199.0322     0.12630E+03 
  43231.2944     0.12633E+03 
  43263.5566     0.12637E+03 
  43295.8187     0.12640E+03 
  43328.0809     0.12642E+03 
  43360.3430     0.12645E+03 
  43392.6052     0.12647E+03 
  43424.8674     0.12648E+03 
  43457.1295     0.12650E+03 
  43489.3917     0.12651E+03 
  43521.6538     0.12652E+03 
  43553.9160     0.12652E+03 
  43586.1782     0.12653E+03 
  43618.4403     0.12653E+03 
  43650.7025     0.12652E+03 
  43682.9646     0.12652E+03 
  43715.2268     0.12651E+03 
  43747.4890     0.12650E+03 
  43779.7511     0.12648E+03 
  43812.0133     0.12646E+03 
  43844.2754     0.12644E+03 
  43876.5376     0.12642E+03 
  43908.7998     0.12639E+03 
  43941.0619     0.12636E+03 
  43973.3241     0.12633E+03 
  44005.5862     0.12629E+03 
  44037.8484     0.12625E+03 
  44070.1106     0.12621E+03 
  44102.3727     0.12617E+03 
  44134.6349     0.12612E+03 
  44166.8970     0.12607E+03 
  44199.1592     0.12602E+03 
  44231.4214     0.12596E+03 
  44263.6835     0.12590E+03 
  44295.9457     0.12584E+03 
  44328.2078     0.12578E+03 
  44360.4700     0.12571E+03 
  44392.7322     0.12564E+03 
  44424.9943     0.12557E+03 
  44457.2565     0.12549E+03 
  44489.5186     0.12541E+03 
  44521.7808     0.12533E+03 
  44554.0430     0.12525E+03 
  44586.3051     0.12516E+03 
  44618.5673     0.12507E+03 
  44650.8294     0.12498E+03 
  44683.0916     0.12488E+03 
  44715.3538     0.12479E+03 
  44747.6159     0.12469E+03 
  44779.8781     0.12458E+03 
  44812.1402     0.12448E+03 
  44844.4024     0.12437E+03 
  44876.6646     0.12426E+03 
  44908.9267     0.12414E+03 
  44941.1889     0.12403E+03 
  44973.4510     0.12391E+03 
  45005.7132     0.12378E+03 
  45037.9754     0.12366E+03 
  45070.2375     0.12353E+03 
  45102.4997     0.12340E+03 
  45134.7618     0.12327E+03 
  45167.0240     0.12313E+03 
  45199.2862     0.12300E+03 
  45231.5483     0.12286E+03 
  45263.8105     0.12271E+03 
  45296.0726     0.12257E+03 
  45328.3348     0.12242E+03 
  45360.5970     0.12227E+03 
  45392.8591     0.12212E+03 
  45425.1213     0.12196E+03 
  45457.3834     0.12180E+03 
  45489.6456     0.12164E+03 
  45521.9078     0.12148E+03 
  45554.1699     0.12132E+03 
  45586.4321     0.12115E+03 
  45618.6942     0.12098E+03 
  45650.9564     0.12081E+03 
  45683.2186     0.12063E+03 
  45715.4807     0.12045E+03 
  45747.7429     0.12027E+03 
  45780.0050     0.12009E+03 
  45812.2672     0.11991E+03 
  45844.5294     0.11972E+03 
  45876.7915     0.11953E+03 
  45909.0537     0.11934E+03 
  45941.3158     0.11915E+03 
  45973.5780     0.11895E+03 
  46005.8402     0.11875E+03 
  46038.1023     0.11855E+03 
  46070.3645     0.11835E+03 
  46102.6266     0.11815E+03 
  46134.8888     0.11794E+03 
  46167.1510     0.11773E+03 
  46199.4131     0.11752E+03 
  46231.6753     0.11731E+03 
  46263.9374     0.11709E+03 
  46296.1996     0.11687E+03 
  46328.4618     0.11665E+03 
  46360.7239     0.11643E+03 
  46392.9861     0.11621E+03 
  46425.2482     0.11598E+03 
  46457.5104     0.11575E+03 
  46489.7726     0.11552E+03 
  46522.0347     0.11529E+03 
  46554.2969     0.11506E+03 
  46586.5590     0.11482E+03 
  46618.8212     0.11458E+03 
  46651.0834     0.11434E+03 
  46683.3455     0.11410E+03 
  46715.6077     0.11386E+03 
  46747.8698     0.11361E+03 
  46780.1320     0.11337E+03 
  46812.3942     0.11312E+03 
  46844.6563     0.11287E+03 
  46876.9185     0.11261E+03 
  46909.1806     0.11236E+03 
  46941.4428     0.11210E+03 
  46973.7050     0.11184E+03 
  47005.9671     0.11158E+03 
  47038.2293     0.11132E+03 
  47070.4914     0.11106E+03 
  47102.7536     0.11079E+03 
  47135.0158     0.11053E+03 
  47167.2779     0.11026E+03 
  47199.5401     0.10999E+03 
  47231.8022     0.10972E+03 
  47264.0644     0.10944E+03 
  47296.3266     0.10917E+03 
  47328.5887     0.10889E+03 
  47360.8509     0.10861E+03 
  47393.1130     0.10833E+03 
  47425.3752     0.10805E+03 
  47457.6374     0.10777E+03 
  47489.8995     0.10748E+03 
  47522.1617     0.10720E+03 
  47554.4238     0.10691E+03 
  47586.6860     0.10662E+03 
  47618.9482     0.10633E+03 
  47651.2103     0.10604E+03 
  47683.4725     0.10575E+03 
  47715.7346     0.10545E+03 
  47747.9968     0.10516E+03 
  47780.2590     0.10486E+03 
  47812.5211     0.10456E+03 
  47844.7833     0.10426E+03 
  47877.0454     0.10396E+03 
  47909.3076     0.10366E+03 
  47941.5698     0.10336E+03 
  47973.8319     0.10305E+03 
  48006.0941     0.10275E+03 
  48038.3562     0.10244E+03 
  48070.6184     0.10213E+03 
  48102.8806     0.10182E+03 
  48135.1427     0.10151E+03 
  48167.4049     0.10120E+03 
  48199.6670     0.10089E+03 
  48231.9292     0.10057E+03 
  48264.1914     0.10026E+03 
  48296.4535     0.99941E+02 
  48328.7157     0.99624E+02 
  48360.9778     0.99306E+02 
  48393.2400     0.98987E+02 
  48425.5022     0.98667E+02 
  48457.7643     0.98345E+02 
  48490.0265     0.98023E+02 
  48522.2886     0.97700E+02 
  48554.5508     0.97376E+02 
  48586.8130     0.97051E+02 
  48619.0751     0.96725E+02 
  48651.3373     0.96399E+02 
  48683.5994     0.96071E+02 
  48715.8616     0.95742E+02 
  48748.1238     0.95413E+02 
  48780.3859     0.95083E+02 
  48812.6481     0.94752E+02 
  48844.9102     0.94421E+02 
  48877.1724     0.94088E+02 
  48909.4346     0.93755E+02 
  48941.6967     0.93421E+02 
  48973.9589     0.93087E+02 
  49006.2210     0.92751E+02 
  49038.4832     0.92415E+02 
  49070.7454     0.92079E+02 
  49103.0075     0.91741E+02 
  49135.2697     0.91404E+02 
  49167.5318     0.91065E+02 
  49199.7940     0.90726E+02 
  49232.0562     0.90386E+02 
  49264.3183     0.90046E+02 
  49296.5805     0.89705E+02 
  49328.8426     0.89364E+02 
  49361.1048     0.89022E+02 
  49393.3670     0.88680E+02 
  49425.6291     0.88337E+02 
  49457.8913     0.87993E+02 
  49490.1534     0.87650E+02 
  49522.4156     0.87306E+02 
  49554.6778     0.86961E+02 
  49586.9399     0.86616E+02 
  49619.2021     0.86270E+02 
  49651.4642     0.85925E+02 
  49683.7264     0.85579E+02 
  49715.9886     0.85232E+02 
  49748.2507     0.84885E+02 
  49780.5129     0.84538E+02 
  49812.7750     0.84191E+02 
  49845.0372     0.83843E+02 
  49877.2994     0.83495E+02 
  49909.5615     0.83147E+02 
  49941.8237     0.82798E+02 
  49974.0858     0.82450E+02 
  50006.3480     0.82101E+02 
  50038.6102     0.81752E+02 
  50070.8723     0.81402E+02 
  50103.1345     0.81053E+02 
  50135.3966     0.80703E+02 
  50167.6588     0.80353E+02 
  50199.9210     0.80004E+02 
  50232.1831     0.79654E+02 
  50264.4453     0.79304E+02 
  50296.7074     0.78953E+02 
  50328.9696     0.78603E+02 
  50361.2318     0.78253E+02 
  50393.4939     0.77903E+02 
  50425.7561     0.77552E+02 
  50458.0182     0.77202E+02 
  50490.2804     0.76852E+02 
  50522.5426     0.76501E+02 
  50554.8047     0.76151E+02 
  50587.0669     0.75801E+02 
  50619.3290     0.75451E+02 
  50651.5912     0.75100E+02 
  50683.8534     0.74750E+02 
  50716.1155     0.74400E+02 
  50748.3777     0.74051E+02 
  50780.6398     0.73701E+02 
  50812.9020     0.73351E+02 
  50845.1642     0.73002E+02 
  50877.4263     0.72653E+02 
  50909.6885     0.72303E+02 
  50941.9506     0.71954E+02 
  50974.2128     0.71606E+02 
  51006.4750     0.71257E+02 
  51038.7371     0.70909E+02 
  51070.9993     0.70561E+02 
  51103.2614     0.70213E+02 
  51135.5236     0.69865E+02 
  51167.7858     0.69518E+02 
  51200.0479     0.69171E+02 
  51232.3101     0.68824E+02 
  51264.5722     0.68478E+02 
  51296.8344     0.68131E+02 
  51329.0966     0.67786E+02 
  51361.3587     0.67440E+02 
  51393.6209     0.67095E+02 
  51425.8830     0.66750E+02 
  51458.1452     0.66406E+02 
  51490.4074     0.66062E+02 
  51522.6695     0.65718E+02 
  51554.9317     0.65375E+02 
  51587.1938     0.65032E+02 
  51619.4560     0.64689E+02 
  51651.7182     0.64347E+02 
  51683.9803     0.64006E+02 
  51716.2425     0.63665E+02 
  51748.5046     0.63324E+02 
  51780.7668     0.62984E+02 
  51813.0290     0.62644E+02 
  51845.2911     0.62305E+02 
  51877.5533     0.61966E+02 
  51909.8154     0.61628E+02 
  51942.0776     0.61290E+02 
  51974.3398     0.60953E+02 
  52006.6019     0.60616E+02 
  52038.8641     0.60280E+02 
  52071.1262     0.59945E+02 
  52103.3884     0.59610E+02 
  52135.6506     0.59275E+02 
  52167.9127     0.58942E+02 
  52200.1749     0.58608E+02 
  52232.4370     0.58276E+02 
  52264.6992     0.57944E+02 
  52296.9614     0.57612E+02 
  52329.2235     0.57282E+02 
  52361.4857     0.56951E+02 
  52393.7478     0.56622E+02 
  52426.0100     0.56293E+02 
  52458.2722     0.55965E+02 
  52490.5343     0.55637E+02 
  52522.7965     0.55311E+02 
  52555.0586     0.54984E+02 
  52587.3208     0.54659E+02 
  52619.5830     0.54334E+02 
  52651.8451     0.54010E+02 
  52684.1073     0.53687E+02 
  52716.3694     0.53364E+02 
  52748.6316     0.53042E+02 
  52780.8938     0.52721E+02 
  52813.1559     0.52400E+02 
  52845.4181     0.52081E+02 
  52877.6802     0.51762E+02 
  52909.9424     0.51444E+02 
  52942.2046     0.51126E+02 
  52974.4667     0.50809E+02 
  53006.7289     0.50494E+02 
  53038.9910     0.50178E+02 
  53071.2532     0.49864E+02 
  53103.5154     0.49551E+02 
  53135.7775     0.49238E+02 
  53168.0397     0.48926E+02 
  53200.3018     0.48615E+02 
  53232.5640     0.48305E+02 
  53264.8262     0.47995E+02 
  53297.0883     0.47687E+02 
  53329.3505     0.47379E+02 
  53361.6126     0.47072E+02 
  53393.8748     0.46766E+02 
  53426.1370     0.46461E+02 
  53458.3991     0.46156E+02 
  53490.6613     0.45853E+02 
  53522.9234     0.45550E+02 
  53555.1856     0.45249E+02 
  53587.4478     0.44948E+02 
  53619.7099     0.44648E+02 
  53651.9721     0.44349E+02 
  53684.2342     0.44051E+02 
  53716.4964     0.43753E+02 
  53748.7586     0.43457E+02 
  53781.0207     0.43161E+02 
  53813.2829     0.42867E+02 
  53845.5450     0.42573E+02 
  53877.8072     0.42281E+02 
  53910.0694     0.41989E+02 
  53942.3315     0.41698E+02 
  53974.5937     0.41408E+02 
  54006.8558     0.41119E+02 
  54039.1180     0.40831E+02 
  54071.3802     0.40544E+02 
  54103.6423     0.40258E+02 
  54135.9045     0.39972E+02 
  54168.1666     0.39688E+02 
  54200.4288     0.39405E+02 
  54232.6910     0.39123E+02 
  54264.9531     0.38841E+02 
  54297.2153     0.38561E+02 
  54329.4774     0.38281E+02 
  54361.7396     0.38003E+02 
  54394.0018     0.37725E+02 
  54426.2639     0.37449E+02 
  54458.5261     0.37173E+02 
  54490.7882     0.36899E+02 
  54523.0504     0.36625E+02 
  54555.3126     0.36353E+02 
  54587.5747     0.36081E+02 
  54619.8369     0.35811E+02 
  54652.0990     0.35541E+02 
  54684.3612     0.35273E+02 
  54716.6234     0.35005E+02 
  54748.8855     0.34738E+02 
  54781.1477     0.34473E+02 
  54813.4098     0.34208E+02 
  54845.6720     0.33945E+02 
  54877.9342     0.33682E+02 
  54910.1963     0.33421E+02 
  54942.4585     0.33160E+02 
  54974.7206     0.32901E+02 
  55006.9828     0.32643E+02 
  55039.2450     0.32385E+02 
  55071.5071     0.32129E+02 
  55103.7693     0.31874E+02 
  55136.0314     0.31619E+02 
  55168.2936     0.31366E+02 
  55200.5558     0.31114E+02 
  55232.8179     0.30862E+02 
  55265.0801     0.30612E+02 
  55297.3422     0.30363E+02 
  55329.6044     0.30115E+02 
  55361.8666     0.29868E+02 
  55394.1287     0.29622E+02 
  55426.3909     0.29377E+02 
  55458.6530     0.29133E+02 
  55490.9152     0.28890E+02 
  55523.1774     0.28648E+02 
  55555.4395     0.28407E+02 
  55587.7017     0.28167E+02 
  55619.9638     0.27929E+02 
  55652.2260     0.27691E+02 
  55684.4882     0.27454E+02 
  55716.7503     0.27219E+02 
  55749.0125     0.26984E+02 
  55781.2746     0.26751E+02 
  55813.5368     0.26518E+02 
  55845.7990     0.26287E+02 
  55878.0611     0.26056E+02 
  55910.3233     0.25827E+02 
  55942.5854     0.25599E+02 
  55974.8476     0.25372E+02 
  56007.1098     0.25145E+02 
  56039.3719     0.24920E+02 
  56071.6341     0.24696E+02 
  56103.8962     0.24473E+02 
  56136.1584     0.24251E+02 
  56168.4206     0.24030E+02 
  56200.6827     0.23811E+02 
  56232.9449     0.23592E+02 
  56265.2070     0.23374E+02 
  56297.4692     0.23157E+02 
  56329.7314     0.22942E+02 
  56361.9935     0.22727E+02 
  56394.2557     0.22513E+02 
  56426.5178     0.22301E+02 
  56458.7800     0.22089E+02 
  56491.0422     0.21879E+02 
  56523.3043     0.21670E+02 
  56555.5665     0.21461E+02 
  56587.8286     0.21254E+02 
  56620.0908     0.21048E+02 
  56652.3530     0.20843E+02 
  56684.6151     0.20639E+02 
  56716.8773     0.20435E+02 
  56749.1394     0.20233E+02 
  56781.4016     0.20032E+02 
  56813.6638     0.19832E+02 
  56845.9259     0.19634E+02 
  56878.1881     0.19436E+02 
  56910.4502     0.19239E+02 
  56942.7124     0.19043E+02 
  56974.9746     0.18848E+02 
  57007.2367     0.18655E+02 
  57039.4989     0.18462E+02 
  57071.7610     0.18271E+02 
  57104.0232     0.18080E+02 
  57136.2854     0.17890E+02 
  57168.5475     0.17702E+02 
  57200.8097     0.17515E+02 
  57233.0718     0.17328E+02 
  57265.3340     0.17143E+02 
  57297.5962     0.16958E+02 
  57329.8583     0.16775E+02 
  57362.1205     0.16593E+02 
  57394.3826     0.16412E+02 
  57426.6448     0.16231E+02 
  57458.9070     0.16052E+02 
  57491.1691     0.15874E+02 
  57523.4313     0.15697E+02 
  57555.6934     0.15521E+02 
  57587.9556     0.15346E+02 
  57620.2178     0.15172E+02 
  57652.4799     0.14999E+02 
  57684.7421     0.14827E+02 
  57717.0042     0.14656E+02 
  57749.2664     0.14486E+02 
  57781.5286     0.14317E+02 
  57813.7907     0.14150E+02 
  57846.0529     0.13983E+02 
  57878.3150     0.13817E+02 
  57910.5772     0.13652E+02 
  57942.8394     0.13488E+02 
  57975.1015     0.13326E+02 
  58007.3637     0.13164E+02 
  58039.6258     0.13003E+02 
  58071.8880     0.12844E+02 
  58104.1502     0.12685E+02 
  58136.4123     0.12528E+02 
  58168.6745     0.12371E+02 
  58200.9366     0.12215E+02 
  58233.1988     0.12061E+02 
  58265.4610     0.11907E+02 
  58297.7231     0.11755E+02 
  58329.9853     0.11603E+02 
  58362.2474     0.11453E+02 
  58394.5096     0.11303E+02 
  58426.7718     0.11155E+02 
  58459.0339     0.11007E+02 
  58491.2961     0.10861E+02 
  58523.5582     0.10716E+02 
  58555.8204     0.10571E+02 
  58588.0826     0.10428E+02 
  58620.3447     0.10286E+02 
  58652.6069     0.10144E+02 
  58684.8690     0.10004E+02 
  58717.1312     0.98647E+01 
  58749.3934     0.97264E+01 
  58781.6555     0.95892E+01 
  58813.9177     0.94530E+01 
  58846.1798     0.93178E+01 
  58878.4420     0.91836E+01 
  58910.7042     0.90504E+01 
  58942.9663     0.89182E+01 
  58975.2285     0.87871E+01 
  59007.4906     0.86570E+01 
  59039.7528     0.85279E+01 
  59072.0150     0.83998E+01 
  59104.2771     0.82728E+01 
  59136.5393     0.81468E+01 
  59168.8014     0.80218E+01 
  59201.0636     0.78978E+01 
  59233.3258     0.77749E+01 
  59265.5879     0.76530E+01 
  59297.8501     0.75321E+01 
  59330.1122     0.74123E+01 
  59362.3744     0.72935E+01 
  59394.6366     0.71757E+01 
  59426.8987     0.70590E+01 
  59459.1609     0.69433E+01 
  59491.4230     0.68286E+01 
  59523.6852     0.67150E+01 
  59555.9474     0.66024E+01 
  59588.2095     0.64909E+01 
  59620.4717     0.63804E+01 
  59652.7338     0.62709E+01 
  59684.9960     0.61625E+01 
  59717.2582     0.60552E+01 
  59749.5203     0.59489E+01 
  59781.7825     0.58437E+01 
  59814.0446     0.57396E+01 
  59846.3068     0.56365E+01 
  59878.5690     0.55345E+01 
  59910.8311     0.54335E+01 
  59943.0933     0.53336E+01 
  59975.3554     0.52348E+01 
  60007.6176     0.51371E+01 
  60039.8798     0.50405E+01 
  60072.1419     0.49449E+01 
  60104.4041     0.48504E+01 
  60136.6662     0.47571E+01 
  60168.9284     0.46648E+01 
  60201.1906     0.45736E+01 
  60233.4527     0.44836E+01 
  60265.7149     0.43946E+01 
  60297.9770     0.43068E+01 
  60330.2392     0.42201E+01 
  60362.5014     0.41345E+01 
  60394.7635     0.40500E+01 
  60427.0257     0.39667E+01 
  60459.2878     0.38845E+01 
  60491.5500     0.38034E+01 
  60523.8122     0.37236E+01 
  60556.0743     0.36448E+01 
  60588.3365     0.35672E+01 
  60620.5986     0.34908E+01 
  60652.8608     0.34156E+01 
  60685.1230     0.33416E+01 
  60717.3851     0.32687E+01 
  60749.6473     0.31970E+01 
  60781.9094     0.31265E+01 
  60814.1716     0.30573E+01 
  60846.4338     0.29892E+01 
  60878.6959     0.29224E+01 
  60910.9581     0.28568E+01 
  60943.2202     0.27924E+01 
  60975.4824     0.27293E+01 
  61007.7446     0.26674E+01 
  61040.0067     0.26068E+01 
  61072.2689     0.25475E+01 
  61104.5310     0.24894E+01 
  61136.7932     0.24326E+01 
  61169.0554     0.23772E+01 
  61201.3175     0.23230E+01 
  61233.5797     0.22701E+01 
  61265.8418     0.22186E+01 
  61298.1040     0.21684E+01 
  61330.3662     0.21195E+01 
  61362.6283     0.20720E+01 
  61394.8905     0.20259E+01 
  61427.1526     0.19811E+01 
  61459.4148     0.19377E+01 
  61491.6770     0.18958E+01 
  61523.9391     0.18552E+01 
  61556.2013     0.18160E+01 
  61588.4634     0.17783E+01 
  61620.7256     0.17421E+01 
  61652.9878     0.17073E+01 
  61685.2499     0.16739E+01 
  61717.5121     0.16421E+01 
  61749.7742     0.16117E+01 
  61782.0364     0.15829E+01 
  61814.2986     0.15555E+01 
  61846.5607     0.15298E+01 
  61878.8229     0.15055E+01 
  61911.0850     0.14829E+01 
  61943.3472     0.14618E+01 
  61975.6094     0.14423E+01 
  62007.8715     0.14245E+01 
  62040.1337     0.14083E+01 
  62072.3958     0.13937E+01 
  62104.6580     0.13807E+01 
  62136.9202     0.13695E+01 
  62169.1823     0.13600E+01 
  62201.4445     0.13521E+01 
  62233.7066     0.13460E+01 
  62265.9688     0.13417E+01 
  62298.2310     0.13391E+01 
  62330.4931     0.13383E+01 
  62362.7553     0.13393E+01 
  62395.0174     0.13422E+01 
  62427.2796     0.13468E+01 
  62459.5418     0.13534E+01 
  62491.8039     0.13618E+01 
  62524.0661     0.13722E+01 
  62556.3282     0.13844E+01 
  62588.5904     0.13987E+01 
  62620.8526     0.14148E+01 
  62653.1147     0.14330E+01 
  62685.3769     0.14532E+01 
  62717.6390     0.14755E+01 
  62749.9012     0.14998E+01 
  62782.1634     0.15262E+01 
  62814.4255     0.15546E+01 
  62846.6877     0.15853E+01 
  62878.9498     0.16181E+01 
  62911.2120     0.16530E+01 
  62943.4742     0.16902E+01 
  62975.7363     0.17297E+01 
  63007.9985     0.17713E+01 
  63040.2606     0.18153E+01 
  63072.5228     0.18616E+01 
  63104.7850     0.19103E+01 
  63137.0471     0.19613E+01 
  63169.3093     0.20147E+01 
  63201.5714     0.20705E+01 
  63233.8336     0.21288E+01 
  63266.0958     0.21897E+01 
  63298.3579     0.22530E+01 
  63330.6201     0.23189E+01 
  63362.8822     0.23873E+01 
  63395.1444     0.24584E+01 
  63427.4066     0.25321E+01 
  63459.6687     0.26086E+01 
  63491.9309     0.26877E+01 
  63524.1930     0.27696E+01 
  63556.4552     0.28542E+01 
  63588.7174     0.29417E+01 
  63620.9795     0.30320E+01 
  63653.2417     0.31252E+01 
  63685.5038     0.32214E+01 
  63717.7660     0.33205E+01 
  63750.0282     0.34226E+01 
  63782.2903     0.35278E+01 
  63814.5525     0.36360E+01 
  63846.8146     0.37473E+01 
  63879.0768     0.38618E+01 
  63911.3390     0.39795E+01 
  63943.6011     0.41004E+01 
  63975.8633     0.42246E+01 
  64008.1254     0.43521E+01 
  64040.3876     0.44830E+01 
  64072.6498     0.46173E+01 
  64104.9119     0.47550E+01 
  64137.1741     0.48962E+01 
  64169.4362     0.50410E+01 
  64201.6984     0.51893E+01 
  64233.9606     0.53412E+01 
  64266.2227     0.54968E+01 
  64298.4849     0.56562E+01 
  64330.7470     0.58193E+01 
  64363.0092     0.59862E+01 
  64395.2714     0.61570E+01 
  64427.5335     0.63316E+01 
  64459.7957     0.65103E+01 
  64492.0578     0.66929E+01 
  64524.3200     0.68796E+01 
  64556.5822     0.70705E+01 
  64588.8443     0.72654E+01 
  64621.1065     0.74646E+01 
  64653.3686     0.76681E+01 
  64685.6308     0.78759E+01 
  64717.8930     0.80881E+01 
  64750.1551     0.83047E+01 
  64782.4173     0.85258E+01 
  64814.6794     0.87514E+01 
  64846.9416     0.89816E+01 
  64879.2038     0.92165E+01 
  64911.4659     0.94562E+01 
  64943.7281     0.97006E+01 
  64975.9902     0.99498E+01 
  65008.2524     0.10204E+02 
  65040.5146     0.10463E+02 
  65072.7767     0.10727E+02 
  65105.0389     0.10996E+02 
  65137.3010     0.11271E+02 
  65169.5632     0.11550E+02 
  65201.8254     0.11835E+02 
  65234.0875     0.12125E+02 
  65266.3497     0.12421E+02 
  65298.6118     0.12722E+02 
  65330.8740     0.13028E+02 
  65363.1362     0.13341E+02 
  65395.3983     0.13658E+02 
  65427.6605     0.13982E+02 
  65459.9226     0.14311E+02 
  65492.1848     0.14647E+02 
  65524.4470     0.14988E+02 
  65556.7091     0.15335E+02 
  65588.9713     0.15689E+02 
  65621.2334     0.16048E+02 
  65653.4956     0.16414E+02 
  65685.7578     0.16786E+02 
  65718.0199     0.17165E+02 
  65750.2821     0.17549E+02 
  65782.5442     0.17941E+02 
  65814.8064     0.18339E+02 
  65847.0686     0.18744E+02 
  65879.3307     0.19156E+02 
  65911.5929     0.19574E+02 
  65943.8550     0.20000E+02 
  65976.1172     0.20432E+02 
  66008.3794     0.20872E+02 
  66040.6415     0.21318E+02 
  66072.9037     0.21772E+02 
  66105.1658     0.22234E+02 
  66137.4280     0.22702E+02 
  66169.6902     0.23179E+02 
  66201.9523     0.23663E+02 
  66234.2145     0.24154E+02 
  66266.4766     0.24654E+02 
  66298.7388     0.25161E+02 
  66331.0010     0.25676E+02 
  66363.2631     0.26200E+02 
  66395.5253     0.26731E+02 
  66427.7874     0.27271E+02 
  66460.0496     0.27819E+02 
  66492.3118     0.28375E+02 
  66524.5739     0.28940E+02 
  66556.8361     0.29513E+02 
  66589.0982     0.30096E+02 
  66621.3604     0.30686E+02 
  66653.6226     0.31286E+02 
  66685.8847     0.31895E+02 
  66718.1469     0.32513E+02 
  66750.4090     0.33140E+02 
  66782.6712     0.33776E+02 
  66814.9334     0.34422E+02 
  66847.1955     0.35077E+02 
  66879.4577     0.35742E+02 
  66911.7198     0.36416E+02 
  66943.9820     0.37100E+02 
  66976.2442     0.37794E+02 
  67008.5063     0.38498E+02 
  67040.7685     0.39212E+02 
  67073.0306     0.39937E+02 
  67105.2928     0.40671E+02 
  67137.5550     0.41416E+02 
  67169.8171     0.42172E+02 
  67202.0793     0.42938E+02 
  67234.3414     0.43714E+02 
  67266.6036     0.44502E+02 
  67298.8658     0.45300E+02 
  67331.1279     0.46110E+02 
  67363.3901     0.46930E+02 
  67395.6522     0.47762E+02 
  67427.9144     0.48605E+02 
  67460.1766     0.49460E+02 
  67492.4387     0.50326E+02 
  67524.7009     0.51204E+02 
  67556.9630     0.52094E+02 
  67589.2252     0.52995E+02 
  67621.4874     0.53909E+02 
  67653.7495     0.54835E+02 
  67686.0117     0.55773E+02 
  67718.2738     0.56723E+02 
  67750.5360     0.57686E+02 
  67782.7982     0.58662E+02 
  67815.0603     0.59650E+02 
  67847.3225     0.60651E+02 
  67879.5846     0.61665E+02 
  67911.8468     0.62692E+02 
  67944.1090     0.63733E+02 
  67976.3711     0.64786E+02 
  68008.6333     0.65853E+02 
  68040.8954     0.66934E+02 
  68073.1576     0.68028E+02 
  68105.4198     0.69136E+02 
  68137.6819     0.70258E+02 
  68169.9441     0.71394E+02 
  68202.2062     0.72544E+02 
  68234.4684     0.73708E+02 
  68266.7306     0.74887E+02 
  68298.9927     0.76080E+02 
  68331.2549     0.77288E+02 
  68363.5170     0.78510E+02 
  68395.7792     0.79748E+02 
  68428.0414     0.81000E+02 
  68460.3035     0.82268E+02 
  68492.5657     0.83550E+02 
  68524.8278     0.84848E+02 
  68557.0900     0.86162E+02 
  68589.3522     0.87491E+02 
  68621.6143     0.88836E+02 
  68653.8765     0.90197E+02 
  68686.1386     0.91574E+02 
  68718.4008     0.92967E+02 
  68750.6630     0.94376E+02 
  68782.9251     0.95801E+02 
  68815.1873     0.97243E+02 
  68847.4494     0.98702E+02 
  68879.7116     0.10018E+03 
  68911.9738     0.10167E+03 
  68944.2359     0.10318E+03 
  68976.4981     0.10470E+03 
  69008.7602     0.10625E+03 
  69041.0224     0.10781E+03 
  69073.2846     0.10939E+03 
  69105.5467     0.11098E+03 
  69137.8089     0.11260E+03 
  69170.0710     0.11423E+03 
  69202.3332     0.11588E+03 
  69234.5954     0.11754E+03 
  69266.8575     0.11923E+03 
  69299.1197     0.12093E+03 
  69331.3818     0.12266E+03 
  69363.6440     0.12440E+03 
  69395.9062     0.12616E+03 
  69428.1683     0.12793E+03 
  69460.4305     0.12973E+03 
  69492.6926     0.13155E+03 
  69524.9548     0.13338E+03 
  69557.2170     0.13524E+03 
  69589.4791     0.13711E+03 
  69621.7413     0.13901E+03 
  69654.0034     0.14092E+03 
  69686.2656     0.14285E+03 
  69718.5278     0.14481E+03 
  69750.7899     0.14678E+03 
  69783.0521     0.14877E+03 
  69815.3142     0.15079E+03 
  69847.5764     0.15282E+03 
  69879.8386     0.15488E+03 
  69912.1007     0.15695E+03 
  69944.3629     0.15905E+03 
  69976.6250     0.16116E+03 
  70008.8872     0.16330E+03 
  70041.1494     0.16546E+03 
  70073.4115     0.16764E+03 
  70105.6737     0.16984E+03 
  70137.9358     0.17207E+03 
  70170.1980     0.17431E+03 
  70202.4602     0.17658E+03 
  70234.7223     0.17886E+03 
  70266.9845     0.18117E+03 
  70299.2466     0.18350E+03 
  70331.5088     0.18586E+03 
  70363.7710     0.18823E+03 
  70396.0331     0.19063E+03 
  70428.2953     0.19305E+03 
  70460.5574     0.19549E+03 
  70492.8196     0.19796E+03 
  70525.0818     0.20045E+03 
  70557.3439     0.20296E+03 
  70589.6061     0.20549E+03 
  70621.8682     0.20805E+03 
  70654.1304     0.21063E+03 
  70686.3926     0.21323E+03 
  70718.6547     0.21585E+03 
  70750.9169     0.21850E+03 
  70783.1790     0.22118E+03 
  70815.4412     0.22387E+03 
  70847.7034     0.22659E+03 
  70879.9655     0.22934E+03 
  70912.2277     0.23210E+03 
  70944.4898     0.23489E+03 
  70976.7520     0.23771E+03 
  71009.0142     0.24055E+03 
  71041.2763     0.24341E+03 
  71073.5385     0.24630E+03 
  71105.8006     0.24921E+03 
  71138.0628     0.25215E+03 
  71170.3250     0.25511E+03 
  71202.5871     0.25809E+03 
  71234.8493     0.26110E+03 
  71267.1114     0.26414E+03 
  71299.3736     0.26720E+03 
  71331.6358     0.27028E+03 
  71363.8979     0.27339E+03 
  71396.1601     0.27652E+03 
  71428.4222     0.27968E+03 
  71460.6844     0.28287E+03 
  71492.9466     0.28608E+03 
  71525.2087     0.28931E+03 
  71557.4709     0.29257E+03 
  71589.7330     0.29585E+03 
  71621.9952     0.29916E+03 
  71654.2574     0.30250E+03 
  71686.5195     0.30586E+03 
  71718.7817     0.30925E+03 
  71751.0438     0.31266E+03 
  71783.3060     0.31610E+03 
  71815.5682     0.31956E+03 
  71847.8303     0.32305E+03 
  71880.0925     0.32656E+03 
  71912.3546     0.33010E+03 
  71944.6168     0.33367E+03 
  71976.8790     0.33726E+03 
  72009.1411     0.34088E+03 
  72041.4033     0.34452E+03 
  72073.6654     0.34819E+03 
  72105.9276     0.35189E+03 
  72138.1898     0.35561E+03 
  72170.4519     0.35935E+03 
  72202.7141     0.36313E+03 
  72234.9762     0.36693E+03 
  72267.2384     0.37075E+03 
  72299.5006     0.37460E+03 
  72331.7627     0.37848E+03 
  72364.0249     0.38238E+03 
  72396.2870     0.38631E+03 
  72428.5492     0.39027E+03 
  72460.8114     0.39425E+03 
  72493.0735     0.39825E+03 
  72525.3357     0.40229E+03 
  72557.5978     0.40635E+03 
  72589.8600     0.41043E+03 
