  32262.1600     0.63209E+00 
  32294.4222     0.63961E+00 
  32326.6843     0.64719E+00 
  32358.9465     0.65482E+00 
  32391.2086     0.66252E+00 
  32423.4708     0.67028E+00 
  32455.7330     0.67810E+00 
  32487.9951     0.68599E+00 
  32520.2573     0.69393E+00 
  32552.5194     0.70193E+00 
  32584.7816     0.70999E+00 
  32617.0438     0.71812E+00 
  32649.3059     0.72630E+00 
  32681.5681     0.73455E+00 
  32713.8302     0.74286E+00 
  32746.0924     0.75123E+00 
  32778.3546     0.75966E+00 
  32810.6167     0.76815E+00 
  32842.8789     0.77670E+00 
  32875.1410     0.78531E+00 
  32907.4032     0.79398E+00 
  32939.6654     0.80271E+00 
  32971.9275     0.81150E+00 
  33004.1897     0.82036E+00 
  33036.4518     0.82927E+00 
  33068.7140     0.83825E+00 
  33100.9762     0.84728E+00 
  33133.2383     0.85638E+00 
  33165.5005     0.86553E+00 
  33197.7626     0.87475E+00 
  33230.0248     0.88402E+00 
  33262.2870     0.89335E+00 
  33294.5491     0.90275E+00 
  33326.8113     0.91220E+00 
  33359.0734     0.92171E+00 
  33391.3356     0.93128E+00 
  33423.5978     0.94091E+00 
  33455.8599     0.95060E+00 
  33488.1221     0.96035E+00 
  33520.3842     0.97016E+00 
  33552.6464     0.98002E+00 
  33584.9086     0.98994E+00 
  33617.1707     0.99992E+00 
  33649.4329     0.10100E+01 
  33681.6950     0.10201E+01 
  33713.9572     0.10302E+01 
  33746.2194     0.10404E+01 
  33778.4815     0.10507E+01 
  33810.7437     0.10610E+01 
  33843.0058     0.10714E+01 
  33875.2680     0.10818E+01 
  33907.5302     0.10923E+01 
  33939.7923     0.11028E+01 
  33972.0545     0.11134E+01 
  34004.3166     0.11241E+01 
  34036.5788     0.11348E+01 
  34068.8410     0.11455E+01 
  34101.1031     0.11564E+01 
  34133.3653     0.11672E+01 
  34165.6274     0.11781E+01 
  34197.8896     0.11891E+01 
  34230.1518     0.12001E+01 
  34262.4139     0.12112E+01 
  34294.6761     0.12223E+01 
  34326.9382     0.12335E+01 
  34359.2004     0.12448E+01 
  34391.4626     0.12560E+01 
  34423.7247     0.12674E+01 
  34455.9869     0.12787E+01 
  34488.2490     0.12902E+01 
  34520.5112     0.13016E+01 
  34552.7734     0.13132E+01 
  34585.0355     0.13247E+01 
  34617.2977     0.13363E+01 
  34649.5598     0.13480E+01 
  34681.8220     0.13597E+01 
  34714.0842     0.13715E+01 
  34746.3463     0.13833E+01 
  34778.6085     0.13951E+01 
  34810.8706     0.14070E+01 
  34843.1328     0.14189E+01 
  34875.3950     0.14309E+01 
  34907.6571     0.14429E+01 
  34939.9193     0.14550E+01 
  34972.1814     0.14671E+01 
  35004.4436     0.14792E+01 
  35036.7058     0.14914E+01 
  35068.9679     0.15036E+01 
  35101.2301     0.15159E+01 
  35133.4922     0.15282E+01 
  35165.7544     0.15405E+01 
  35198.0166     0.15529E+01 
  35230.2787     0.15653E+01 
  35262.5409     0.15777E+01 
  35294.8030     0.15902E+01 
  35327.0652     0.16027E+01 
  35359.3274     0.16153E+01 
  35391.5895     0.16279E+01 
  35423.8517     0.16405E+01 
  35456.1138     0.16531E+01 
  35488.3760     0.16658E+01 
  35520.6382     0.16785E+01 
  35552.9003     0.16913E+01 
  35585.1625     0.17040E+01 
  35617.4246     0.17168E+01 
  35649.6868     0.17297E+01 
  35681.9490     0.17425E+01 
  35714.2111     0.17554E+01 
  35746.4733     0.17683E+01 
  35778.7354     0.17812E+01 
  35810.9976     0.17942E+01 
  35843.2598     0.18072E+01 
  35875.5219     0.18202E+01 
  35907.7841     0.18332E+01 
  35940.0462     0.18462E+01 
  35972.3084     0.18593E+01 
  36004.5706     0.18724E+01 
  36036.8327     0.18855E+01 
  36069.0949     0.18986E+01 
  36101.3570     0.19117E+01 
  36133.6192     0.19249E+01 
  36165.8814     0.19381E+01 
  36198.1435     0.19513E+01 
  36230.4057     0.19645E+01 
  36262.6678     0.19777E+01 
  36294.9300     0.19909E+01 
  36327.1922     0.20041E+01 
  36359.4543     0.20174E+01 
  36391.7165     0.20306E+01 
  36423.9786     0.20439E+01 
  36456.2408     0.20572E+01 
  36488.5030     0.20705E+01 
  36520.7651     0.20838E+01 
  36553.0273     0.20971E+01 
  36585.2894     0.21104E+01 
  36617.5516     0.21237E+01 
  36649.8138     0.21370E+01 
  36682.0759     0.21503E+01 
  36714.3381     0.21636E+01 
  36746.6002     0.21769E+01 
  36778.8624     0.21903E+01 
  36811.1246     0.22036E+01 
  36843.3867     0.22169E+01 
  36875.6489     0.22302E+01 
  36907.9110     0.22435E+01 
  36940.1732     0.22568E+01 
  36972.4354     0.22701E+01 
  37004.6975     0.22834E+01 
  37036.9597     0.22967E+01 
  37069.2218     0.23099E+01 
  37101.4840     0.23232E+01 
  37133.7462     0.23365E+01 
  37166.0083     0.23497E+01 
  37198.2705     0.23629E+01 
  37230.5326     0.23762E+01 
  37262.7948     0.23894E+01 
  37295.0570     0.24026E+01 
  37327.3191     0.24157E+01 
  37359.5813     0.24289E+01 
  37391.8434     0.24420E+01 
  37424.1056     0.24552E+01 
  37456.3678     0.24683E+01 
  37488.6299     0.24814E+01 
  37520.8921     0.24944E+01 
  37553.1542     0.25075E+01 
  37585.4164     0.25205E+01 
  37617.6786     0.25335E+01 
  37649.9407     0.25465E+01 
  37682.2029     0.25594E+01 
  37714.4650     0.25723E+01 
  37746.7272     0.25852E+01 
  37778.9894     0.25981E+01 
  37811.2515     0.26109E+01 
  37843.5137     0.26237E+01 
  37875.7758     0.26365E+01 
  37908.0380     0.26492E+01 
  37940.3002     0.26620E+01 
  37972.5623     0.26746E+01 
  38004.8245     0.26873E+01 
  38037.0866     0.26999E+01 
  38069.3488     0.27124E+01 
  38101.6110     0.27250E+01 
  38133.8731     0.27375E+01 
  38166.1353     0.27499E+01 
  38198.3974     0.27623E+01 
  38230.6596     0.27747E+01 
  38262.9218     0.27870E+01 
  38295.1839     0.27993E+01 
  38327.4461     0.28116E+01 
  38359.7082     0.28238E+01 
  38391.9704     0.28359E+01 
  38424.2326     0.28480E+01 
  38456.4947     0.28601E+01 
  38488.7569     0.28721E+01 
  38521.0190     0.28841E+01 
  38553.2812     0.28960E+01 
  38585.5434     0.29078E+01 
  38617.8055     0.29196E+01 
  38650.0677     0.29314E+01 
  38682.3298     0.29431E+01 
  38714.5920     0.29547E+01 
  38746.8542     0.29663E+01 
  38779.1163     0.29779E+01 
  38811.3785     0.29894E+01 
  38843.6406     0.30008E+01 
  38875.9028     0.30122E+01 
  38908.1650     0.30235E+01 
  38940.4271     0.30347E+01 
  38972.6893     0.30459E+01 
  39004.9514     0.30570E+01 
  39037.2136     0.30681E+01 
  39069.4758     0.30791E+01 
  39101.7379     0.30900E+01 
  39134.0001     0.31009E+01 
  39166.2622     0.31117E+01 
  39198.5244     0.31224E+01 
  39230.7866     0.31331E+01 
  39263.0487     0.31437E+01 
  39295.3109     0.31542E+01 
  39327.5730     0.31647E+01 
  39359.8352     0.31750E+01 
  39392.0974     0.31854E+01 
  39424.3595     0.31956E+01 
  39456.6217     0.32058E+01 
  39488.8838     0.32159E+01 
  39521.1460     0.32259E+01 
  39553.4082     0.32359E+01 
  39585.6703     0.32457E+01 
  39617.9325     0.32555E+01 
  39650.1946     0.32653E+01 
  39682.4568     0.32749E+01 
  39714.7190     0.32845E+01 
  39746.9811     0.32940E+01 
  39779.2433     0.33034E+01 
  39811.5054     0.33127E+01 
  39843.7676     0.33219E+01 
  39876.0298     0.33311E+01 
  39908.2919     0.33402E+01 
  39940.5541     0.33492E+01 
  39972.8162     0.33581E+01 
  40005.0784     0.33669E+01 
  40037.3406     0.33757E+01 
  40069.6027     0.33843E+01 
  40101.8649     0.33929E+01 
  40134.1270     0.34014E+01 
  40166.3892     0.34098E+01 
  40198.6514     0.34181E+01 
  40230.9135     0.34263E+01 
  40263.1757     0.34345E+01 
  40295.4378     0.34425E+01 
  40327.7000     0.34505E+01 
  40359.9622     0.34583E+01 
  40392.2243     0.34661E+01 
  40424.4865     0.34738E+01 
  40456.7486     0.34814E+01 
  40489.0108     0.34889E+01 
  40521.2730     0.34963E+01 
  40553.5351     0.35036E+01 
  40585.7973     0.35108E+01 
  40618.0594     0.35179E+01 
  40650.3216     0.35250E+01 
  40682.5838     0.35319E+01 
  40714.8459     0.35387E+01 
  40747.1081     0.35455E+01 
  40779.3702     0.35521E+01 
  40811.6324     0.35587E+01 
  40843.8946     0.35651E+01 
  40876.1567     0.35715E+01 
  40908.4189     0.35777E+01 
  40940.6810     0.35839E+01 
  40972.9432     0.35899E+01 
  41005.2054     0.35959E+01 
  41037.4675     0.36017E+01 
  41069.7297     0.36075E+01 
  41101.9918     0.36131E+01 
  41134.2540     0.36187E+01 
  41166.5162     0.36241E+01 
  41198.7783     0.36295E+01 
  41231.0405     0.36347E+01 
  41263.3026     0.36399E+01 
  41295.5648     0.36449E+01 
  41327.8270     0.36499E+01 
  41360.0891     0.36547E+01 
  41392.3513     0.36594E+01 
  41424.6134     0.36641E+01 
  41456.8756     0.36686E+01 
  41489.1378     0.36730E+01 
  41521.3999     0.36774E+01 
  41553.6621     0.36816E+01 
  41585.9242     0.36857E+01 
  41618.1864     0.36897E+01 
  41650.4486     0.36936E+01 
  41682.7107     0.36974E+01 
  41714.9729     0.37011E+01 
  41747.2350     0.37047E+01 
  41779.4972     0.37081E+01 
  41811.7594     0.37115E+01 
  41844.0215     0.37148E+01 
  41876.2837     0.37180E+01 
  41908.5458     0.37210E+01 
  41940.8080     0.37240E+01 
  41973.0702     0.37268E+01 
  42005.3323     0.37296E+01 
  42037.5945     0.37322E+01 
  42069.8566     0.37347E+01 
  42102.1188     0.37372E+01 
  42134.3810     0.37395E+01 
  42166.6431     0.37417E+01 
  42198.9053     0.37438E+01 
  42231.1674     0.37458E+01 
  42263.4296     0.37477E+01 
  42295.6918     0.37495E+01 
  42327.9539     0.37511E+01 
  42360.2161     0.37527E+01 
  42392.4782     0.37542E+01 
  42424.7404     0.37555E+01 
  42457.0026     0.37568E+01 
  42489.2647     0.37579E+01 
  42521.5269     0.37590E+01 
  42553.7890     0.37599E+01 
  42586.0512     0.37607E+01 
  42618.3134     0.37615E+01 
  42650.5755     0.37621E+01 
  42682.8377     0.37626E+01 
  42715.0998     0.37630E+01 
  42747.3620     0.37633E+01 
  42779.6242     0.37635E+01 
  42811.8863     0.37636E+01 
  42844.1485     0.37636E+01 
  42876.4106     0.37635E+01 
  42908.6728     0.37633E+01 
  42940.9350     0.37629E+01 
  42973.1971     0.37625E+01 
  43005.4593     0.37620E+01 
  43037.7214     0.37613E+01 
  43069.9836     0.37606E+01 
  43102.2458     0.37597E+01 
  43134.5079     0.37588E+01 
  43166.7701     0.37577E+01 
  43199.0322     0.37566E+01 
  43231.2944     0.37553E+01 
  43263.5566     0.37540E+01 
  43295.8187     0.37525E+01 
  43328.0809     0.37510E+01 
  43360.3430     0.37493E+01 
  43392.6052     0.37475E+01 
  43424.8674     0.37457E+01 
  43457.1295     0.37437E+01 
  43489.3917     0.37417E+01 
  43521.6538     0.37395E+01 
  43553.9160     0.37372E+01 
  43586.1782     0.37349E+01 
  43618.4403     0.37324E+01 
  43650.7025     0.37299E+01 
  43682.9646     0.37272E+01 
  43715.2268     0.37245E+01 
  43747.4890     0.37216E+01 
  43779.7511     0.37187E+01 
  43812.0133     0.37156E+01 
  43844.2754     0.37125E+01 
  43876.5376     0.37093E+01 
  43908.7998     0.37059E+01 
  43941.0619     0.37025E+01 
  43973.3241     0.36990E+01 
  44005.5862     0.36954E+01 
  44037.8484     0.36917E+01 
  44070.1106     0.36879E+01 
  44102.3727     0.36840E+01 
  44134.6349     0.36800E+01 
  44166.8970     0.36759E+01 
  44199.1592     0.36718E+01 
  44231.4214     0.36675E+01 
  44263.6835     0.36632E+01 
  44295.9457     0.36587E+01 
  44328.2078     0.36542E+01 
  44360.4700     0.36496E+01 
  44392.7322     0.36449E+01 
  44424.9943     0.36401E+01 
  44457.2565     0.36352E+01 
  44489.5186     0.36303E+01 
  44521.7808     0.36252E+01 
  44554.0430     0.36201E+01 
  44586.3051     0.36149E+01 
  44618.5673     0.36096E+01 
  44650.8294     0.36042E+01 
  44683.0916     0.35987E+01 
  44715.3538     0.35931E+01 
  44747.6159     0.35875E+01 
  44779.8781     0.35818E+01 
  44812.1402     0.35760E+01 
  44844.4024     0.35701E+01 
  44876.6646     0.35641E+01 
  44908.9267     0.35581E+01 
  44941.1889     0.35520E+01 
  44973.4510     0.35458E+01 
  45005.7132     0.35395E+01 
  45037.9754     0.35331E+01 
  45070.2375     0.35267E+01 
  45102.4997     0.35202E+01 
  45134.7618     0.35136E+01 
  45167.0240     0.35069E+01 
  45199.2862     0.35002E+01 
  45231.5483     0.34934E+01 
  45263.8105     0.34865E+01 
  45296.0726     0.34795E+01 
  45328.3348     0.34725E+01 
  45360.5970     0.34654E+01 
  45392.8591     0.34583E+01 
  45425.1213     0.34510E+01 
  45457.3834     0.34437E+01 
  45489.6456     0.34363E+01 
  45521.9078     0.34289E+01 
  45554.1699     0.34214E+01 
  45586.4321     0.34138E+01 
  45618.6942     0.34061E+01 
  45650.9564     0.33984E+01 
  45683.2186     0.33906E+01 
  45715.4807     0.33828E+01 
  45747.7429     0.33749E+01 
  45780.0050     0.33669E+01 
  45812.2672     0.33589E+01 
  45844.5294     0.33508E+01 
  45876.7915     0.33426E+01 
  45909.0537     0.33344E+01 
  45941.3158     0.33262E+01 
  45973.5780     0.33178E+01 
  46005.8402     0.33094E+01 
  46038.1023     0.33010E+01 
  46070.3645     0.32925E+01 
  46102.6266     0.32839E+01 
  46134.8888     0.32753E+01 
  46167.1510     0.32666E+01 
  46199.4131     0.32579E+01 
  46231.6753     0.32491E+01 
  46263.9374     0.32403E+01 
  46296.1996     0.32314E+01 
  46328.4618     0.32224E+01 
  46360.7239     0.32134E+01 
  46392.9861     0.32044E+01 
  46425.2482     0.31953E+01 
  46457.5104     0.31861E+01 
  46489.7726     0.31770E+01 
  46522.0347     0.31677E+01 
  46554.2969     0.31584E+01 
  46586.5590     0.31491E+01 
  46618.8212     0.31397E+01 
  46651.0834     0.31303E+01 
  46683.3455     0.31208E+01 
  46715.6077     0.31113E+01 
  46747.8698     0.31018E+01 
  46780.1320     0.30922E+01 
  46812.3942     0.30825E+01 
  46844.6563     0.30728E+01 
  46876.9185     0.30631E+01 
  46909.1806     0.30533E+01 
  46941.4428     0.30435E+01 
  46973.7050     0.30337E+01 
  47005.9671     0.30238E+01 
  47038.2293     0.30139E+01 
  47070.4914     0.30040E+01 
  47102.7536     0.29940E+01 
  47135.0158     0.29839E+01 
  47167.2779     0.29739E+01 
  47199.5401     0.29638E+01 
  47231.8022     0.29537E+01 
  47264.0644     0.29435E+01 
  47296.3266     0.29333E+01 
  47328.5887     0.29231E+01 
  47360.8509     0.29128E+01 
  47393.1130     0.29026E+01 
  47425.3752     0.28922E+01 
  47457.6374     0.28819E+01 
  47489.8995     0.28715E+01 
  47522.1617     0.28611E+01 
  47554.4238     0.28507E+01 
  47586.6860     0.28403E+01 
  47618.9482     0.28298E+01 
  47651.2103     0.28193E+01 
  47683.4725     0.28088E+01 
  47715.7346     0.27982E+01 
  47747.9968     0.27877E+01 
  47780.2590     0.27771E+01 
  47812.5211     0.27665E+01 
  47844.7833     0.27558E+01 
  47877.0454     0.27452E+01 
  47909.3076     0.27345E+01 
  47941.5698     0.27238E+01 
  47973.8319     0.27131E+01 
  48006.0941     0.27023E+01 
  48038.3562     0.26916E+01 
  48070.6184     0.26808E+01 
  48102.8806     0.26700E+01 
  48135.1427     0.26592E+01 
  48167.4049     0.26484E+01 
  48199.6670     0.26376E+01 
  48231.9292     0.26268E+01 
  48264.1914     0.26159E+01 
  48296.4535     0.26050E+01 
  48328.7157     0.25942E+01 
  48360.9778     0.25833E+01 
  48393.2400     0.25724E+01 
  48425.5022     0.25615E+01 
  48457.7643     0.25505E+01 
  48490.0265     0.25396E+01 
  48522.2886     0.25287E+01 
  48554.5508     0.25177E+01 
  48586.8130     0.25068E+01 
  48619.0751     0.24958E+01 
  48651.3373     0.24848E+01 
  48683.5994     0.24739E+01 
  48715.8616     0.24629E+01 
  48748.1238     0.24519E+01 
  48780.3859     0.24409E+01 
  48812.6481     0.24299E+01 
  48844.9102     0.24189E+01 
  48877.1724     0.24079E+01 
  48909.4346     0.23969E+01 
  48941.6967     0.23859E+01 
  48973.9589     0.23749E+01 
  49006.2210     0.23639E+01 
  49038.4832     0.23529E+01 
  49070.7454     0.23419E+01 
  49103.0075     0.23309E+01 
  49135.2697     0.23199E+01 
  49167.5318     0.23089E+01 
  49199.7940     0.22979E+01 
  49232.0562     0.22869E+01 
  49264.3183     0.22759E+01 
  49296.5805     0.22649E+01 
  49328.8426     0.22540E+01 
  49361.1048     0.22430E+01 
  49393.3670     0.22320E+01 
  49425.6291     0.22210E+01 
  49457.8913     0.22101E+01 
  49490.1534     0.21991E+01 
  49522.4156     0.21882E+01 
  49554.6778     0.21773E+01 
  49586.9399     0.21663E+01 
  49619.2021     0.21554E+01 
  49651.4642     0.21445E+01 
  49683.7264     0.21336E+01 
  49715.9886     0.21227E+01 
  49748.2507     0.21118E+01 
  49780.5129     0.21009E+01 
  49812.7750     0.20901E+01 
  49845.0372     0.20792E+01 
  49877.2994     0.20684E+01 
  49909.5615     0.20576E+01 
  49941.8237     0.20468E+01 
  49974.0858     0.20360E+01 
  50006.3480     0.20252E+01 
  50038.6102     0.20144E+01 
  50070.8723     0.20037E+01 
  50103.1345     0.19929E+01 
  50135.3966     0.19822E+01 
  50167.6588     0.19715E+01 
  50199.9210     0.19608E+01 
  50232.1831     0.19501E+01 
  50264.4453     0.19394E+01 
  50296.7074     0.19288E+01 
  50328.9696     0.19182E+01 
  50361.2318     0.19076E+01 
  50393.4939     0.18970E+01 
  50425.7561     0.18864E+01 
  50458.0182     0.18759E+01 
  50490.2804     0.18653E+01 
  50522.5426     0.18548E+01 
  50554.8047     0.18443E+01 
  50587.0669     0.18338E+01 
  50619.3290     0.18234E+01 
  50651.5912     0.18129E+01 
  50683.8534     0.18025E+01 
  50716.1155     0.17921E+01 
  50748.3777     0.17818E+01 
  50780.6398     0.17714E+01 
  50812.9020     0.17611E+01 
  50845.1642     0.17508E+01 
  50877.4263     0.17405E+01 
  50909.6885     0.17303E+01 
  50941.9506     0.17200E+01 
  50974.2128     0.17098E+01 
  51006.4750     0.16996E+01 
  51038.7371     0.16895E+01 
  51070.9993     0.16793E+01 
  51103.2614     0.16692E+01 
  51135.5236     0.16591E+01 
  51167.7858     0.16491E+01 
  51200.0479     0.16391E+01 
  51232.3101     0.16290E+01 
  51264.5722     0.16191E+01 
  51296.8344     0.16091E+01 
  51329.0966     0.15992E+01 
  51361.3587     0.15893E+01 
  51393.6209     0.15794E+01 
  51425.8830     0.15696E+01 
  51458.1452     0.15597E+01 
  51490.4074     0.15499E+01 
  51522.6695     0.15402E+01 
  51554.9317     0.15304E+01 
  51587.1938     0.15207E+01 
  51619.4560     0.15111E+01 
  51651.7182     0.15014E+01 
  51683.9803     0.14918E+01 
  51716.2425     0.14822E+01 
  51748.5046     0.14726E+01 
  51780.7668     0.14631E+01 
  51813.0290     0.14536E+01 
  51845.2911     0.14441E+01 
  51877.5533     0.14347E+01 
  51909.8154     0.14253E+01 
  51942.0776     0.14159E+01 
  51974.3398     0.14065E+01 
  52006.6019     0.13972E+01 
  52038.8641     0.13879E+01 
  52071.1262     0.13787E+01 
  52103.3884     0.13694E+01 
  52135.6506     0.13602E+01 
  52167.9127     0.13511E+01 
  52200.1749     0.13420E+01 
  52232.4370     0.13329E+01 
  52264.6992     0.13238E+01 
  52296.9614     0.13148E+01 
  52329.2235     0.13058E+01 
  52361.4857     0.12968E+01 
  52393.7478     0.12878E+01 
  52426.0100     0.12789E+01 
  52458.2722     0.12701E+01 
  52490.5343     0.12612E+01 
  52522.7965     0.12524E+01 
  52555.0586     0.12436E+01 
  52587.3208     0.12349E+01 
  52619.5830     0.12262E+01 
  52651.8451     0.12175E+01 
  52684.1073     0.12089E+01 
  52716.3694     0.12003E+01 
  52748.6316     0.11917E+01 
  52780.8938     0.11832E+01 
  52813.1559     0.11747E+01 
  52845.4181     0.11662E+01 
  52877.6802     0.11578E+01 
  52909.9424     0.11494E+01 
  52942.2046     0.11410E+01 
  52974.4667     0.11327E+01 
  53006.7289     0.11244E+01 
  53038.9910     0.11161E+01 
  53071.2532     0.11079E+01 
  53103.5154     0.10997E+01 
  53135.7775     0.10915E+01 
  53168.0397     0.10834E+01 
  53200.3018     0.10753E+01 
  53232.5640     0.10672E+01 
  53264.8262     0.10592E+01 
  53297.0883     0.10512E+01 
  53329.3505     0.10433E+01 
  53361.6126     0.10354E+01 
  53393.8748     0.10275E+01 
  53426.1370     0.10196E+01 
  53458.3991     0.10118E+01 
  53490.6613     0.10041E+01 
  53522.9234     0.99632E+00 
  53555.1856     0.98861E+00 
  53587.4478     0.98094E+00 
  53619.7099     0.97331E+00 
  53651.9721     0.96571E+00 
  53684.2342     0.95814E+00 
  53716.4964     0.95061E+00 
  53748.7586     0.94312E+00 
  53781.0207     0.93566E+00 
  53813.2829     0.92824E+00 
  53845.5450     0.92085E+00 
  53877.8072     0.91350E+00 
  53910.0694     0.90618E+00 
  53942.3315     0.89890E+00 
  53974.5937     0.89165E+00 
  54006.8558     0.88444E+00 
  54039.1180     0.87726E+00 
  54071.3802     0.87012E+00 
  54103.6423     0.86302E+00 
  54135.9045     0.85594E+00 
  54168.1666     0.84891E+00 
  54200.4288     0.84191E+00 
  54232.6910     0.83494E+00 
  54264.9531     0.82801E+00 
  54297.2153     0.82112E+00 
  54329.4774     0.81426E+00 
  54361.7396     0.80743E+00 
  54394.0018     0.80065E+00 
  54426.2639     0.79389E+00 
  54458.5261     0.78717E+00 
  54490.7882     0.78049E+00 
  54523.0504     0.77384E+00 
  54555.3126     0.76722E+00 
  54587.5747     0.76064E+00 
  54619.8369     0.75410E+00 
  54652.0990     0.74759E+00 
  54684.3612     0.74111E+00 
  54716.6234     0.73467E+00 
  54748.8855     0.72826E+00 
  54781.1477     0.72189E+00 
  54813.4098     0.71555E+00 
  54845.6720     0.70925E+00 
  54877.9342     0.70298E+00 
  54910.1963     0.69675E+00 
  54942.4585     0.69055E+00 
  54974.7206     0.68438E+00 
  55006.9828     0.67825E+00 
  55039.2450     0.67215E+00 
  55071.5071     0.66609E+00 
  55103.7693     0.66006E+00 
  55136.0314     0.65407E+00 
  55168.2936     0.64810E+00 
  55200.5558     0.64218E+00 
  55232.8179     0.63628E+00 
  55265.0801     0.63042E+00 
  55297.3422     0.62460E+00 
  55329.6044     0.61880E+00 
  55361.8666     0.61304E+00 
  55394.1287     0.60732E+00 
  55426.3909     0.60162E+00 
  55458.6530     0.59596E+00 
  55490.9152     0.59034E+00 
  55523.1774     0.58474E+00 
  55555.4395     0.57918E+00 
  55587.7017     0.57365E+00 
  55619.9638     0.56816E+00 
  55652.2260     0.56270E+00 
  55684.4882     0.55727E+00 
  55716.7503     0.55187E+00 
  55749.0125     0.54651E+00 
  55781.2746     0.54117E+00 
  55813.5368     0.53588E+00 
  55845.7990     0.53061E+00 
  55878.0611     0.52537E+00 
  55910.3233     0.52017E+00 
  55942.5854     0.51500E+00 
  55974.8476     0.50986E+00 
  56007.1098     0.50475E+00 
  56039.3719     0.49968E+00 
  56071.6341     0.49463E+00 
  56103.8962     0.48962E+00 
  56136.1584     0.48464E+00 
  56168.4206     0.47969E+00 
  56200.6827     0.47477E+00 
  56232.9449     0.46988E+00 
  56265.2070     0.46503E+00 
  56297.4692     0.46020E+00 
  56329.7314     0.45541E+00 
  56361.9935     0.45064E+00 
  56394.2557     0.44591E+00 
  56426.5178     0.44121E+00 
  56458.7800     0.43653E+00 
  56491.0422     0.43189E+00 
  56523.3043     0.42728E+00 
  56555.5665     0.42270E+00 
  56587.8286     0.41815E+00 
  56620.0908     0.41363E+00 
  56652.3530     0.40914E+00 
  56684.6151     0.40468E+00 
  56716.8773     0.40024E+00 
  56749.1394     0.39584E+00 
  56781.4016     0.39147E+00 
  56813.6638     0.38713E+00 
  56845.9259     0.38281E+00 
  56878.1881     0.37853E+00 
  56910.4502     0.37427E+00 
  56942.7124     0.37005E+00 
  56974.9746     0.36585E+00 
  57007.2367     0.36168E+00 
  57039.4989     0.35754E+00 
  57071.7610     0.35343E+00 
  57104.0232     0.34935E+00 
  57136.2854     0.34529E+00 
  57168.5475     0.34126E+00 
  57200.8097     0.33727E+00 
  57233.0718     0.33330E+00 
  57265.3340     0.32935E+00 
  57297.5962     0.32544E+00 
  57329.8583     0.32155E+00 
  57362.1205     0.31769E+00 
  57394.3826     0.31386E+00 
  57426.6448     0.31006E+00 
  57458.9070     0.30628E+00 
  57491.1691     0.30253E+00 
  57523.4313     0.29881E+00 
  57555.6934     0.29512E+00 
  57587.9556     0.29145E+00 
  57620.2178     0.28781E+00 
  57652.4799     0.28419E+00 
  57684.7421     0.28061E+00 
  57717.0042     0.27705E+00 
  57749.2664     0.27351E+00 
  57781.5286     0.27000E+00 
  57813.7907     0.26652E+00 
  57846.0529     0.26307E+00 
  57878.3150     0.25964E+00 
  57910.5772     0.25623E+00 
  57942.8394     0.25285E+00 
  57975.1015     0.24950E+00 
  58007.3637     0.24618E+00 
  58039.6258     0.24288E+00 
  58071.8880     0.23960E+00 
  58104.1502     0.23635E+00 
  58136.4123     0.23313E+00 
  58168.6745     0.22993E+00 
  58200.9366     0.22676E+00 
  58233.1988     0.22361E+00 
  58265.4610     0.22048E+00 
  58297.7231     0.21739E+00 
  58329.9853     0.21431E+00 
  58362.2474     0.21126E+00 
  58394.5096     0.20824E+00 
  58426.7718     0.20524E+00 
  58459.0339     0.20226E+00 
  58491.2961     0.19931E+00 
  58523.5582     0.19638E+00 
  58555.8204     0.19348E+00 
  58588.0826     0.19060E+00 
  58620.3447     0.18775E+00 
  58652.6069     0.18492E+00 
  58684.8690     0.18211E+00 
  58717.1312     0.17933E+00 
  58749.3934     0.17657E+00 
  58781.6555     0.17384E+00 
  58813.9177     0.17112E+00 
  58846.1798     0.16844E+00 
  58878.4420     0.16577E+00 
  58910.7042     0.16313E+00 
  58942.9663     0.16051E+00 
  58975.2285     0.15792E+00 
  59007.4906     0.15534E+00 
  59039.7528     0.15280E+00 
  59072.0150     0.15027E+00 
  59104.2771     0.14777E+00 
  59136.5393     0.14529E+00 
  59168.8014     0.14283E+00 
  59201.0636     0.14040E+00 
  59233.3258     0.13799E+00 
  59265.5879     0.13560E+00 
  59297.8501     0.13323E+00 
  59330.1122     0.13089E+00 
  59362.3744     0.12857E+00 
  59394.6366     0.12627E+00 
  59426.8987     0.12399E+00 
  59459.1609     0.12174E+00 
  59491.4230     0.11950E+00 
  59523.6852     0.11729E+00 
  59555.9474     0.11511E+00 
  59588.2095     0.11294E+00 
  59620.4717     0.11080E+00 
  59652.7338     0.10868E+00 
  59684.9960     0.10658E+00 
  59717.2582     0.10450E+00 
  59749.5203     0.10245E+00 
  59781.7825     0.10041E+00 
  59814.0446     0.98401E-01 
  59846.3068     0.96412E-01 
  59878.5690     0.94444E-01 
  59910.8311     0.92498E-01 
  59943.0933     0.90574E-01 
  59975.3554     0.88671E-01 
  60007.6176     0.86790E-01 
  60039.8798     0.84931E-01 
  60072.1419     0.83094E-01 
  60104.4041     0.81278E-01 
  60136.6662     0.79484E-01 
  60168.9284     0.77712E-01 
  60201.1906     0.75961E-01 
  60233.4527     0.74232E-01 
  60265.7149     0.72524E-01 
  60297.9770     0.70839E-01 
  60330.2392     0.69174E-01 
  60362.5014     0.67532E-01 
  60394.7635     0.65911E-01 
  60427.0257     0.64312E-01 
  60459.2878     0.62734E-01 
  60491.5500     0.61178E-01 
  60523.8122     0.59644E-01 
  60556.0743     0.58131E-01 
  60588.3365     0.56640E-01 
  60620.5986     0.55171E-01 
  60652.8608     0.53724E-01 
  60685.1230     0.52298E-01 
  60717.3851     0.50895E-01 
  60749.6473     0.49513E-01 
  60781.9094     0.48153E-01 
  60814.1716     0.46815E-01 
  60846.4338     0.45500E-01 
  60878.6959     0.44206E-01 
  60910.9581     0.42934E-01 
  60943.2202     0.41685E-01 
  60975.4824     0.40457E-01 
  61007.7446     0.39252E-01 
  61040.0067     0.38070E-01 
  61072.2689     0.36910E-01 
  61104.5310     0.35772E-01 
  61136.7932     0.34657E-01 
  61169.0554     0.33564E-01 
  61201.3175     0.32495E-01 
  61233.5797     0.31448E-01 
  61265.8418     0.30424E-01 
  61298.1040     0.29423E-01 
  61330.3662     0.28445E-01 
  61362.6283     0.27490E-01 
  61394.8905     0.26559E-01 
  61427.1526     0.25651E-01 
  61459.4148     0.24767E-01 
  61491.6770     0.23906E-01 
  61523.9391     0.23069E-01 
  61556.2013     0.22256E-01 
  61588.4634     0.21467E-01 
  61620.7256     0.20703E-01 
  61652.9878     0.19962E-01 
  61685.2499     0.19247E-01 
  61717.5121     0.18555E-01 
  61749.7742     0.17889E-01 
  61782.0364     0.17248E-01 
  61814.2986     0.16631E-01 
  61846.5607     0.16040E-01 
  61878.8229     0.15475E-01 
  61911.0850     0.14935E-01 
  61943.3472     0.14421E-01 
  61975.6094     0.13934E-01 
  62007.8715     0.13472E-01 
  62040.1337     0.13037E-01 
  62072.3958     0.12628E-01 
  62104.6580     0.12247E-01 
  62136.9202     0.11893E-01 
  62169.1823     0.11566E-01 
  62201.4445     0.11266E-01 
  62233.7066     0.10995E-01 
  62265.9688     0.10751E-01 
  62298.2310     0.10536E-01 
  62330.4931     0.10349E-01 
  62362.7553     0.10192E-01 
  62395.0174     0.10063E-01 
  62427.2796     0.99645E-02 
  62459.5418     0.98953E-02 
  62491.8039     0.98561E-02 
  62524.0661     0.98473E-02 
  62556.3282     0.98692E-02 
  62588.5904     0.99220E-02 
  62620.8526     0.10006E-01 
  62653.1147     0.10122E-01 
  62685.3769     0.10270E-01 
  62717.6390     0.10450E-01 
  62749.9012     0.10663E-01 
  62782.1634     0.10909E-01 
  62814.4255     0.11189E-01 
  62846.6877     0.11502E-01 
  62878.9498     0.11850E-01 
  62911.2120     0.12232E-01 
  62943.4742     0.12649E-01 
  62975.7363     0.13102E-01 
  63007.9985     0.13591E-01 
  63040.2606     0.14117E-01 
  63072.5228     0.14679E-01 
  63104.7850     0.15278E-01 
  63137.0471     0.15915E-01 
  63169.3093     0.16591E-01 
  63201.5714     0.17305E-01 
  63233.8336     0.18058E-01 
  63266.0958     0.18852E-01 
  63298.3579     0.19685E-01 
  63330.6201     0.20559E-01 
  63362.8822     0.21475E-01 
  63395.1444     0.22433E-01 
  63427.4066     0.23433E-01 
  63459.6687     0.24476E-01 
  63491.9309     0.25563E-01 
  63524.1930     0.26695E-01 
  63556.4552     0.27871E-01 
  63588.7174     0.29093E-01 
  63620.9795     0.30361E-01 
  63653.2417     0.31675E-01 
  63685.5038     0.33038E-01 
  63717.7660     0.34448E-01 
  63750.0282     0.35907E-01 
  63782.2903     0.37416E-01 
  63814.5525     0.38975E-01 
  63846.8146     0.40586E-01 
  63879.0768     0.42248E-01 
  63911.3390     0.43962E-01 
  63943.6011     0.45730E-01 
  63975.8633     0.47552E-01 
  64008.1254     0.49429E-01 
  64040.3876     0.51362E-01 
  64072.6498     0.53352E-01 
  64104.9119     0.55398E-01 
  64137.1741     0.57503E-01 
  64169.4362     0.59668E-01 
  64201.6984     0.61892E-01 
  64233.9606     0.64177E-01 
  64266.2227     0.66525E-01 
  64298.4849     0.68935E-01 
  64330.7470     0.71409E-01 
  64363.0092     0.73948E-01 
  64395.2714     0.76552E-01 
  64427.5335     0.79224E-01 
  64459.7957     0.81963E-01 
  64492.0578     0.84772E-01 
  64524.3200     0.87650E-01 
  64556.5822     0.90599E-01 
  64588.8443     0.93621E-01 
  64621.1065     0.96716E-01 
  64653.3686     0.99885E-01 
  64685.6308     0.10313E+00 
  64717.8930     0.10645E+00 
  64750.1551     0.10985E+00 
  64782.4173     0.11333E+00 
  64814.6794     0.11689E+00 
  64846.9416     0.12053E+00 
  64879.2038     0.12426E+00 
  64911.4659     0.12806E+00 
  64943.7281     0.13196E+00 
  64975.9902     0.13594E+00 
  65008.2524     0.14001E+00 
  65040.5146     0.14417E+00 
  65072.7767     0.14842E+00 
  65105.0389     0.15276E+00 
  65137.3010     0.15720E+00 
  65169.5632     0.16173E+00 
  65201.8254     0.16636E+00 
  65234.0875     0.17109E+00 
  65266.3497     0.17592E+00 
  65298.6118     0.18085E+00 
  65330.8740     0.18588E+00 
  65363.1362     0.19102E+00 
  65395.3983     0.19627E+00 
  65427.6605     0.20162E+00 
  65459.9226     0.20708E+00 
  65492.1848     0.21266E+00 
  65524.4470     0.21834E+00 
  65556.7091     0.22415E+00 
  65588.9713     0.23007E+00 
  65621.2334     0.23611E+00 
  65653.4956     0.24226E+00 
  65685.7578     0.24855E+00 
  65718.0199     0.25495E+00 
  65750.2821     0.26148E+00 
  65782.5442     0.26814E+00 
  65814.8064     0.27494E+00 
  65847.0686     0.28186E+00 
  65879.3307     0.28892E+00 
  65911.5929     0.29611E+00 
  65943.8550     0.30344E+00 
  65976.1172     0.31091E+00 
  66008.3794     0.31853E+00 
  66040.6415     0.32629E+00 
  66072.9037     0.33419E+00 
  66105.1658     0.34225E+00 
  66137.4280     0.35046E+00 
  66169.6902     0.35882E+00 
  66201.9523     0.36734E+00 
  66234.2145     0.37601E+00 
  66266.4766     0.38485E+00 
  66298.7388     0.39385E+00 
  66331.0010     0.40302E+00 
  66363.2631     0.41235E+00 
  66395.5253     0.42185E+00 
  66427.7874     0.43153E+00 
  66460.0496     0.44139E+00 
  66492.3118     0.45142E+00 
  66524.5739     0.46163E+00 
  66556.8361     0.47203E+00 
  66589.0982     0.48261E+00 
  66621.3604     0.49338E+00 
  66653.6226     0.50435E+00 
  66685.8847     0.51551E+00 
  66718.1469     0.52686E+00 
  66750.4090     0.53842E+00 
  66782.6712     0.55018E+00 
  66814.9334     0.56215E+00 
  66847.1955     0.57432E+00 
  66879.4577     0.58671E+00 
  66911.7198     0.59931E+00 
  66943.9820     0.61213E+00 
  66976.2442     0.62517E+00 
  67008.5063     0.63844E+00 
  67040.7685     0.65193E+00 
  67073.0306     0.66566E+00 
  67105.2928     0.67961E+00 
  67137.5550     0.69381E+00 
  67169.8171     0.70824E+00 
  67202.0793     0.72292E+00 
  67234.3414     0.73785E+00 
  67266.6036     0.75303E+00 
  67298.8658     0.76846E+00 
  67331.1279     0.78414E+00 
  67363.3901     0.80009E+00 
  67395.6522     0.81630E+00 
  67427.9144     0.83278E+00 
  67460.1766     0.84954E+00 
  67492.4387     0.86656E+00 
  67524.7009     0.88387E+00 
  67556.9630     0.90146E+00 
  67589.2252     0.91933E+00 
  67621.4874     0.93750E+00 
  67653.7495     0.95595E+00 
  67686.0117     0.97471E+00 
  67718.2738     0.99377E+00 
  67750.5360     0.10131E+01 
  67782.7982     0.10328E+01 
  67815.0603     0.10528E+01 
  67847.3225     0.10731E+01 
  67879.5846     0.10937E+01 
  67911.8468     0.11147E+01 
  67944.1090     0.11359E+01 
  67976.3711     0.11575E+01 
  68008.6333     0.11795E+01 
  68040.8954     0.12018E+01 
  68073.1576     0.12244E+01 
  68105.4198     0.12474E+01 
  68137.6819     0.12707E+01 
  68169.9441     0.12944E+01 
  68202.2062     0.13185E+01 
  68234.4684     0.13429E+01 
  68266.7306     0.13677E+01 
  68298.9927     0.13929E+01 
  68331.2549     0.14185E+01 
  68363.5170     0.14444E+01 
  68395.7792     0.14708E+01 
  68428.0414     0.14975E+01 
  68460.3035     0.15246E+01 
  68492.5657     0.15521E+01 
  68524.8278     0.15801E+01 
  68557.0900     0.16084E+01 
  68589.3522     0.16372E+01 
  68621.6143     0.16664E+01 
  68653.8765     0.16960E+01 
  68686.1386     0.17261E+01 
  68718.4008     0.17566E+01 
  68750.6630     0.17875E+01 
  68782.9251     0.18189E+01 
  68815.1873     0.18507E+01 
  68847.4494     0.18830E+01 
  68879.7116     0.19157E+01 
  68911.9738     0.19489E+01 
  68944.2359     0.19826E+01 
  68976.4981     0.20168E+01 
  69008.7602     0.20514E+01 
  69041.0224     0.20865E+01 
  69073.2846     0.21221E+01 
  69105.5467     0.21583E+01 
  69137.8089     0.21949E+01 
  69170.0710     0.22320E+01 
  69202.3332     0.22696E+01 
  69234.5954     0.23078E+01 
  69266.8575     0.23464E+01 
  69299.1197     0.23856E+01 
  69331.3818     0.24254E+01 
  69363.6440     0.24656E+01 
  69395.9062     0.25064E+01 
  69428.1683     0.25478E+01 
  69460.4305     0.25897E+01 
  69492.6926     0.26322E+01 
  69524.9548     0.26752E+01 
  69557.2170     0.27188E+01 
  69589.4791     0.27630E+01 
  69621.7413     0.28078E+01 
  69654.0034     0.28531E+01 
  69686.2656     0.28990E+01 
  69718.5278     0.29456E+01 
  69750.7899     0.29927E+01 
  69783.0521     0.30405E+01 
  69815.3142     0.30888E+01 
  69847.5764     0.31378E+01 
  69879.8386     0.31874E+01 
  69912.1007     0.32376E+01 
  69944.3629     0.32884E+01 
  69976.6250     0.33399E+01 
  70008.8872     0.33921E+01 
  70041.1494     0.34449E+01 
  70073.4115     0.34983E+01 
  70105.6737     0.35524E+01 
  70137.9358     0.36072E+01 
  70170.1980     0.36626E+01 
  70202.4602     0.37187E+01 
  70234.7223     0.37755E+01 
  70266.9845     0.38330E+01 
  70299.2466     0.38912E+01 
  70331.5088     0.39501E+01 
  70363.7710     0.40097E+01 
  70396.0331     0.40700E+01 
  70428.2953     0.41310E+01 
  70460.5574     0.41927E+01 
  70492.8196     0.42551E+01 
  70525.0818     0.43183E+01 
  70557.3439     0.43822E+01 
  70589.6061     0.44469E+01 
  70621.8682     0.45123E+01 
  70654.1304     0.45785E+01 
  70686.3926     0.46454E+01 
  70718.6547     0.47130E+01 
  70750.9169     0.47815E+01 
  70783.1790     0.48507E+01 
  70815.4412     0.49207E+01 
  70847.7034     0.49914E+01 
  70879.9655     0.50630E+01 
  70912.2277     0.51353E+01 
  70944.4898     0.52085E+01 
  70976.7520     0.52824E+01 
  71009.0142     0.53572E+01 
  71041.2763     0.54327E+01 
  71073.5385     0.55091E+01 
  71105.8006     0.55863E+01 
  71138.0628     0.56643E+01 
  71170.3250     0.57432E+01 
  71202.5871     0.58229E+01 
  71234.8493     0.59034E+01 
  71267.1114     0.59848E+01 
  71299.3736     0.60670E+01 
  71331.6358     0.61501E+01 
  71363.8979     0.62340E+01 
  71396.1601     0.63188E+01 
  71428.4222     0.64045E+01 
  71460.6844     0.64910E+01 
  71492.9466     0.65784E+01 
  71525.2087     0.66667E+01 
  71557.4709     0.67559E+01 
  71589.7330     0.68459E+01 
  71621.9952     0.69369E+01 
  71654.2574     0.70287E+01 
  71686.5195     0.71215E+01 
  71718.7817     0.72151E+01 
  71751.0438     0.73097E+01 
  71783.3060     0.74052E+01 
  71815.5682     0.75015E+01 
  71847.8303     0.75988E+01 
  71880.0925     0.76971E+01 
  71912.3546     0.77962E+01 
  71944.6168     0.78963E+01 
  71976.8790     0.79973E+01 
  72009.1411     0.80992E+01 
  72041.4033     0.82021E+01 
  72073.6654     0.83059E+01 
  72105.9276     0.84107E+01 
  72138.1898     0.85164E+01 
  72170.4519     0.86231E+01 
  72202.7141     0.87307E+01 
  72234.9762     0.88393E+01 
  72267.2384     0.89488E+01 
  72299.5006     0.90593E+01 
  72331.7627     0.91708E+01 
  72364.0249     0.92832E+01 
  72396.2870     0.93966E+01 
  72428.5492     0.95110E+01 
  72460.8114     0.96263E+01 
  72493.0735     0.97426E+01 
  72525.3357     0.98599E+01 
  72557.5978     0.99782E+01 
  72589.8600     0.10097E+02 
