  32262.1600     0.46748E+00 
  32294.4222     0.47314E+00 
  32326.6843     0.47884E+00 
  32358.9465     0.48459E+00 
  32391.2086     0.49039E+00 
  32423.4708     0.49623E+00 
  32455.7330     0.50212E+00 
  32487.9951     0.50805E+00 
  32520.2573     0.51404E+00 
  32552.5194     0.52006E+00 
  32584.7816     0.52614E+00 
  32617.0438     0.53226E+00 
  32649.3059     0.53843E+00 
  32681.5681     0.54464E+00 
  32713.8302     0.55091E+00 
  32746.0924     0.55721E+00 
  32778.3546     0.56357E+00 
  32810.6167     0.56997E+00 
  32842.8789     0.57642E+00 
  32875.1410     0.58291E+00 
  32907.4032     0.58945E+00 
  32939.6654     0.59604E+00 
  32971.9275     0.60267E+00 
  33004.1897     0.60935E+00 
  33036.4518     0.61607E+00 
  33068.7140     0.62284E+00 
  33100.9762     0.62966E+00 
  33133.2383     0.63652E+00 
  33165.5005     0.64343E+00 
  33197.7626     0.65038E+00 
  33230.0248     0.65738E+00 
  33262.2870     0.66443E+00 
  33294.5491     0.67152E+00 
  33326.8113     0.67866E+00 
  33359.0734     0.68584E+00 
  33391.3356     0.69306E+00 
  33423.5978     0.70033E+00 
  33455.8599     0.70765E+00 
  33488.1221     0.71501E+00 
  33520.3842     0.72242E+00 
  33552.6464     0.72986E+00 
  33584.9086     0.73736E+00 
  33617.1707     0.74489E+00 
  33649.4329     0.75247E+00 
  33681.6950     0.76010E+00 
  33713.9572     0.76777E+00 
  33746.2194     0.77548E+00 
  33778.4815     0.78323E+00 
  33810.7437     0.79103E+00 
  33843.0058     0.79887E+00 
  33875.2680     0.80675E+00 
  33907.5302     0.81467E+00 
  33939.7923     0.82263E+00 
  33972.0545     0.83064E+00 
  34004.3166     0.83869E+00 
  34036.5788     0.84678E+00 
  34068.8410     0.85490E+00 
  34101.1031     0.86307E+00 
  34133.3653     0.87128E+00 
  34165.6274     0.87953E+00 
  34197.8896     0.88782E+00 
  34230.1518     0.89615E+00 
  34262.4139     0.90452E+00 
  34294.6761     0.91293E+00 
  34326.9382     0.92137E+00 
  34359.2004     0.92985E+00 
  34391.4626     0.93837E+00 
  34423.7247     0.94693E+00 
  34455.9869     0.95553E+00 
  34488.2490     0.96416E+00 
  34520.5112     0.97283E+00 
  34552.7734     0.98153E+00 
  34585.0355     0.99027E+00 
  34617.2977     0.99904E+00 
  34649.5598     0.10079E+01 
  34681.8220     0.10167E+01 
  34714.0842     0.10256E+01 
  34746.3463     0.10345E+01 
  34778.6085     0.10434E+01 
  34810.8706     0.10524E+01 
  34843.1328     0.10614E+01 
  34875.3950     0.10705E+01 
  34907.6571     0.10795E+01 
  34939.9193     0.10886E+01 
  34972.1814     0.10978E+01 
  35004.4436     0.11069E+01 
  35036.7058     0.11161E+01 
  35068.9679     0.11254E+01 
  35101.2301     0.11346E+01 
  35133.4922     0.11439E+01 
  35165.7544     0.11532E+01 
  35198.0166     0.11625E+01 
  35230.2787     0.11719E+01 
  35262.5409     0.11813E+01 
  35294.8030     0.11907E+01 
  35327.0652     0.12002E+01 
  35359.3274     0.12096E+01 
  35391.5895     0.12191E+01 
  35423.8517     0.12286E+01 
  35456.1138     0.12382E+01 
  35488.3760     0.12477E+01 
  35520.6382     0.12573E+01 
  35552.9003     0.12669E+01 
  35585.1625     0.12766E+01 
  35617.4246     0.12862E+01 
  35649.6868     0.12959E+01 
  35681.9490     0.13056E+01 
  35714.2111     0.13153E+01 
  35746.4733     0.13250E+01 
  35778.7354     0.13347E+01 
  35810.9976     0.13445E+01 
  35843.2598     0.13543E+01 
  35875.5219     0.13641E+01 
  35907.7841     0.13739E+01 
  35940.0462     0.13837E+01 
  35972.3084     0.13935E+01 
  36004.5706     0.14034E+01 
  36036.8327     0.14132E+01 
  36069.0949     0.14231E+01 
  36101.3570     0.14330E+01 
  36133.6192     0.14429E+01 
  36165.8814     0.14528E+01 
  36198.1435     0.14627E+01 
  36230.4057     0.14727E+01 
  36262.6678     0.14826E+01 
  36294.9300     0.14925E+01 
  36327.1922     0.15025E+01 
  36359.4543     0.15124E+01 
  36391.7165     0.15224E+01 
  36423.9786     0.15324E+01 
  36456.2408     0.15424E+01 
  36488.5030     0.15523E+01 
  36520.7651     0.15623E+01 
  36553.0273     0.15723E+01 
  36585.2894     0.15823E+01 
  36617.5516     0.15923E+01 
  36649.8138     0.16023E+01 
  36682.0759     0.16123E+01 
  36714.3381     0.16223E+01 
  36746.6002     0.16322E+01 
  36778.8624     0.16422E+01 
  36811.1246     0.16522E+01 
  36843.3867     0.16622E+01 
  36875.6489     0.16722E+01 
  36907.9110     0.16821E+01 
  36940.1732     0.16921E+01 
  36972.4354     0.17021E+01 
  37004.6975     0.17120E+01 
  37036.9597     0.17220E+01 
  37069.2218     0.17319E+01 
  37101.4840     0.17418E+01 
  37133.7462     0.17517E+01 
  37166.0083     0.17616E+01 
  37198.2705     0.17715E+01 
  37230.5326     0.17814E+01 
  37262.7948     0.17913E+01 
  37295.0570     0.18012E+01 
  37327.3191     0.18110E+01 
  37359.5813     0.18208E+01 
  37391.8434     0.18307E+01 
  37424.1056     0.18405E+01 
  37456.3678     0.18502E+01 
  37488.6299     0.18600E+01 
  37520.8921     0.18698E+01 
  37553.1542     0.18795E+01 
  37585.4164     0.18892E+01 
  37617.6786     0.18989E+01 
  37649.9407     0.19085E+01 
  37682.2029     0.19182E+01 
  37714.4650     0.19278E+01 
  37746.7272     0.19374E+01 
  37778.9894     0.19470E+01 
  37811.2515     0.19565E+01 
  37843.5137     0.19661E+01 
  37875.7758     0.19756E+01 
  37908.0380     0.19851E+01 
  37940.3002     0.19945E+01 
  37972.5623     0.20039E+01 
  38004.8245     0.20133E+01 
  38037.0866     0.20227E+01 
  38069.3488     0.20320E+01 
  38101.6110     0.20413E+01 
  38133.8731     0.20506E+01 
  38166.1353     0.20598E+01 
  38198.3974     0.20690E+01 
  38230.6596     0.20782E+01 
  38262.9218     0.20873E+01 
  38295.1839     0.20964E+01 
  38327.4461     0.21055E+01 
  38359.7082     0.21145E+01 
  38391.9704     0.21235E+01 
  38424.2326     0.21325E+01 
  38456.4947     0.21414E+01 
  38488.7569     0.21503E+01 
  38521.0190     0.21591E+01 
  38553.2812     0.21679E+01 
  38585.5434     0.21767E+01 
  38617.8055     0.21854E+01 
  38650.0677     0.21940E+01 
  38682.3298     0.22027E+01 
  38714.5920     0.22113E+01 
  38746.8542     0.22198E+01 
  38779.1163     0.22283E+01 
  38811.3785     0.22367E+01 
  38843.6406     0.22452E+01 
  38875.9028     0.22535E+01 
  38908.1650     0.22618E+01 
  38940.4271     0.22701E+01 
  38972.6893     0.22783E+01 
  39004.9514     0.22865E+01 
  39037.2136     0.22946E+01 
  39069.4758     0.23026E+01 
  39101.7379     0.23107E+01 
  39134.0001     0.23186E+01 
  39166.2622     0.23265E+01 
  39198.5244     0.23344E+01 
  39230.7866     0.23422E+01 
  39263.0487     0.23500E+01 
  39295.3109     0.23576E+01 
  39327.5730     0.23653E+01 
  39359.8352     0.23729E+01 
  39392.0974     0.23804E+01 
  39424.3595     0.23879E+01 
  39456.6217     0.23953E+01 
  39488.8838     0.24027E+01 
  39521.1460     0.24100E+01 
  39553.4082     0.24172E+01 
  39585.6703     0.24244E+01 
  39617.9325     0.24315E+01 
  39650.1946     0.24386E+01 
  39682.4568     0.24456E+01 
  39714.7190     0.24525E+01 
  39746.9811     0.24594E+01 
  39779.2433     0.24662E+01 
  39811.5054     0.24729E+01 
  39843.7676     0.24796E+01 
  39876.0298     0.24862E+01 
  39908.2919     0.24928E+01 
  39940.5541     0.24993E+01 
  39972.8162     0.25057E+01 
  40005.0784     0.25121E+01 
  40037.3406     0.25184E+01 
  40069.6027     0.25246E+01 
  40101.8649     0.25308E+01 
  40134.1270     0.25369E+01 
  40166.3892     0.25429E+01 
  40198.6514     0.25489E+01 
  40230.9135     0.25548E+01 
  40263.1757     0.25606E+01 
  40295.4378     0.25663E+01 
  40327.7000     0.25720E+01 
  40359.9622     0.25776E+01 
  40392.2243     0.25832E+01 
  40424.4865     0.25887E+01 
  40456.7486     0.25941E+01 
  40489.0108     0.25994E+01 
  40521.2730     0.26046E+01 
  40553.5351     0.26098E+01 
  40585.7973     0.26149E+01 
  40618.0594     0.26200E+01 
  40650.3216     0.26249E+01 
  40682.5838     0.26298E+01 
  40714.8459     0.26347E+01 
  40747.1081     0.26394E+01 
  40779.3702     0.26441E+01 
  40811.6324     0.26487E+01 
  40843.8946     0.26532E+01 
  40876.1567     0.26576E+01 
  40908.4189     0.26620E+01 
  40940.6810     0.26663E+01 
  40972.9432     0.26705E+01 
  41005.2054     0.26747E+01 
  41037.4675     0.26787E+01 
  41069.7297     0.26827E+01 
  41101.9918     0.26866E+01 
  41134.2540     0.26905E+01 
  41166.5162     0.26942E+01 
  41198.7783     0.26979E+01 
  41231.0405     0.27015E+01 
  41263.3026     0.27050E+01 
  41295.5648     0.27085E+01 
  41327.8270     0.27118E+01 
  41360.0891     0.27151E+01 
  41392.3513     0.27183E+01 
  41424.6134     0.27215E+01 
  41456.8756     0.27245E+01 
  41489.1378     0.27275E+01 
  41521.3999     0.27304E+01 
  41553.6621     0.27332E+01 
  41585.9242     0.27359E+01 
  41618.1864     0.27386E+01 
  41650.4486     0.27412E+01 
  41682.7107     0.27436E+01 
  41714.9729     0.27461E+01 
  41747.2350     0.27484E+01 
  41779.4972     0.27507E+01 
  41811.7594     0.27528E+01 
  41844.0215     0.27549E+01 
  41876.2837     0.27569E+01 
  41908.5458     0.27589E+01 
  41940.8080     0.27607E+01 
  41973.0702     0.27625E+01 
  42005.3323     0.27642E+01 
  42037.5945     0.27658E+01 
  42069.8566     0.27674E+01 
  42102.1188     0.27688E+01 
  42134.3810     0.27702E+01 
  42166.6431     0.27715E+01 
  42198.9053     0.27727E+01 
  42231.1674     0.27738E+01 
  42263.4296     0.27749E+01 
  42295.6918     0.27759E+01 
  42327.9539     0.27768E+01 
  42360.2161     0.27776E+01 
  42392.4782     0.27783E+01 
  42424.7404     0.27790E+01 
  42457.0026     0.27796E+01 
  42489.2647     0.27801E+01 
  42521.5269     0.27805E+01 
  42553.7890     0.27808E+01 
  42586.0512     0.27811E+01 
  42618.3134     0.27813E+01 
  42650.5755     0.27814E+01 
  42682.8377     0.27814E+01 
  42715.0998     0.27813E+01 
  42747.3620     0.27812E+01 
  42779.6242     0.27810E+01 
  42811.8863     0.27807E+01 
  42844.1485     0.27803E+01 
  42876.4106     0.27799E+01 
  42908.6728     0.27793E+01 
  42940.9350     0.27787E+01 
  42973.1971     0.27781E+01 
  43005.4593     0.27773E+01 
  43037.7214     0.27765E+01 
  43069.9836     0.27756E+01 
  43102.2458     0.27746E+01 
  43134.5079     0.27735E+01 
  43166.7701     0.27724E+01 
  43199.0322     0.27711E+01 
  43231.2944     0.27698E+01 
  43263.5566     0.27685E+01 
  43295.8187     0.27670E+01 
  43328.0809     0.27655E+01 
  43360.3430     0.27639E+01 
  43392.6052     0.27623E+01 
  43424.8674     0.27605E+01 
  43457.1295     0.27587E+01 
  43489.3917     0.27568E+01 
  43521.6538     0.27548E+01 
  43553.9160     0.27528E+01 
  43586.1782     0.27507E+01 
  43618.4403     0.27485E+01 
  43650.7025     0.27463E+01 
  43682.9646     0.27439E+01 
  43715.2268     0.27415E+01 
  43747.4890     0.27391E+01 
  43779.7511     0.27365E+01 
  43812.0133     0.27339E+01 
  43844.2754     0.27312E+01 
  43876.5376     0.27285E+01 
  43908.7998     0.27256E+01 
  43941.0619     0.27228E+01 
  43973.3241     0.27198E+01 
  44005.5862     0.27168E+01 
  44037.8484     0.27137E+01 
  44070.1106     0.27105E+01 
  44102.3727     0.27073E+01 
  44134.6349     0.27040E+01 
  44166.8970     0.27006E+01 
  44199.1592     0.26972E+01 
  44231.4214     0.26937E+01 
  44263.6835     0.26901E+01 
  44295.9457     0.26865E+01 
  44328.2078     0.26828E+01 
  44360.4700     0.26790E+01 
  44392.7322     0.26752E+01 
  44424.9943     0.26713E+01 
  44457.2565     0.26674E+01 
  44489.5186     0.26633E+01 
  44521.7808     0.26593E+01 
  44554.0430     0.26551E+01 
  44586.3051     0.26509E+01 
  44618.5673     0.26467E+01 
  44650.8294     0.26423E+01 
  44683.0916     0.26380E+01 
  44715.3538     0.26335E+01 
  44747.6159     0.26290E+01 
  44779.8781     0.26244E+01 
  44812.1402     0.26198E+01 
  44844.4024     0.26151E+01 
  44876.6646     0.26104E+01 
  44908.9267     0.26056E+01 
  44941.1889     0.26008E+01 
  44973.4510     0.25959E+01 
  45005.7132     0.25909E+01 
  45037.9754     0.25859E+01 
  45070.2375     0.25808E+01 
  45102.4997     0.25757E+01 
  45134.7618     0.25705E+01 
  45167.0240     0.25653E+01 
  45199.2862     0.25600E+01 
  45231.5483     0.25546E+01 
  45263.8105     0.25492E+01 
  45296.0726     0.25438E+01 
  45328.3348     0.25383E+01 
  45360.5970     0.25327E+01 
  45392.8591     0.25271E+01 
  45425.1213     0.25215E+01 
  45457.3834     0.25158E+01 
  45489.6456     0.25100E+01 
  45521.9078     0.25043E+01 
  45554.1699     0.24984E+01 
  45586.4321     0.24925E+01 
  45618.6942     0.24866E+01 
  45650.9564     0.24806E+01 
  45683.2186     0.24746E+01 
  45715.4807     0.24685E+01 
  45747.7429     0.24624E+01 
  45780.0050     0.24562E+01 
  45812.2672     0.24500E+01 
  45844.5294     0.24438E+01 
  45876.7915     0.24375E+01 
  45909.0537     0.24311E+01 
  45941.3158     0.24247E+01 
  45973.5780     0.24183E+01 
  46005.8402     0.24119E+01 
  46038.1023     0.24054E+01 
  46070.3645     0.23988E+01 
  46102.6266     0.23922E+01 
  46134.8888     0.23856E+01 
  46167.1510     0.23790E+01 
  46199.4131     0.23723E+01 
  46231.6753     0.23655E+01 
  46263.9374     0.23588E+01 
  46296.1996     0.23520E+01 
  46328.4618     0.23451E+01 
  46360.7239     0.23382E+01 
  46392.9861     0.23313E+01 
  46425.2482     0.23244E+01 
  46457.5104     0.23174E+01 
  46489.7726     0.23104E+01 
  46522.0347     0.23033E+01 
  46554.2969     0.22963E+01 
  46586.5590     0.22891E+01 
  46618.8212     0.22820E+01 
  46651.0834     0.22748E+01 
  46683.3455     0.22676E+01 
  46715.6077     0.22604E+01 
  46747.8698     0.22531E+01 
  46780.1320     0.22458E+01 
  46812.3942     0.22385E+01 
  46844.6563     0.22312E+01 
  46876.9185     0.22238E+01 
  46909.1806     0.22164E+01 
  46941.4428     0.22090E+01 
  46973.7050     0.22015E+01 
  47005.9671     0.21940E+01 
  47038.2293     0.21865E+01 
  47070.4914     0.21790E+01 
  47102.7536     0.21715E+01 
  47135.0158     0.21639E+01 
  47167.2779     0.21563E+01 
  47199.5401     0.21487E+01 
  47231.8022     0.21410E+01 
  47264.0644     0.21334E+01 
  47296.3266     0.21257E+01 
  47328.5887     0.21180E+01 
  47360.8509     0.21102E+01 
  47393.1130     0.21025E+01 
  47425.3752     0.20947E+01 
  47457.6374     0.20870E+01 
  47489.8995     0.20792E+01 
  47522.1617     0.20713E+01 
  47554.4238     0.20635E+01 
  47586.6860     0.20556E+01 
  47618.9482     0.20478E+01 
  47651.2103     0.20399E+01 
  47683.4725     0.20320E+01 
  47715.7346     0.20241E+01 
  47747.9968     0.20162E+01 
  47780.2590     0.20082E+01 
  47812.5211     0.20003E+01 
  47844.7833     0.19923E+01 
  47877.0454     0.19843E+01 
  47909.3076     0.19763E+01 
  47941.5698     0.19683E+01 
  47973.8319     0.19603E+01 
  48006.0941     0.19523E+01 
  48038.3562     0.19443E+01 
  48070.6184     0.19362E+01 
  48102.8806     0.19282E+01 
  48135.1427     0.19201E+01 
  48167.4049     0.19120E+01 
  48199.6670     0.19039E+01 
  48231.9292     0.18959E+01 
  48264.1914     0.18878E+01 
  48296.4535     0.18797E+01 
  48328.7157     0.18716E+01 
  48360.9778     0.18635E+01 
  48393.2400     0.18553E+01 
  48425.5022     0.18472E+01 
  48457.7643     0.18391E+01 
  48490.0265     0.18310E+01 
  48522.2886     0.18228E+01 
  48554.5508     0.18147E+01 
  48586.8130     0.18065E+01 
  48619.0751     0.17984E+01 
  48651.3373     0.17902E+01 
  48683.5994     0.17821E+01 
  48715.8616     0.17739E+01 
  48748.1238     0.17658E+01 
  48780.3859     0.17576E+01 
  48812.6481     0.17495E+01 
  48844.9102     0.17413E+01 
  48877.1724     0.17332E+01 
  48909.4346     0.17250E+01 
  48941.6967     0.17169E+01 
  48973.9589     0.17088E+01 
  49006.2210     0.17006E+01 
  49038.4832     0.16925E+01 
  49070.7454     0.16843E+01 
  49103.0075     0.16762E+01 
  49135.2697     0.16681E+01 
  49167.5318     0.16599E+01 
  49199.7940     0.16518E+01 
  49232.0562     0.16437E+01 
  49264.3183     0.16356E+01 
  49296.5805     0.16275E+01 
  49328.8426     0.16194E+01 
  49361.1048     0.16113E+01 
  49393.3670     0.16032E+01 
  49425.6291     0.15951E+01 
  49457.8913     0.15870E+01 
  49490.1534     0.15789E+01 
  49522.4156     0.15709E+01 
  49554.6778     0.15628E+01 
  49586.9399     0.15548E+01 
  49619.2021     0.15467E+01 
  49651.4642     0.15387E+01 
  49683.7264     0.15307E+01 
  49715.9886     0.15227E+01 
  49748.2507     0.15147E+01 
  49780.5129     0.15067E+01 
  49812.7750     0.14987E+01 
  49845.0372     0.14907E+01 
  49877.2994     0.14827E+01 
  49909.5615     0.14748E+01 
  49941.8237     0.14669E+01 
  49974.0858     0.14589E+01 
  50006.3480     0.14510E+01 
  50038.6102     0.14431E+01 
  50070.8723     0.14352E+01 
  50103.1345     0.14274E+01 
  50135.3966     0.14195E+01 
  50167.6588     0.14116E+01 
  50199.9210     0.14038E+01 
  50232.1831     0.13960E+01 
  50264.4453     0.13882E+01 
  50296.7074     0.13804E+01 
  50328.9696     0.13726E+01 
  50361.2318     0.13648E+01 
  50393.4939     0.13571E+01 
  50425.7561     0.13494E+01 
  50458.0182     0.13417E+01 
  50490.2804     0.13340E+01 
  50522.5426     0.13263E+01 
  50554.8047     0.13186E+01 
  50587.0669     0.13109E+01 
  50619.3290     0.13033E+01 
  50651.5912     0.12957E+01 
  50683.8534     0.12881E+01 
  50716.1155     0.12805E+01 
  50748.3777     0.12729E+01 
  50780.6398     0.12654E+01 
  50812.9020     0.12579E+01 
  50845.1642     0.12504E+01 
  50877.4263     0.12429E+01 
  50909.6885     0.12354E+01 
  50941.9506     0.12279E+01 
  50974.2128     0.12205E+01 
  51006.4750     0.12131E+01 
  51038.7371     0.12057E+01 
  51070.9993     0.11983E+01 
  51103.2614     0.11910E+01 
  51135.5236     0.11836E+01 
  51167.7858     0.11763E+01 
  51200.0479     0.11690E+01 
  51232.3101     0.11617E+01 
  51264.5722     0.11545E+01 
  51296.8344     0.11472E+01 
  51329.0966     0.11400E+01 
  51361.3587     0.11328E+01 
  51393.6209     0.11257E+01 
  51425.8830     0.11185E+01 
  51458.1452     0.11114E+01 
  51490.4074     0.11043E+01 
  51522.6695     0.10972E+01 
  51554.9317     0.10901E+01 
  51587.1938     0.10831E+01 
  51619.4560     0.10761E+01 
  51651.7182     0.10691E+01 
  51683.9803     0.10621E+01 
  51716.2425     0.10551E+01 
  51748.5046     0.10482E+01 
  51780.7668     0.10413E+01 
  51813.0290     0.10344E+01 
  51845.2911     0.10276E+01 
  51877.5533     0.10207E+01 
  51909.8154     0.10139E+01 
  51942.0776     0.10071E+01 
  51974.3398     0.10004E+01 
  52006.6019     0.99362E+00 
  52038.8641     0.98691E+00 
  52071.1262     0.98021E+00 
  52103.3884     0.97354E+00 
  52135.6506     0.96690E+00 
  52167.9127     0.96028E+00 
  52200.1749     0.95368E+00 
  52232.4370     0.94711E+00 
  52264.6992     0.94056E+00 
  52296.9614     0.93404E+00 
  52329.2235     0.92754E+00 
  52361.4857     0.92107E+00 
  52393.7478     0.91462E+00 
  52426.0100     0.90819E+00 
  52458.2722     0.90179E+00 
  52490.5343     0.89542E+00 
  52522.7965     0.88907E+00 
  52555.0586     0.88275E+00 
  52587.3208     0.87645E+00 
  52619.5830     0.87018E+00 
  52651.8451     0.86393E+00 
  52684.1073     0.85771E+00 
  52716.3694     0.85151E+00 
  52748.6316     0.84534E+00 
  52780.8938     0.83919E+00 
  52813.1559     0.83307E+00 
  52845.4181     0.82698E+00 
  52877.6802     0.82091E+00 
  52909.9424     0.81487E+00 
  52942.2046     0.80885E+00 
  52974.4667     0.80286E+00 
  53006.7289     0.79689E+00 
  53038.9910     0.79095E+00 
  53071.2532     0.78504E+00 
  53103.5154     0.77915E+00 
  53135.7775     0.77329E+00 
  53168.0397     0.76745E+00 
  53200.3018     0.76164E+00 
  53232.5640     0.75586E+00 
  53264.8262     0.75010E+00 
  53297.0883     0.74437E+00 
  53329.3505     0.73866E+00 
  53361.6126     0.73299E+00 
  53393.8748     0.72733E+00 
  53426.1370     0.72171E+00 
  53458.3991     0.71610E+00 
  53490.6613     0.71053E+00 
  53522.9234     0.70498E+00 
  53555.1856     0.69946E+00 
  53587.4478     0.69396E+00 
  53619.7099     0.68849E+00 
  53651.9721     0.68305E+00 
  53684.2342     0.67763E+00 
  53716.4964     0.67224E+00 
  53748.7586     0.66688E+00 
  53781.0207     0.66154E+00 
  53813.2829     0.65622E+00 
  53845.5450     0.65094E+00 
  53877.8072     0.64568E+00 
  53910.0694     0.64044E+00 
  53942.3315     0.63524E+00 
  53974.5937     0.63005E+00 
  54006.8558     0.62490E+00 
  54039.1180     0.61977E+00 
  54071.3802     0.61466E+00 
  54103.6423     0.60959E+00 
  54135.9045     0.60454E+00 
  54168.1666     0.59951E+00 
  54200.4288     0.59451E+00 
  54232.6910     0.58954E+00 
  54264.9531     0.58459E+00 
  54297.2153     0.57967E+00 
  54329.4774     0.57477E+00 
  54361.7396     0.56990E+00 
  54394.0018     0.56506E+00 
  54426.2639     0.56024E+00 
  54458.5261     0.55544E+00 
  54490.7882     0.55068E+00 
  54523.0504     0.54594E+00 
  54555.3126     0.54122E+00 
  54587.5747     0.53653E+00 
  54619.8369     0.53186E+00 
  54652.0990     0.52723E+00 
  54684.3612     0.52261E+00 
  54716.6234     0.51802E+00 
  54748.8855     0.51346E+00 
  54781.1477     0.50892E+00 
  54813.4098     0.50441E+00 
  54845.6720     0.49992E+00 
  54877.9342     0.49546E+00 
  54910.1963     0.49102E+00 
  54942.4585     0.48661E+00 
  54974.7206     0.48223E+00 
  55006.9828     0.47786E+00 
  55039.2450     0.47353E+00 
  55071.5071     0.46921E+00 
  55103.7693     0.46493E+00 
  55136.0314     0.46067E+00 
  55168.2936     0.45643E+00 
  55200.5558     0.45221E+00 
  55232.8179     0.44803E+00 
  55265.0801     0.44386E+00 
  55297.3422     0.43972E+00 
  55329.6044     0.43561E+00 
  55361.8666     0.43152E+00 
  55394.1287     0.42745E+00 
  55426.3909     0.42341E+00 
  55458.6530     0.41939E+00 
  55490.9152     0.41540E+00 
  55523.1774     0.41143E+00 
  55555.4395     0.40748E+00 
  55587.7017     0.40356E+00 
  55619.9638     0.39966E+00 
  55652.2260     0.39579E+00 
  55684.4882     0.39194E+00 
  55716.7503     0.38811E+00 
  55749.0125     0.38431E+00 
  55781.2746     0.38053E+00 
  55813.5368     0.37677E+00 
  55845.7990     0.37304E+00 
  55878.0611     0.36933E+00 
  55910.3233     0.36564E+00 
  55942.5854     0.36198E+00 
  55974.8476     0.35834E+00 
  56007.1098     0.35472E+00 
  56039.3719     0.35113E+00 
  56071.6341     0.34756E+00 
  56103.8962     0.34401E+00 
  56136.1584     0.34048E+00 
  56168.4206     0.33698E+00 
  56200.6827     0.33350E+00 
  56232.9449     0.33004E+00 
  56265.2070     0.32661E+00 
  56297.4692     0.32319E+00 
  56329.7314     0.31980E+00 
  56361.9935     0.31643E+00 
  56394.2557     0.31309E+00 
  56426.5178     0.30976E+00 
  56458.7800     0.30646E+00 
  56491.0422     0.30318E+00 
  56523.3043     0.29992E+00 
  56555.5665     0.29668E+00 
  56587.8286     0.29347E+00 
  56620.0908     0.29027E+00 
  56652.3530     0.28710E+00 
  56684.6151     0.28395E+00 
  56716.8773     0.28082E+00 
  56749.1394     0.27771E+00 
  56781.4016     0.27463E+00 
  56813.6638     0.27156E+00 
  56845.9259     0.26852E+00 
  56878.1881     0.26549E+00 
  56910.4502     0.26249E+00 
  56942.7124     0.25951E+00 
  56974.9746     0.25655E+00 
  57007.2367     0.25361E+00 
  57039.4989     0.25069E+00 
  57071.7610     0.24779E+00 
  57104.0232     0.24491E+00 
  57136.2854     0.24205E+00 
  57168.5475     0.23921E+00 
  57200.8097     0.23639E+00 
  57233.0718     0.23359E+00 
  57265.3340     0.23082E+00 
  57297.5962     0.22806E+00 
  57329.8583     0.22532E+00 
  57362.1205     0.22260E+00 
  57394.3826     0.21990E+00 
  57426.6448     0.21722E+00 
  57458.9070     0.21456E+00 
  57491.1691     0.21193E+00 
  57523.4313     0.20930E+00 
  57555.6934     0.20670E+00 
  57587.9556     0.20412E+00 
  57620.2178     0.20156E+00 
  57652.4799     0.19902E+00 
  57684.7421     0.19649E+00 
  57717.0042     0.19399E+00 
  57749.2664     0.19150E+00 
  57781.5286     0.18903E+00 
  57813.7907     0.18658E+00 
  57846.0529     0.18415E+00 
  57878.3150     0.18174E+00 
  57910.5772     0.17935E+00 
  57942.8394     0.17697E+00 
  57975.1015     0.17462E+00 
  58007.3637     0.17228E+00 
  58039.6258     0.16996E+00 
  58071.8880     0.16766E+00 
  58104.1502     0.16538E+00 
  58136.4123     0.16311E+00 
  58168.6745     0.16086E+00 
  58200.9366     0.15863E+00 
  58233.1988     0.15642E+00 
  58265.4610     0.15423E+00 
  58297.7231     0.15205E+00 
  58329.9853     0.14989E+00 
  58362.2474     0.14775E+00 
  58394.5096     0.14563E+00 
  58426.7718     0.14352E+00 
  58459.0339     0.14144E+00 
  58491.2961     0.13936E+00 
  58523.5582     0.13731E+00 
  58555.8204     0.13527E+00 
  58588.0826     0.13325E+00 
  58620.3447     0.13125E+00 
  58652.6069     0.12927E+00 
  58684.8690     0.12730E+00 
  58717.1312     0.12535E+00 
  58749.3934     0.12341E+00 
  58781.6555     0.12149E+00 
  58813.9177     0.11959E+00 
  58846.1798     0.11771E+00 
  58878.4420     0.11584E+00 
  58910.7042     0.11399E+00 
  58942.9663     0.11215E+00 
  58975.2285     0.11033E+00 
  59007.4906     0.10853E+00 
  59039.7528     0.10675E+00 
  59072.0150     0.10498E+00 
  59104.2771     0.10322E+00 
  59136.5393     0.10148E+00 
  59168.8014     0.99764E-01 
  59201.0636     0.98058E-01 
  59233.3258     0.96369E-01 
  59265.5879     0.94696E-01 
  59297.8501     0.93039E-01 
  59330.1122     0.91398E-01 
  59362.3744     0.89772E-01 
  59394.6366     0.88163E-01 
  59426.8987     0.86569E-01 
  59459.1609     0.84991E-01 
  59491.4230     0.83429E-01 
  59523.6852     0.81882E-01 
  59555.9474     0.80351E-01 
  59588.2095     0.78835E-01 
  59620.4717     0.77335E-01 
  59652.7338     0.75851E-01 
  59684.9960     0.74382E-01 
  59717.2582     0.72928E-01 
  59749.5203     0.71490E-01 
  59781.7825     0.70067E-01 
  59814.0446     0.68660E-01 
  59846.3068     0.67268E-01 
  59878.5690     0.65891E-01 
  59910.8311     0.64530E-01 
  59943.0933     0.63184E-01 
  59975.3554     0.61853E-01 
  60007.6176     0.60537E-01 
  60039.8798     0.59237E-01 
  60072.1419     0.57952E-01 
  60104.4041     0.56682E-01 
  60136.6662     0.55427E-01 
  60168.9284     0.54187E-01 
  60201.1906     0.52963E-01 
  60233.4527     0.51753E-01 
  60265.7149     0.50559E-01 
  60297.9770     0.49380E-01 
  60330.2392     0.48216E-01 
  60362.5014     0.47067E-01 
  60394.7635     0.45933E-01 
  60427.0257     0.44815E-01 
  60459.2878     0.43711E-01 
  60491.5500     0.42623E-01 
  60523.8122     0.41549E-01 
  60556.0743     0.40491E-01 
  60588.3365     0.39448E-01 
  60620.5986     0.38420E-01 
  60652.8608     0.37408E-01 
  60685.1230     0.36410E-01 
  60717.3851     0.35428E-01 
  60749.6473     0.34461E-01 
  60781.9094     0.33509E-01 
  60814.1716     0.32573E-01 
  60846.4338     0.31652E-01 
  60878.6959     0.30746E-01 
  60910.9581     0.29856E-01 
  60943.2202     0.28981E-01 
  60975.4824     0.28121E-01 
  61007.7446     0.27277E-01 
  61040.0067     0.26448E-01 
  61072.2689     0.25635E-01 
  61104.5310     0.24838E-01 
  61136.7932     0.24056E-01 
  61169.0554     0.23290E-01 
  61201.3175     0.22539E-01 
  61233.5797     0.21805E-01 
  61265.8418     0.21086E-01 
  61298.1040     0.20383E-01 
  61330.3662     0.19696E-01 
  61362.6283     0.19026E-01 
  61394.8905     0.18371E-01 
  61427.1526     0.17732E-01 
  61459.4148     0.17110E-01 
  61491.6770     0.16504E-01 
  61523.9391     0.15915E-01 
  61556.2013     0.15342E-01 
  61588.4634     0.14786E-01 
  61620.7256     0.14246E-01 
  61652.9878     0.13723E-01 
  61685.2499     0.13217E-01 
  61717.5121     0.12728E-01 
  61749.7742     0.12256E-01 
  61782.0364     0.11801E-01 
  61814.2986     0.11364E-01 
  61846.5607     0.10944E-01 
  61878.8229     0.10541E-01 
  61911.0850     0.10156E-01 
  61943.3472     0.97892E-02 
  61975.6094     0.94400E-02 
  62007.8715     0.91088E-02 
  62040.1337     0.87958E-02 
  62072.3958     0.85011E-02 
  62104.6580     0.82249E-02 
  62136.9202     0.79672E-02 
  62169.1823     0.77284E-02 
  62201.4445     0.75084E-02 
  62233.7066     0.73076E-02 
  62265.9688     0.71259E-02 
  62298.2310     0.69638E-02 
  62330.4931     0.68212E-02 
  62362.7553     0.66984E-02 
  62395.0174     0.65955E-02 
  62427.2796     0.65128E-02 
  62459.5418     0.64505E-02 
  62491.8039     0.64087E-02 
  62524.0661     0.63877E-02 
  62556.3282     0.63877E-02 
  62588.5904     0.64088E-02 
  62620.8526     0.64514E-02 
  62653.1147     0.65156E-02 
  62685.3769     0.66017E-02 
  62717.6390     0.67098E-02 
  62749.9012     0.68404E-02 
  62782.1634     0.69935E-02 
  62814.4255     0.71695E-02 
  62846.6877     0.73687E-02 
  62878.9498     0.75912E-02 
  62911.2120     0.78374E-02 
  62943.4742     0.81075E-02 
  62975.7363     0.84019E-02 
  63007.9985     0.87208E-02 
  63040.2606     0.90646E-02 
  63072.5228     0.94335E-02 
  63104.7850     0.98279E-02 
  63137.0471     0.10248E-01 
  63169.3093     0.10694E-01 
  63201.5714     0.11167E-01 
  63233.8336     0.11666E-01 
  63266.0958     0.12193E-01 
  63298.3579     0.12747E-01 
  63330.6201     0.13329E-01 
  63362.8822     0.13939E-01 
  63395.1444     0.14578E-01 
  63427.4066     0.15246E-01 
  63459.6687     0.15943E-01 
  63491.9309     0.16671E-01 
  63524.1930     0.17428E-01 
  63556.4552     0.18216E-01 
  63588.7174     0.19035E-01 
  63620.9795     0.19886E-01 
  63653.2417     0.20768E-01 
  63685.5038     0.21683E-01 
  63717.7660     0.22631E-01 
  63750.0282     0.23613E-01 
  63782.2903     0.24628E-01 
  63814.5525     0.25678E-01 
  63846.8146     0.26762E-01 
  63879.0768     0.27882E-01 
  63911.3390     0.29038E-01 
  63943.6011     0.30231E-01 
  63975.8633     0.31460E-01 
  64008.1254     0.32727E-01 
  64040.3876     0.34032E-01 
  64072.6498     0.35376E-01 
  64104.9119     0.36760E-01 
  64137.1741     0.38183E-01 
  64169.4362     0.39646E-01 
  64201.6984     0.41151E-01 
  64233.9606     0.42698E-01 
  64266.2227     0.44287E-01 
  64298.4849     0.45920E-01 
  64330.7470     0.47596E-01 
  64363.0092     0.49316E-01 
  64395.2714     0.51082E-01 
  64427.5335     0.52894E-01 
  64459.7957     0.54752E-01 
  64492.0578     0.56658E-01 
  64524.3200     0.58612E-01 
  64556.5822     0.60614E-01 
  64588.8443     0.62667E-01 
  64621.1065     0.64770E-01 
  64653.3686     0.66924E-01 
  64685.6308     0.69130E-01 
  64717.8930     0.71389E-01 
  64750.1551     0.73702E-01 
  64782.4173     0.76069E-01 
  64814.6794     0.78492E-01 
  64846.9416     0.80971E-01 
  64879.2038     0.83508E-01 
  64911.4659     0.86103E-01 
  64943.7281     0.88757E-01 
  64975.9902     0.91471E-01 
  65008.2524     0.94247E-01 
  65040.5146     0.97084E-01 
  65072.7767     0.99985E-01 
  65105.0389     0.10295E+00 
  65137.3010     0.10598E+00 
  65169.5632     0.10908E+00 
  65201.8254     0.11224E+00 
  65234.0875     0.11547E+00 
  65266.3497     0.11877E+00 
  65298.6118     0.12214E+00 
  65330.8740     0.12559E+00 
  65363.1362     0.12910E+00 
  65395.3983     0.13269E+00 
  65427.6605     0.13636E+00 
  65459.9226     0.14010E+00 
  65492.1848     0.14392E+00 
  65524.4470     0.14782E+00 
  65556.7091     0.15180E+00 
  65588.9713     0.15586E+00 
  65621.2334     0.16000E+00 
  65653.4956     0.16423E+00 
  65685.7578     0.16854E+00 
  65718.0199     0.17294E+00 
  65750.2821     0.17743E+00 
  65782.5442     0.18201E+00 
  65814.8064     0.18668E+00 
  65847.0686     0.19144E+00 
  65879.3307     0.19630E+00 
  65911.5929     0.20125E+00 
  65943.8550     0.20630E+00 
  65976.1172     0.21144E+00 
  66008.3794     0.21669E+00 
  66040.6415     0.22204E+00 
  66072.9037     0.22749E+00 
  66105.1658     0.23305E+00 
  66137.4280     0.23872E+00 
  66169.6902     0.24449E+00 
  66201.9523     0.25037E+00 
  66234.2145     0.25636E+00 
  66266.4766     0.26247E+00 
  66298.7388     0.26870E+00 
  66331.0010     0.27504E+00 
  66363.2631     0.28149E+00 
  66395.5253     0.28807E+00 
  66427.7874     0.29478E+00 
  66460.0496     0.30160E+00 
  66492.3118     0.30856E+00 
  66524.5739     0.31564E+00 
  66556.8361     0.32285E+00 
  66589.0982     0.33019E+00 
  66621.3604     0.33767E+00 
  66653.6226     0.34529E+00 
  66685.8847     0.35304E+00 
  66718.1469     0.36093E+00 
  66750.4090     0.36897E+00 
  66782.6712     0.37715E+00 
  66814.9334     0.38547E+00 
  66847.1955     0.39395E+00 
  66879.4577     0.40258E+00 
  66911.7198     0.41136E+00 
  66943.9820     0.42029E+00 
  66976.2442     0.42939E+00 
  67008.5063     0.43864E+00 
  67040.7685     0.44806E+00 
  67073.0306     0.45764E+00 
  67105.2928     0.46739E+00 
  67137.5550     0.47731E+00 
  67169.8171     0.48741E+00 
  67202.0793     0.49767E+00 
  67234.3414     0.50812E+00 
  67266.6036     0.51874E+00 
  67298.8658     0.52955E+00 
  67331.1279     0.54054E+00 
  67363.3901     0.55172E+00 
  67395.6522     0.56309E+00 
  67427.9144     0.57465E+00 
  67460.1766     0.58641E+00 
  67492.4387     0.59837E+00 
  67524.7009     0.61053E+00 
  67556.9630     0.62289E+00 
  67589.2252     0.63546E+00 
  67621.4874     0.64824E+00 
  67653.7495     0.66123E+00 
  67686.0117     0.67443E+00 
  67718.2738     0.68786E+00 
  67750.5360     0.70150E+00 
  67782.7982     0.71537E+00 
  67815.0603     0.72947E+00 
  67847.3225     0.74380E+00 
  67879.5846     0.75836E+00 
  67911.8468     0.77315E+00 
  67944.1090     0.78819E+00 
  67976.3711     0.80347E+00 
  68008.6333     0.81899E+00 
  68040.8954     0.83476E+00 
  68073.1576     0.85079E+00 
  68105.4198     0.86707E+00 
  68137.6819     0.88361E+00 
  68169.9441     0.90041E+00 
  68202.2062     0.91747E+00 
  68234.4684     0.93481E+00 
  68266.7306     0.95241E+00 
  68298.9927     0.97030E+00 
  68331.2549     0.98846E+00 
  68363.5170     0.10069E+01 
  68395.7792     0.10256E+01 
  68428.0414     0.10446E+01 
  68460.3035     0.10640E+01 
  68492.5657     0.10836E+01 
  68524.8278     0.11035E+01 
  68557.0900     0.11237E+01 
  68589.3522     0.11442E+01 
  68621.6143     0.11650E+01 
  68653.8765     0.11862E+01 
  68686.1386     0.12076E+01 
  68718.4008     0.12294E+01 
  68750.6630     0.12515E+01 
  68782.9251     0.12740E+01 
  68815.1873     0.12967E+01 
  68847.4494     0.13198E+01 
  68879.7116     0.13433E+01 
  68911.9738     0.13671E+01 
  68944.2359     0.13912E+01 
  68976.4981     0.14157E+01 
  69008.7602     0.14406E+01 
  69041.0224     0.14658E+01 
  69073.2846     0.14913E+01 
  69105.5467     0.15173E+01 
  69137.8089     0.15436E+01 
  69170.0710     0.15703E+01 
  69202.3332     0.15973E+01 
  69234.5954     0.16248E+01 
  69266.8575     0.16526E+01 
  69299.1197     0.16809E+01 
  69331.3818     0.17095E+01 
  69363.6440     0.17385E+01 
  69395.9062     0.17680E+01 
  69428.1683     0.17978E+01 
  69460.4305     0.18281E+01 
  69492.6926     0.18587E+01 
  69524.9548     0.18898E+01 
  69557.2170     0.19213E+01 
  69589.4791     0.19533E+01 
  69621.7413     0.19857E+01 
  69654.0034     0.20185E+01 
  69686.2656     0.20517E+01 
  69718.5278     0.20854E+01 
  69750.7899     0.21196E+01 
  69783.0521     0.21542E+01 
  69815.3142     0.21893E+01 
  69847.5764     0.22248E+01 
  69879.8386     0.22608E+01 
  69912.1007     0.22973E+01 
  69944.3629     0.23342E+01 
  69976.6250     0.23717E+01 
  70008.8872     0.24096E+01 
  70041.1494     0.24480E+01 
  70073.4115     0.24869E+01 
  70105.6737     0.25263E+01 
  70137.9358     0.25661E+01 
  70170.1980     0.26065E+01 
  70202.4602     0.26474E+01 
  70234.7223     0.26889E+01 
  70266.9845     0.27308E+01 
  70299.2466     0.27733E+01 
  70331.5088     0.28163E+01 
  70363.7710     0.28598E+01 
  70396.0331     0.29038E+01 
  70428.2953     0.29484E+01 
  70460.5574     0.29936E+01 
  70492.8196     0.30393E+01 
  70525.0818     0.30855E+01 
  70557.3439     0.31323E+01 
  70589.6061     0.31797E+01 
  70621.8682     0.32276E+01 
  70654.1304     0.32761E+01 
  70686.3926     0.33251E+01 
  70718.6547     0.33748E+01 
  70750.9169     0.34250E+01 
  70783.1790     0.34758E+01 
  70815.4412     0.35272E+01 
  70847.7034     0.35792E+01 
  70879.9655     0.36318E+01 
  70912.2277     0.36850E+01 
  70944.4898     0.37388E+01 
  70976.7520     0.37932E+01 
  71009.0142     0.38482E+01 
  71041.2763     0.39039E+01 
  71073.5385     0.39601E+01 
  71105.8006     0.40170E+01 
  71138.0628     0.40745E+01 
  71170.3250     0.41327E+01 
  71202.5871     0.41914E+01 
  71234.8493     0.42509E+01 
  71267.1114     0.43109E+01 
  71299.3736     0.43717E+01 
  71331.6358     0.44330E+01 
  71363.8979     0.44950E+01 
  71396.1601     0.45577E+01 
  71428.4222     0.46211E+01 
  71460.6844     0.46851E+01 
  71492.9466     0.47498E+01 
  71525.2087     0.48151E+01 
  71557.4709     0.48811E+01 
  71589.7330     0.49479E+01 
  71621.9952     0.50152E+01 
  71654.2574     0.50833E+01 
  71686.5195     0.51521E+01 
  71718.7817     0.52215E+01 
  71751.0438     0.52917E+01 
  71783.3060     0.53625E+01 
  71815.5682     0.54341E+01 
  71847.8303     0.55064E+01 
  71880.0925     0.55793E+01 
  71912.3546     0.56530E+01 
  71944.6168     0.57274E+01 
  71976.8790     0.58025E+01 
  72009.1411     0.58783E+01 
  72041.4033     0.59549E+01 
  72073.6654     0.60321E+01 
  72105.9276     0.61101E+01 
  72138.1898     0.61888E+01 
  72170.4519     0.62683E+01 
  72202.7141     0.63485E+01 
  72234.9762     0.64294E+01 
  72267.2384     0.65111E+01 
  72299.5006     0.65935E+01 
  72331.7627     0.66766E+01 
  72364.0249     0.67605E+01 
  72396.2870     0.68451E+01 
  72428.5492     0.69305E+01 
  72460.8114     0.70166E+01 
  72493.0735     0.71035E+01 
  72525.3357     0.71911E+01 
  72557.5978     0.72795E+01 
  72589.8600     0.73687E+01 
