  32262.1600     0.10216E+01 
  32294.4222     0.10334E+01 
  32326.6843     0.10453E+01 
  32358.9465     0.10573E+01 
  32391.2086     0.10693E+01 
  32423.4708     0.10815E+01 
  32455.7330     0.10938E+01 
  32487.9951     0.11061E+01 
  32520.2573     0.11185E+01 
  32552.5194     0.11311E+01 
  32584.7816     0.11437E+01 
  32617.0438     0.11564E+01 
  32649.3059     0.11692E+01 
  32681.5681     0.11822E+01 
  32713.8302     0.11952E+01 
  32746.0924     0.12083E+01 
  32778.3546     0.12214E+01 
  32810.6167     0.12347E+01 
  32842.8789     0.12481E+01 
  32875.1410     0.12616E+01 
  32907.4032     0.12752E+01 
  32939.6654     0.12888E+01 
  32971.9275     0.13026E+01 
  33004.1897     0.13164E+01 
  33036.4518     0.13304E+01 
  33068.7140     0.13444E+01 
  33100.9762     0.13585E+01 
  33133.2383     0.13727E+01 
  33165.5005     0.13871E+01 
  33197.7626     0.14015E+01 
  33230.0248     0.14160E+01 
  33262.2870     0.14306E+01 
  33294.5491     0.14452E+01 
  33326.8113     0.14600E+01 
  33359.0734     0.14749E+01 
  33391.3356     0.14899E+01 
  33423.5978     0.15049E+01 
  33455.8599     0.15201E+01 
  33488.1221     0.15353E+01 
  33520.3842     0.15506E+01 
  33552.6464     0.15660E+01 
  33584.9086     0.15815E+01 
  33617.1707     0.15972E+01 
  33649.4329     0.16128E+01 
  33681.6950     0.16286E+01 
  33713.9572     0.16445E+01 
  33746.2194     0.16605E+01 
  33778.4815     0.16765E+01 
  33810.7437     0.16926E+01 
  33843.0058     0.17089E+01 
  33875.2680     0.17252E+01 
  33907.5302     0.17416E+01 
  33939.7923     0.17581E+01 
  33972.0545     0.17746E+01 
  34004.3166     0.17913E+01 
  34036.5788     0.18080E+01 
  34068.8410     0.18249E+01 
  34101.1031     0.18418E+01 
  34133.3653     0.18588E+01 
  34165.6274     0.18759E+01 
  34197.8896     0.18930E+01 
  34230.1518     0.19103E+01 
  34262.4139     0.19276E+01 
  34294.6761     0.19450E+01 
  34326.9382     0.19625E+01 
  34359.2004     0.19801E+01 
  34391.4626     0.19978E+01 
  34423.7247     0.20155E+01 
  34455.9869     0.20333E+01 
  34488.2490     0.20512E+01 
  34520.5112     0.20692E+01 
  34552.7734     0.20873E+01 
  34585.0355     0.21054E+01 
  34617.2977     0.21236E+01 
  34649.5598     0.21419E+01 
  34681.8220     0.21602E+01 
  34714.0842     0.21787E+01 
  34746.3463     0.21972E+01 
  34778.6085     0.22157E+01 
  34810.8706     0.22344E+01 
  34843.1328     0.22531E+01 
  34875.3950     0.22719E+01 
  34907.6571     0.22907E+01 
  34939.9193     0.23097E+01 
  34972.1814     0.23287E+01 
  35004.4436     0.23477E+01 
  35036.7058     0.23669E+01 
  35068.9679     0.23861E+01 
  35101.2301     0.24053E+01 
  35133.4922     0.24247E+01 
  35165.7544     0.24440E+01 
  35198.0166     0.24635E+01 
  35230.2787     0.24830E+01 
  35262.5409     0.25026E+01 
  35294.8030     0.25222E+01 
  35327.0652     0.25419E+01 
  35359.3274     0.25617E+01 
  35391.5895     0.25815E+01 
  35423.8517     0.26013E+01 
  35456.1138     0.26213E+01 
  35488.3760     0.26412E+01 
  35520.6382     0.26613E+01 
  35552.9003     0.26814E+01 
  35585.1625     0.27015E+01 
  35617.4246     0.27217E+01 
  35649.6868     0.27419E+01 
  35681.9490     0.27622E+01 
  35714.2111     0.27825E+01 
  35746.4733     0.28029E+01 
  35778.7354     0.28233E+01 
  35810.9976     0.28438E+01 
  35843.2598     0.28643E+01 
  35875.5219     0.28849E+01 
  35907.7841     0.29055E+01 
  35940.0462     0.29261E+01 
  35972.3084     0.29468E+01 
  36004.5706     0.29675E+01 
  36036.8327     0.29882E+01 
  36069.0949     0.30090E+01 
  36101.3570     0.30298E+01 
  36133.6192     0.30507E+01 
  36165.8814     0.30716E+01 
  36198.1435     0.30925E+01 
  36230.4057     0.31134E+01 
  36262.6678     0.31344E+01 
  36294.9300     0.31554E+01 
  36327.1922     0.31764E+01 
  36359.4543     0.31975E+01 
  36391.7165     0.32186E+01 
  36423.9786     0.32397E+01 
  36456.2408     0.32608E+01 
  36488.5030     0.32819E+01 
  36520.7651     0.33031E+01 
  36553.0273     0.33243E+01 
  36585.2894     0.33455E+01 
  36617.5516     0.33667E+01 
  36649.8138     0.33879E+01 
  36682.0759     0.34091E+01 
  36714.3381     0.34304E+01 
  36746.6002     0.34517E+01 
  36778.8624     0.34729E+01 
  36811.1246     0.34942E+01 
  36843.3867     0.35155E+01 
  36875.6489     0.35368E+01 
  36907.9110     0.35581E+01 
  36940.1732     0.35794E+01 
  36972.4354     0.36006E+01 
  37004.6975     0.36219E+01 
  37036.9597     0.36432E+01 
  37069.2218     0.36645E+01 
  37101.4840     0.36858E+01 
  37133.7462     0.37071E+01 
  37166.0083     0.37284E+01 
  37198.2705     0.37496E+01 
  37230.5326     0.37709E+01 
  37262.7948     0.37921E+01 
  37295.0570     0.38134E+01 
  37327.3191     0.38346E+01 
  37359.5813     0.38558E+01 
  37391.8434     0.38770E+01 
  37424.1056     0.38981E+01 
  37456.3678     0.39193E+01 
  37488.6299     0.39404E+01 
  37520.8921     0.39615E+01 
  37553.1542     0.39826E+01 
  37585.4164     0.40036E+01 
  37617.6786     0.40247E+01 
  37649.9407     0.40457E+01 
  37682.2029     0.40666E+01 
  37714.4650     0.40876E+01 
  37746.7272     0.41085E+01 
  37778.9894     0.41294E+01 
  37811.2515     0.41502E+01 
  37843.5137     0.41710E+01 
  37875.7758     0.41918E+01 
  37908.0380     0.42125E+01 
  37940.3002     0.42332E+01 
  37972.5623     0.42539E+01 
  38004.8245     0.42745E+01 
  38037.0866     0.42950E+01 
  38069.3488     0.43155E+01 
  38101.6110     0.43360E+01 
  38133.8731     0.43564E+01 
  38166.1353     0.43768E+01 
  38198.3974     0.43971E+01 
  38230.6596     0.44173E+01 
  38262.9218     0.44375E+01 
  38295.1839     0.44577E+01 
  38327.4461     0.44778E+01 
  38359.7082     0.44978E+01 
  38391.9704     0.45178E+01 
  38424.2326     0.45377E+01 
  38456.4947     0.45576E+01 
  38488.7569     0.45773E+01 
  38521.0190     0.45971E+01 
  38553.2812     0.46167E+01 
  38585.5434     0.46363E+01 
  38617.8055     0.46558E+01 
  38650.0677     0.46752E+01 
  38682.3298     0.46946E+01 
  38714.5920     0.47139E+01 
  38746.8542     0.47331E+01 
  38779.1163     0.47523E+01 
  38811.3785     0.47713E+01 
  38843.6406     0.47903E+01 
  38875.9028     0.48092E+01 
  38908.1650     0.48280E+01 
  38940.4271     0.48468E+01 
  38972.6893     0.48654E+01 
  39004.9514     0.48840E+01 
  39037.2136     0.49025E+01 
  39069.4758     0.49209E+01 
  39101.7379     0.49392E+01 
  39134.0001     0.49574E+01 
  39166.2622     0.49755E+01 
  39198.5244     0.49935E+01 
  39230.7866     0.50115E+01 
  39263.0487     0.50293E+01 
  39295.3109     0.50470E+01 
  39327.5730     0.50647E+01 
  39359.8352     0.50822E+01 
  39392.0974     0.50996E+01 
  39424.3595     0.51170E+01 
  39456.6217     0.51342E+01 
  39488.8838     0.51513E+01 
  39521.1460     0.51683E+01 
  39553.4082     0.51852E+01 
  39585.6703     0.52020E+01 
  39617.9325     0.52187E+01 
  39650.1946     0.52353E+01 
  39682.4568     0.52518E+01 
  39714.7190     0.52681E+01 
  39746.9811     0.52844E+01 
  39779.2433     0.53005E+01 
  39811.5054     0.53165E+01 
  39843.7676     0.53324E+01 
  39876.0298     0.53481E+01 
  39908.2919     0.53638E+01 
  39940.5541     0.53793E+01 
  39972.8162     0.53947E+01 
  40005.0784     0.54100E+01 
  40037.3406     0.54252E+01 
  40069.6027     0.54402E+01 
  40101.8649     0.54551E+01 
  40134.1270     0.54699E+01 
  40166.3892     0.54845E+01 
  40198.6514     0.54990E+01 
  40230.9135     0.55134E+01 
  40263.1757     0.55277E+01 
  40295.4378     0.55418E+01 
  40327.7000     0.55558E+01 
  40359.9622     0.55696E+01 
  40392.2243     0.55834E+01 
  40424.4865     0.55969E+01 
  40456.7486     0.56104E+01 
  40489.0108     0.56237E+01 
  40521.2730     0.56368E+01 
  40553.5351     0.56499E+01 
  40585.7973     0.56628E+01 
  40618.0594     0.56755E+01 
  40650.3216     0.56881E+01 
  40682.5838     0.57006E+01 
  40714.8459     0.57129E+01 
  40747.1081     0.57250E+01 
  40779.3702     0.57371E+01 
  40811.6324     0.57489E+01 
  40843.8946     0.57607E+01 
  40876.1567     0.57722E+01 
  40908.4189     0.57837E+01 
  40940.6810     0.57949E+01 
  40972.9432     0.58061E+01 
  41005.2054     0.58171E+01 
  41037.4675     0.58279E+01 
  41069.7297     0.58386E+01 
  41101.9918     0.58491E+01 
  41134.2540     0.58594E+01 
  41166.5162     0.58696E+01 
  41198.7783     0.58797E+01 
  41231.0405     0.58896E+01 
  41263.3026     0.58993E+01 
  41295.5648     0.59089E+01 
  41327.8270     0.59184E+01 
  41360.0891     0.59276E+01 
  41392.3513     0.59367E+01 
  41424.6134     0.59457E+01 
  41456.8756     0.59545E+01 
  41489.1378     0.59631E+01 
  41521.3999     0.59716E+01 
  41553.6621     0.59799E+01 
  41585.9242     0.59881E+01 
  41618.1864     0.59960E+01 
  41650.4486     0.60039E+01 
  41682.7107     0.60115E+01 
  41714.9729     0.60190E+01 
  41747.2350     0.60264E+01 
  41779.4972     0.60335E+01 
  41811.7594     0.60405E+01 
  41844.0215     0.60474E+01 
  41876.2837     0.60540E+01 
  41908.5458     0.60606E+01 
  41940.8080     0.60669E+01 
  41973.0702     0.60731E+01 
  42005.3323     0.60791E+01 
  42037.5945     0.60849E+01 
  42069.8566     0.60906E+01 
  42102.1188     0.60961E+01 
  42134.3810     0.61015E+01 
  42166.6431     0.61066E+01 
  42198.9053     0.61117E+01 
  42231.1674     0.61165E+01 
  42263.4296     0.61212E+01 
  42295.6918     0.61257E+01 
  42327.9539     0.61300E+01 
  42360.2161     0.61342E+01 
  42392.4782     0.61382E+01 
  42424.7404     0.61420E+01 
  42457.0026     0.61457E+01 
  42489.2647     0.61491E+01 
  42521.5269     0.61525E+01 
  42553.7890     0.61556E+01 
  42586.0512     0.61586E+01 
  42618.3134     0.61614E+01 
  42650.5755     0.61641E+01 
  42682.8377     0.61665E+01 
  42715.0998     0.61689E+01 
  42747.3620     0.61710E+01 
  42779.6242     0.61730E+01 
  42811.8863     0.61748E+01 
  42844.1485     0.61764E+01 
  42876.4106     0.61779E+01 
  42908.6728     0.61792E+01 
  42940.9350     0.61803E+01 
  42973.1971     0.61812E+01 
  43005.4593     0.61820E+01 
  43037.7214     0.61827E+01 
  43069.9836     0.61831E+01 
  43102.2458     0.61834E+01 
  43134.5079     0.61835E+01 
  43166.7701     0.61835E+01 
  43199.0322     0.61833E+01 
  43231.2944     0.61829E+01 
  43263.5566     0.61823E+01 
  43295.8187     0.61816E+01 
  43328.0809     0.61808E+01 
  43360.3430     0.61797E+01 
  43392.6052     0.61785E+01 
  43424.8674     0.61771E+01 
  43457.1295     0.61756E+01 
  43489.3917     0.61739E+01 
  43521.6538     0.61720E+01 
  43553.9160     0.61700E+01 
  43586.1782     0.61678E+01 
  43618.4403     0.61655E+01 
  43650.7025     0.61629E+01 
  43682.9646     0.61603E+01 
  43715.2268     0.61574E+01 
  43747.4890     0.61544E+01 
  43779.7511     0.61513E+01 
  43812.0133     0.61480E+01 
  43844.2754     0.61445E+01 
  43876.5376     0.61408E+01 
  43908.7998     0.61370E+01 
  43941.0619     0.61331E+01 
  43973.3241     0.61290E+01 
  44005.5862     0.61247E+01 
  44037.8484     0.61203E+01 
  44070.1106     0.61157E+01 
  44102.3727     0.61110E+01 
  44134.6349     0.61061E+01 
  44166.8970     0.61010E+01 
  44199.1592     0.60958E+01 
  44231.4214     0.60905E+01 
  44263.6835     0.60850E+01 
  44295.9457     0.60793E+01 
  44328.2078     0.60735E+01 
  44360.4700     0.60676E+01 
  44392.7322     0.60615E+01 
  44424.9943     0.60552E+01 
  44457.2565     0.60488E+01 
  44489.5186     0.60423E+01 
  44521.7808     0.60356E+01 
  44554.0430     0.60287E+01 
  44586.3051     0.60217E+01 
  44618.5673     0.60146E+01 
  44650.8294     0.60073E+01 
  44683.0916     0.59999E+01 
  44715.3538     0.59923E+01 
  44747.6159     0.59846E+01 
  44779.8781     0.59768E+01 
  44812.1402     0.59688E+01 
  44844.4024     0.59607E+01 
  44876.6646     0.59524E+01 
  44908.9267     0.59440E+01 
  44941.1889     0.59355E+01 
  44973.4510     0.59268E+01 
  45005.7132     0.59180E+01 
  45037.9754     0.59091E+01 
  45070.2375     0.59000E+01 
  45102.4997     0.58908E+01 
  45134.7618     0.58814E+01 
  45167.0240     0.58720E+01 
  45199.2862     0.58623E+01 
  45231.5483     0.58526E+01 
  45263.8105     0.58428E+01 
  45296.0726     0.58328E+01 
  45328.3348     0.58227E+01 
  45360.5970     0.58124E+01 
  45392.8591     0.58021E+01 
  45425.1213     0.57916E+01 
  45457.3834     0.57810E+01 
  45489.6456     0.57702E+01 
  45521.9078     0.57594E+01 
  45554.1699     0.57484E+01 
  45586.4321     0.57373E+01 
  45618.6942     0.57261E+01 
  45650.9564     0.57148E+01 
  45683.2186     0.57033E+01 
  45715.4807     0.56917E+01 
  45747.7429     0.56801E+01 
  45780.0050     0.56683E+01 
  45812.2672     0.56564E+01 
  45844.5294     0.56444E+01 
  45876.7915     0.56322E+01 
  45909.0537     0.56200E+01 
  45941.3158     0.56077E+01 
  45973.5780     0.55952E+01 
  46005.8402     0.55827E+01 
  46038.1023     0.55700E+01 
  46070.3645     0.55572E+01 
  46102.6266     0.55444E+01 
  46134.8888     0.55314E+01 
  46167.1510     0.55183E+01 
  46199.4131     0.55051E+01 
  46231.6753     0.54919E+01 
  46263.9374     0.54785E+01 
  46296.1996     0.54650E+01 
  46328.4618     0.54515E+01 
  46360.7239     0.54378E+01 
  46392.9861     0.54240E+01 
  46425.2482     0.54102E+01 
  46457.5104     0.53963E+01 
  46489.7726     0.53822E+01 
  46522.0347     0.53681E+01 
  46554.2969     0.53539E+01 
  46586.5590     0.53396E+01 
  46618.8212     0.53252E+01 
  46651.0834     0.53107E+01 
  46683.3455     0.52962E+01 
  46715.6077     0.52815E+01 
  46747.8698     0.52668E+01 
  46780.1320     0.52520E+01 
  46812.3942     0.52371E+01 
  46844.6563     0.52222E+01 
  46876.9185     0.52071E+01 
  46909.1806     0.51920E+01 
  46941.4428     0.51768E+01 
  46973.7050     0.51615E+01 
  47005.9671     0.51462E+01 
  47038.2293     0.51308E+01 
  47070.4914     0.51153E+01 
  47102.7536     0.50997E+01 
  47135.0158     0.50841E+01 
  47167.2779     0.50684E+01 
  47199.5401     0.50526E+01 
  47231.8022     0.50368E+01 
  47264.0644     0.50209E+01 
  47296.3266     0.50049E+01 
  47328.5887     0.49889E+01 
  47360.8509     0.49728E+01 
  47393.1130     0.49566E+01 
  47425.3752     0.49404E+01 
  47457.6374     0.49241E+01 
  47489.8995     0.49078E+01 
  47522.1617     0.48914E+01 
  47554.4238     0.48750E+01 
  47586.6860     0.48585E+01 
  47618.9482     0.48419E+01 
  47651.2103     0.48253E+01 
  47683.4725     0.48086E+01 
  47715.7346     0.47919E+01 
  47747.9968     0.47751E+01 
  47780.2590     0.47583E+01 
  47812.5211     0.47415E+01 
  47844.7833     0.47246E+01 
  47877.0454     0.47076E+01 
  47909.3076     0.46906E+01 
  47941.5698     0.46736E+01 
  47973.8319     0.46565E+01 
  48006.0941     0.46394E+01 
  48038.3562     0.46222E+01 
  48070.6184     0.46050E+01 
  48102.8806     0.45877E+01 
  48135.1427     0.45705E+01 
  48167.4049     0.45531E+01 
  48199.6670     0.45358E+01 
  48231.9292     0.45184E+01 
  48264.1914     0.45010E+01 
  48296.4535     0.44835E+01 
  48328.7157     0.44660E+01 
  48360.9778     0.44485E+01 
  48393.2400     0.44309E+01 
  48425.5022     0.44134E+01 
  48457.7643     0.43957E+01 
  48490.0265     0.43781E+01 
  48522.2886     0.43604E+01 
  48554.5508     0.43428E+01 
  48586.8130     0.43250E+01 
  48619.0751     0.43073E+01 
  48651.3373     0.42896E+01 
  48683.5994     0.42718E+01 
  48715.8616     0.42540E+01 
  48748.1238     0.42362E+01 
  48780.3859     0.42183E+01 
  48812.6481     0.42005E+01 
  48844.9102     0.41826E+01 
  48877.1724     0.41647E+01 
  48909.4346     0.41468E+01 
  48941.6967     0.41289E+01 
  48973.9589     0.41110E+01 
  49006.2210     0.40930E+01 
  49038.4832     0.40751E+01 
  49070.7454     0.40571E+01 
  49103.0075     0.40392E+01 
  49135.2697     0.40212E+01 
  49167.5318     0.40032E+01 
  49199.7940     0.39852E+01 
  49232.0562     0.39672E+01 
  49264.3183     0.39492E+01 
  49296.5805     0.39312E+01 
  49328.8426     0.39132E+01 
  49361.1048     0.38951E+01 
  49393.3670     0.38771E+01 
  49425.6291     0.38591E+01 
  49457.8913     0.38411E+01 
  49490.1534     0.38231E+01 
  49522.4156     0.38050E+01 
  49554.6778     0.37870E+01 
  49586.9399     0.37690E+01 
  49619.2021     0.37510E+01 
  49651.4642     0.37330E+01 
  49683.7264     0.37150E+01 
  49715.9886     0.36970E+01 
  49748.2507     0.36790E+01 
  49780.5129     0.36611E+01 
  49812.7750     0.36431E+01 
  49845.0372     0.36251E+01 
  49877.2994     0.36072E+01 
  49909.5615     0.35892E+01 
  49941.8237     0.35713E+01 
  49974.0858     0.35534E+01 
  50006.3480     0.35355E+01 
  50038.6102     0.35176E+01 
  50070.8723     0.34997E+01 
  50103.1345     0.34819E+01 
  50135.3966     0.34640E+01 
  50167.6588     0.34462E+01 
  50199.9210     0.34284E+01 
  50232.1831     0.34106E+01 
  50264.4453     0.33928E+01 
  50296.7074     0.33751E+01 
  50328.9696     0.33574E+01 
  50361.2318     0.33396E+01 
  50393.4939     0.33219E+01 
  50425.7561     0.33043E+01 
  50458.0182     0.32866E+01 
  50490.2804     0.32690E+01 
  50522.5426     0.32514E+01 
  50554.8047     0.32338E+01 
  50587.0669     0.32163E+01 
  50619.3290     0.31988E+01 
  50651.5912     0.31813E+01 
  50683.8534     0.31638E+01 
  50716.1155     0.31463E+01 
  50748.3777     0.31289E+01 
  50780.6398     0.31115E+01 
  50812.9020     0.30942E+01 
  50845.1642     0.30768E+01 
  50877.4263     0.30595E+01 
  50909.6885     0.30423E+01 
  50941.9506     0.30250E+01 
  50974.2128     0.30078E+01 
  51006.4750     0.29906E+01 
  51038.7371     0.29735E+01 
  51070.9993     0.29564E+01 
  51103.2614     0.29393E+01 
  51135.5236     0.29223E+01 
  51167.7858     0.29053E+01 
  51200.0479     0.28883E+01 
  51232.3101     0.28714E+01 
  51264.5722     0.28545E+01 
  51296.8344     0.28376E+01 
  51329.0966     0.28208E+01 
  51361.3587     0.28040E+01 
  51393.6209     0.27873E+01 
  51425.8830     0.27706E+01 
  51458.1452     0.27539E+01 
  51490.4074     0.27373E+01 
  51522.6695     0.27207E+01 
  51554.9317     0.27041E+01 
  51587.1938     0.26876E+01 
  51619.4560     0.26712E+01 
  51651.7182     0.26547E+01 
  51683.9803     0.26384E+01 
  51716.2425     0.26220E+01 
  51748.5046     0.26057E+01 
  51780.7668     0.25895E+01 
  51813.0290     0.25733E+01 
  51845.2911     0.25571E+01 
  51877.5533     0.25410E+01 
  51909.8154     0.25249E+01 
  51942.0776     0.25089E+01 
  51974.3398     0.24929E+01 
  52006.6019     0.24770E+01 
  52038.8641     0.24611E+01 
  52071.1262     0.24452E+01 
  52103.3884     0.24294E+01 
  52135.6506     0.24137E+01 
  52167.9127     0.23980E+01 
  52200.1749     0.23823E+01 
  52232.4370     0.23667E+01 
  52264.6992     0.23512E+01 
  52296.9614     0.23357E+01 
  52329.2235     0.23202E+01 
  52361.4857     0.23048E+01 
  52393.7478     0.22894E+01 
  52426.0100     0.22741E+01 
  52458.2722     0.22589E+01 
  52490.5343     0.22436E+01 
  52522.7965     0.22285E+01 
  52555.0586     0.22134E+01 
  52587.3208     0.21983E+01 
  52619.5830     0.21833E+01 
  52651.8451     0.21684E+01 
  52684.1073     0.21535E+01 
  52716.3694     0.21386E+01 
  52748.6316     0.21238E+01 
  52780.8938     0.21091E+01 
  52813.1559     0.20944E+01 
  52845.4181     0.20797E+01 
  52877.6802     0.20651E+01 
  52909.9424     0.20506E+01 
  52942.2046     0.20361E+01 
  52974.4667     0.20217E+01 
  53006.7289     0.20073E+01 
  53038.9910     0.19930E+01 
  53071.2532     0.19788E+01 
  53103.5154     0.19645E+01 
  53135.7775     0.19504E+01 
  53168.0397     0.19363E+01 
  53200.3018     0.19222E+01 
  53232.5640     0.19083E+01 
  53264.8262     0.18943E+01 
  53297.0883     0.18804E+01 
  53329.3505     0.18666E+01 
  53361.6126     0.18529E+01 
  53393.8748     0.18391E+01 
  53426.1370     0.18255E+01 
  53458.3991     0.18119E+01 
  53490.6613     0.17983E+01 
  53522.9234     0.17849E+01 
  53555.1856     0.17714E+01 
  53587.4478     0.17581E+01 
  53619.7099     0.17447E+01 
  53651.9721     0.17315E+01 
  53684.2342     0.17183E+01 
  53716.4964     0.17051E+01 
  53748.7586     0.16920E+01 
  53781.0207     0.16790E+01 
  53813.2829     0.16660E+01 
  53845.5450     0.16531E+01 
  53877.8072     0.16402E+01 
  53910.0694     0.16274E+01 
  53942.3315     0.16147E+01 
  53974.5937     0.16020E+01 
  54006.8558     0.15894E+01 
  54039.1180     0.15768E+01 
  54071.3802     0.15643E+01 
  54103.6423     0.15518E+01 
  54135.9045     0.15394E+01 
  54168.1666     0.15271E+01 
  54200.4288     0.15148E+01 
  54232.6910     0.15025E+01 
  54264.9531     0.14904E+01 
  54297.2153     0.14782E+01 
  54329.4774     0.14662E+01 
  54361.7396     0.14542E+01 
  54394.0018     0.14422E+01 
  54426.2639     0.14303E+01 
  54458.5261     0.14185E+01 
  54490.7882     0.14067E+01 
  54523.0504     0.13950E+01 
  54555.3126     0.13834E+01 
  54587.5747     0.13718E+01 
  54619.8369     0.13602E+01 
  54652.0990     0.13487E+01 
  54684.3612     0.13373E+01 
  54716.6234     0.13260E+01 
  54748.8855     0.13146E+01 
  54781.1477     0.13034E+01 
  54813.4098     0.12922E+01 
  54845.6720     0.12810E+01 
  54877.9342     0.12700E+01 
  54910.1963     0.12589E+01 
  54942.4585     0.12480E+01 
  54974.7206     0.12371E+01 
  55006.9828     0.12262E+01 
  55039.2450     0.12154E+01 
  55071.5071     0.12047E+01 
  55103.7693     0.11940E+01 
  55136.0314     0.11833E+01 
  55168.2936     0.11728E+01 
  55200.5558     0.11623E+01 
  55232.8179     0.11518E+01 
  55265.0801     0.11414E+01 
  55297.3422     0.11311E+01 
  55329.6044     0.11208E+01 
  55361.8666     0.11105E+01 
  55394.1287     0.11004E+01 
  55426.3909     0.10902E+01 
  55458.6530     0.10802E+01 
  55490.9152     0.10702E+01 
  55523.1774     0.10602E+01 
  55555.4395     0.10503E+01 
  55587.7017     0.10405E+01 
  55619.9638     0.10307E+01 
  55652.2260     0.10210E+01 
  55684.4882     0.10113E+01 
  55716.7503     0.10017E+01 
  55749.0125     0.99209E+00 
  55781.2746     0.98258E+00 
  55813.5368     0.97312E+00 
  55845.7990     0.96372E+00 
  55878.0611     0.95437E+00 
  55910.3233     0.94508E+00 
  55942.5854     0.93584E+00 
  55974.8476     0.92666E+00 
  56007.1098     0.91753E+00 
  56039.3719     0.90845E+00 
  56071.6341     0.89943E+00 
  56103.8962     0.89047E+00 
  56136.1584     0.88155E+00 
  56168.4206     0.87269E+00 
  56200.6827     0.86388E+00 
  56232.9449     0.85513E+00 
  56265.2070     0.84643E+00 
  56297.4692     0.83778E+00 
  56329.7314     0.82918E+00 
  56361.9935     0.82064E+00 
  56394.2557     0.81215E+00 
  56426.5178     0.80372E+00 
  56458.7800     0.79533E+00 
  56491.0422     0.78700E+00 
  56523.3043     0.77872E+00 
  56555.5665     0.77049E+00 
  56587.8286     0.76231E+00 
  56620.0908     0.75418E+00 
  56652.3530     0.74611E+00 
  56684.6151     0.73809E+00 
  56716.8773     0.73012E+00 
  56749.1394     0.72220E+00 
  56781.4016     0.71433E+00 
  56813.6638     0.70651E+00 
  56845.9259     0.69874E+00 
  56878.1881     0.69102E+00 
  56910.4502     0.68336E+00 
  56942.7124     0.67574E+00 
  56974.9746     0.66817E+00 
  57007.2367     0.66065E+00 
  57039.4989     0.65319E+00 
  57071.7610     0.64577E+00 
  57104.0232     0.63840E+00 
  57136.2854     0.63108E+00 
  57168.5475     0.62381E+00 
  57200.8097     0.61659E+00 
  57233.0718     0.60942E+00 
  57265.3340     0.60229E+00 
  57297.5962     0.59522E+00 
  57329.8583     0.58819E+00 
  57362.1205     0.58122E+00 
  57394.3826     0.57429E+00 
  57426.6448     0.56740E+00 
  57458.9070     0.56057E+00 
  57491.1691     0.55378E+00 
  57523.4313     0.54704E+00 
  57555.6934     0.54035E+00 
  57587.9556     0.53371E+00 
  57620.2178     0.52711E+00 
  57652.4799     0.52056E+00 
  57684.7421     0.51406E+00 
  57717.0042     0.50760E+00 
  57749.2664     0.50119E+00 
  57781.5286     0.49482E+00 
  57813.7907     0.48851E+00 
  57846.0529     0.48223E+00 
  57878.3150     0.47601E+00 
  57910.5772     0.46983E+00 
  57942.8394     0.46369E+00 
  57975.1015     0.45760E+00 
  58007.3637     0.45156E+00 
  58039.6258     0.44556E+00 
  58071.8880     0.43961E+00 
  58104.1502     0.43370E+00 
  58136.4123     0.42783E+00 
  58168.6745     0.42201E+00 
  58200.9366     0.41624E+00 
  58233.1988     0.41051E+00 
  58265.4610     0.40482E+00 
  58297.7231     0.39918E+00 
  58329.9853     0.39358E+00 
  58362.2474     0.38803E+00 
  58394.5096     0.38252E+00 
  58426.7718     0.37705E+00 
  58459.0339     0.37163E+00 
  58491.2961     0.36625E+00 
  58523.5582     0.36091E+00 
  58555.8204     0.35562E+00 
  58588.0826     0.35037E+00 
  58620.3447     0.34516E+00 
  58652.6069     0.33999E+00 
  58684.8690     0.33487E+00 
  58717.1312     0.32979E+00 
  58749.3934     0.32475E+00 
  58781.6555     0.31976E+00 
  58813.9177     0.31481E+00 
  58846.1798     0.30989E+00 
  58878.4420     0.30503E+00 
  58910.7042     0.30020E+00 
  58942.9663     0.29541E+00 
  58975.2285     0.29067E+00 
  59007.4906     0.28597E+00 
  59039.7528     0.28131E+00 
  59072.0150     0.27669E+00 
  59104.2771     0.27211E+00 
  59136.5393     0.26757E+00 
  59168.8014     0.26308E+00 
  59201.0636     0.25862E+00 
  59233.3258     0.25421E+00 
  59265.5879     0.24984E+00 
  59297.8501     0.24550E+00 
  59330.1122     0.24121E+00 
  59362.3744     0.23696E+00 
  59394.6366     0.23275E+00 
  59426.8987     0.22858E+00 
  59459.1609     0.22445E+00 
  59491.4230     0.22036E+00 
  59523.6852     0.21632E+00 
  59555.9474     0.21231E+00 
  59588.2095     0.20834E+00 
  59620.4717     0.20441E+00 
  59652.7338     0.20053E+00 
  59684.9960     0.19668E+00 
  59717.2582     0.19287E+00 
  59749.5203     0.18910E+00 
  59781.7825     0.18538E+00 
  59814.0446     0.18169E+00 
  59846.3068     0.17804E+00 
  59878.5690     0.17444E+00 
  59910.8311     0.17087E+00 
  59943.0933     0.16734E+00 
  59975.3554     0.16385E+00 
  60007.6176     0.16041E+00 
  60039.8798     0.15700E+00 
  60072.1419     0.15363E+00 
  60104.4041     0.15030E+00 
  60136.6662     0.14701E+00 
  60168.9284     0.14377E+00 
  60201.1906     0.14056E+00 
  60233.4527     0.13739E+00 
  60265.7149     0.13426E+00 
  60297.9770     0.13117E+00 
  60330.2392     0.12812E+00 
  60362.5014     0.12512E+00 
  60394.7635     0.12215E+00 
  60427.0257     0.11922E+00 
  60459.2878     0.11633E+00 
  60491.5500     0.11348E+00 
  60523.8122     0.11068E+00 
  60556.0743     0.10791E+00 
  60588.3365     0.10518E+00 
  60620.5986     0.10250E+00 
  60652.8608     0.99855E-01 
  60685.1230     0.97251E-01 
  60717.3851     0.94687E-01 
  60749.6473     0.92165E-01 
  60781.9094     0.89684E-01 
  60814.1716     0.87244E-01 
  60846.4338     0.84846E-01 
  60878.6959     0.82489E-01 
  60910.9581     0.80173E-01 
  60943.2202     0.77899E-01 
  60975.4824     0.75667E-01 
  61007.7446     0.73477E-01 
  61040.0067     0.71329E-01 
  61072.2689     0.69224E-01 
  61104.5310     0.67161E-01 
  61136.7932     0.65141E-01 
  61169.0554     0.63163E-01 
  61201.3175     0.61229E-01 
  61233.5797     0.59338E-01 
  61265.8418     0.57490E-01 
  61298.1040     0.55686E-01 
  61330.3662     0.53926E-01 
  61362.6283     0.52210E-01 
  61394.8905     0.50539E-01 
  61427.1526     0.48912E-01 
  61459.4148     0.47330E-01 
  61491.6770     0.45793E-01 
  61523.9391     0.44302E-01 
  61556.2013     0.42856E-01 
  61588.4634     0.41456E-01 
  61620.7256     0.40103E-01 
  61652.9878     0.38796E-01 
  61685.2499     0.37536E-01 
  61717.5121     0.36323E-01 
  61749.7742     0.35158E-01 
  61782.0364     0.34040E-01 
  61814.2986     0.32971E-01 
  61846.5607     0.31951E-01 
  61878.8229     0.30979E-01 
  61911.0850     0.30057E-01 
  61943.3472     0.29185E-01 
  61975.6094     0.28363E-01 
  62007.8715     0.27591E-01 
  62040.1337     0.26870E-01 
  62072.3958     0.26201E-01 
  62104.6580     0.25584E-01 
  62136.9202     0.25019E-01 
  62169.1823     0.24507E-01 
  62201.4445     0.24048E-01 
  62233.7066     0.23642E-01 
  62265.9688     0.23292E-01 
  62298.2310     0.22995E-01 
  62330.4931     0.22755E-01 
  62362.7553     0.22570E-01 
  62395.0174     0.22441E-01 
  62427.2796     0.22369E-01 
  62459.5418     0.22355E-01 
  62491.8039     0.22399E-01 
  62524.0661     0.22502E-01 
  62556.3282     0.22664E-01 
  62588.5904     0.22886E-01 
  62620.8526     0.23169E-01 
  62653.1147     0.23513E-01 
  62685.3769     0.23919E-01 
  62717.6390     0.24387E-01 
  62749.9012     0.24919E-01 
  62782.1634     0.25515E-01 
  62814.4255     0.26176E-01 
  62846.6877     0.26902E-01 
  62878.9498     0.27695E-01 
  62911.2120     0.28554E-01 
  62943.4742     0.29482E-01 
  62975.7363     0.30478E-01 
  63007.9985     0.31544E-01 
  63040.2606     0.32680E-01 
  63072.5228     0.33887E-01 
  63104.7850     0.35166E-01 
  63137.0471     0.36518E-01 
  63169.3093     0.37944E-01 
  63201.5714     0.39445E-01 
  63233.8336     0.41022E-01 
  63266.0958     0.42675E-01 
  63298.3579     0.44406E-01 
  63330.6201     0.46216E-01 
  63362.8822     0.48105E-01 
  63395.1444     0.50075E-01 
  63427.4066     0.52127E-01 
  63459.6687     0.54262E-01 
  63491.9309     0.56481E-01 
  63524.1930     0.58785E-01 
  63556.4552     0.61175E-01 
  63588.7174     0.63653E-01 
  63620.9795     0.66219E-01 
  63653.2417     0.68874E-01 
  63685.5038     0.71621E-01 
  63717.7660     0.74460E-01 
  63750.0282     0.77393E-01 
  63782.2903     0.80420E-01 
  63814.5525     0.83544E-01 
  63846.8146     0.86764E-01 
  63879.0768     0.90084E-01 
  63911.3390     0.93504E-01 
  63943.6011     0.97025E-01 
  63975.8633     0.10065E+00 
  64008.1254     0.10438E+00 
  64040.3876     0.10821E+00 
  64072.6498     0.11215E+00 
  64104.9119     0.11621E+00 
  64137.1741     0.12037E+00 
  64169.4362     0.12464E+00 
  64201.6984     0.12903E+00 
  64233.9606     0.13353E+00 
  64266.2227     0.13815E+00 
  64298.4849     0.14289E+00 
  64330.7470     0.14774E+00 
  64363.0092     0.15272E+00 
  64395.2714     0.15783E+00 
  64427.5335     0.16306E+00 
  64459.7957     0.16841E+00 
  64492.0578     0.17390E+00 
  64524.3200     0.17952E+00 
  64556.5822     0.18527E+00 
  64588.8443     0.19115E+00 
  64621.1065     0.19717E+00 
  64653.3686     0.20333E+00 
  64685.6308     0.20964E+00 
  64717.8930     0.21608E+00 
  64750.1551     0.22267E+00 
  64782.4173     0.22941E+00 
  64814.6794     0.23629E+00 
  64846.9416     0.24333E+00 
  64879.2038     0.25052E+00 
  64911.4659     0.25787E+00 
  64943.7281     0.26537E+00 
  64975.9902     0.27304E+00 
  65008.2524     0.28086E+00 
  65040.5146     0.28886E+00 
  65072.7767     0.29702E+00 
  65105.0389     0.30535E+00 
  65137.3010     0.31385E+00 
  65169.5632     0.32253E+00 
  65201.8254     0.33138E+00 
  65234.0875     0.34042E+00 
  65266.3497     0.34963E+00 
  65298.6118     0.35904E+00 
  65330.8740     0.36863E+00 
  65363.1362     0.37841E+00 
  65395.3983     0.38838E+00 
  65427.6605     0.39855E+00 
  65459.9226     0.40892E+00 
  65492.1848     0.41950E+00 
  65524.4470     0.43027E+00 
  65556.7091     0.44126E+00 
  65588.9713     0.45245E+00 
  65621.2334     0.46386E+00 
  65653.4956     0.47548E+00 
  65685.7578     0.48733E+00 
  65718.0199     0.49940E+00 
  65750.2821     0.51169E+00 
  65782.5442     0.52421E+00 
  65814.8064     0.53697E+00 
  65847.0686     0.54996E+00 
  65879.3307     0.56319E+00 
  65911.5929     0.57666E+00 
  65943.8550     0.59038E+00 
  65976.1172     0.60435E+00 
  66008.3794     0.61857E+00 
  66040.6415     0.63305E+00 
  66072.9037     0.64778E+00 
  66105.1658     0.66278E+00 
  66137.4280     0.67805E+00 
  66169.6902     0.69359E+00 
  66201.9523     0.70940E+00 
  66234.2145     0.72550E+00 
  66266.4766     0.74187E+00 
  66298.7388     0.75853E+00 
  66331.0010     0.77548E+00 
  66363.2631     0.79272E+00 
  66395.5253     0.81026E+00 
  66427.7874     0.82811E+00 
  66460.0496     0.84626E+00 
  66492.3118     0.86472E+00 
  66524.5739     0.88349E+00 
  66556.8361     0.90259E+00 
  66589.0982     0.92200E+00 
  66621.3604     0.94174E+00 
  66653.6226     0.96182E+00 
  66685.8847     0.98223E+00 
  66718.1469     0.10030E+01 
  66750.4090     0.10241E+01 
  66782.6712     0.10455E+01 
  66814.9334     0.10673E+01 
  66847.1955     0.10895E+01 
  66879.4577     0.11120E+01 
  66911.7198     0.11349E+01 
  66943.9820     0.11581E+01 
  66976.2442     0.11818E+01 
  67008.5063     0.12058E+01 
  67040.7685     0.12302E+01 
  67073.0306     0.12550E+01 
  67105.2928     0.12802E+01 
  67137.5550     0.13058E+01 
  67169.8171     0.13318E+01 
  67202.0793     0.13582E+01 
  67234.3414     0.13851E+01 
  67266.6036     0.14123E+01 
  67298.8658     0.14400E+01 
  67331.1279     0.14681E+01 
  67363.3901     0.14967E+01 
  67395.6522     0.15257E+01 
  67427.9144     0.15551E+01 
  67460.1766     0.15850E+01 
  67492.4387     0.16154E+01 
  67524.7009     0.16462E+01 
  67556.9630     0.16775E+01 
  67589.2252     0.17093E+01 
  67621.4874     0.17416E+01 
  67653.7495     0.17743E+01 
  67686.0117     0.18076E+01 
  67718.2738     0.18413E+01 
  67750.5360     0.18756E+01 
  67782.7982     0.19104E+01 
  67815.0603     0.19456E+01 
  67847.3225     0.19815E+01 
  67879.5846     0.20178E+01 
  67911.8468     0.20547E+01 
  67944.1090     0.20921E+01 
  67976.3711     0.21301E+01 
  68008.6333     0.21686E+01 
  68040.8954     0.22077E+01 
  68073.1576     0.22473E+01 
  68105.4198     0.22875E+01 
  68137.6819     0.23283E+01 
  68169.9441     0.23697E+01 
  68202.2062     0.24117E+01 
  68234.4684     0.24543E+01 
  68266.7306     0.24975E+01 
  68298.9927     0.25413E+01 
  68331.2549     0.25857E+01 
  68363.5170     0.26307E+01 
  68395.7792     0.26764E+01 
  68428.0414     0.27227E+01 
  68460.3035     0.27697E+01 
  68492.5657     0.28173E+01 
  68524.8278     0.28656E+01 
  68557.0900     0.29146E+01 
  68589.3522     0.29642E+01 
  68621.6143     0.30145E+01 
  68653.8765     0.30655E+01 
  68686.1386     0.31171E+01 
  68718.4008     0.31695E+01 
  68750.6630     0.32226E+01 
  68782.9251     0.32764E+01 
  68815.1873     0.33309E+01 
  68847.4494     0.33862E+01 
  68879.7116     0.34422E+01 
  68911.9738     0.34989E+01 
  68944.2359     0.35564E+01 
  68976.4981     0.36147E+01 
  69008.7602     0.36737E+01 
  69041.0224     0.37335E+01 
  69073.2846     0.37941E+01 
  69105.5467     0.38554E+01 
  69137.8089     0.39176E+01 
  69170.0710     0.39806E+01 
  69202.3332     0.40443E+01 
  69234.5954     0.41089E+01 
  69266.8575     0.41743E+01 
  69299.1197     0.42406E+01 
  69331.3818     0.43077E+01 
  69363.6440     0.43756E+01 
  69395.9062     0.44444E+01 
  69428.1683     0.45141E+01 
  69460.4305     0.45846E+01 
  69492.6926     0.46560E+01 
  69524.9548     0.47283E+01 
  69557.2170     0.48015E+01 
  69589.4791     0.48756E+01 
  69621.7413     0.49506E+01 
  69654.0034     0.50265E+01 
  69686.2656     0.51033E+01 
  69718.5278     0.51811E+01 
  69750.7899     0.52598E+01 
  69783.0521     0.53394E+01 
  69815.3142     0.54201E+01 
  69847.5764     0.55016E+01 
  69879.8386     0.55842E+01 
  69912.1007     0.56677E+01 
  69944.3629     0.57522E+01 
  69976.6250     0.58377E+01 
  70008.8872     0.59242E+01 
  70041.1494     0.60117E+01 
  70073.4115     0.61002E+01 
  70105.6737     0.61898E+01 
  70137.9358     0.62804E+01 
  70170.1980     0.63720E+01 
  70202.4602     0.64647E+01 
  70234.7223     0.65584E+01 
  70266.9845     0.66532E+01 
  70299.2466     0.67490E+01 
  70331.5088     0.68460E+01 
  70363.7710     0.69440E+01 
  70396.0331     0.70431E+01 
  70428.2953     0.71433E+01 
  70460.5574     0.72446E+01 
  70492.8196     0.73471E+01 
  70525.0818     0.74506E+01 
  70557.3439     0.75553E+01 
  70589.6061     0.76611E+01 
  70621.8682     0.77681E+01 
  70654.1304     0.78762E+01 
  70686.3926     0.79855E+01 
  70718.6547     0.80959E+01 
  70750.9169     0.82075E+01 
  70783.1790     0.83203E+01 
  70815.4412     0.84343E+01 
  70847.7034     0.85495E+01 
  70879.9655     0.86658E+01 
  70912.2277     0.87834E+01 
  70944.4898     0.89022E+01 
  70976.7520     0.90223E+01 
  71009.0142     0.91435E+01 
  71041.2763     0.92660E+01 
  71073.5385     0.93897E+01 
  71105.8006     0.95147E+01 
  71138.0628     0.96409E+01 
  71170.3250     0.97684E+01 
  71202.5871     0.98972E+01 
  71234.8493     0.10027E+02 
  71267.1114     0.10159E+02 
  71299.3736     0.10291E+02 
  71331.6358     0.10425E+02 
  71363.8979     0.10560E+02 
  71396.1601     0.10697E+02 
  71428.4222     0.10835E+02 
  71460.6844     0.10974E+02 
  71492.9466     0.11114E+02 
  71525.2087     0.11256E+02 
  71557.4709     0.11399E+02 
  71589.7330     0.11544E+02 
  71621.9952     0.11690E+02 
  71654.2574     0.11837E+02 
  71686.5195     0.11985E+02 
  71718.7817     0.12135E+02 
  71751.0438     0.12287E+02 
  71783.3060     0.12439E+02 
  71815.5682     0.12593E+02 
  71847.8303     0.12749E+02 
  71880.0925     0.12905E+02 
  71912.3546     0.13064E+02 
  71944.6168     0.13223E+02 
  71976.8790     0.13384E+02 
  72009.1411     0.13547E+02 
  72041.4033     0.13710E+02 
  72073.6654     0.13876E+02 
  72105.9276     0.14042E+02 
  72138.1898     0.14211E+02 
  72170.4519     0.14380E+02 
  72202.7141     0.14551E+02 
  72234.9762     0.14723E+02 
  72267.2384     0.14897E+02 
  72299.5006     0.15073E+02 
  72331.7627     0.15249E+02 
  72364.0249     0.15427E+02 
  72396.2870     0.15607E+02 
  72428.5492     0.15788E+02 
  72460.8114     0.15971E+02 
  72493.0735     0.16155E+02 
  72525.3357     0.16340E+02 
  72557.5978     0.16527E+02 
  72589.8600     0.16716E+02 
