  32262.1600     0.76462E+02 
  32294.4222     0.77354E+02 
  32326.6843     0.78254E+02 
  32358.9465     0.79160E+02 
  32391.2086     0.80074E+02 
  32423.4708     0.80994E+02 
  32455.7330     0.81922E+02 
  32487.9951     0.82857E+02 
  32520.2573     0.83798E+02 
  32552.5194     0.84747E+02 
  32584.7816     0.85704E+02 
  32617.0438     0.86667E+02 
  32649.3059     0.87637E+02 
  32681.5681     0.88615E+02 
  32713.8302     0.89599E+02 
  32746.0924     0.90591E+02 
  32778.3546     0.91590E+02 
  32810.6167     0.92596E+02 
  32842.8789     0.93609E+02 
  32875.1410     0.94629E+02 
  32907.4032     0.95656E+02 
  32939.6654     0.96691E+02 
  32971.9275     0.97732E+02 
  33004.1897     0.98781E+02 
  33036.4518     0.99836E+02 
  33068.7140     0.10090E+03 
  33100.9762     0.10197E+03 
  33133.2383     0.10305E+03 
  33165.5005     0.10413E+03 
  33197.7626     0.10522E+03 
  33230.0248     0.10632E+03 
  33262.2870     0.10742E+03 
  33294.5491     0.10854E+03 
  33326.8113     0.10965E+03 
  33359.0734     0.11078E+03 
  33391.3356     0.11191E+03 
  33423.5978     0.11305E+03 
  33455.8599     0.11420E+03 
  33488.1221     0.11535E+03 
  33520.3842     0.11651E+03 
  33552.6464     0.11768E+03 
  33584.9086     0.11885E+03 
  33617.1707     0.12003E+03 
  33649.4329     0.12122E+03 
  33681.6950     0.12242E+03 
  33713.9572     0.12362E+03 
  33746.2194     0.12482E+03 
  33778.4815     0.12604E+03 
  33810.7437     0.12726E+03 
  33843.0058     0.12849E+03 
  33875.2680     0.12972E+03 
  33907.5302     0.13096E+03 
  33939.7923     0.13221E+03 
  33972.0545     0.13346E+03 
  34004.3166     0.13472E+03 
  34036.5788     0.13599E+03 
  34068.8410     0.13726E+03 
  34101.1031     0.13854E+03 
  34133.3653     0.13983E+03 
  34165.6274     0.14112E+03 
  34197.8896     0.14242E+03 
  34230.1518     0.14372E+03 
  34262.4139     0.14503E+03 
  34294.6761     0.14635E+03 
  34326.9382     0.14767E+03 
  34359.2004     0.14900E+03 
  34391.4626     0.15033E+03 
  34423.7247     0.15167E+03 
  34455.9869     0.15302E+03 
  34488.2490     0.15437E+03 
  34520.5112     0.15573E+03 
  34552.7734     0.15709E+03 
  34585.0355     0.15846E+03 
  34617.2977     0.15983E+03 
  34649.5598     0.16121E+03 
  34681.8220     0.16260E+03 
  34714.0842     0.16399E+03 
  34746.3463     0.16539E+03 
  34778.6085     0.16679E+03 
  34810.8706     0.16820E+03 
  34843.1328     0.16961E+03 
  34875.3950     0.17103E+03 
  34907.6571     0.17245E+03 
  34939.9193     0.17388E+03 
  34972.1814     0.17531E+03 
  35004.4436     0.17674E+03 
  35036.7058     0.17819E+03 
  35068.9679     0.17963E+03 
  35101.2301     0.18109E+03 
  35133.4922     0.18254E+03 
  35165.7544     0.18400E+03 
  35198.0166     0.18547E+03 
  35230.2787     0.18694E+03 
  35262.5409     0.18841E+03 
  35294.8030     0.18989E+03 
  35327.0652     0.19137E+03 
  35359.3274     0.19286E+03 
  35391.5895     0.19435E+03 
  35423.8517     0.19585E+03 
  35456.1138     0.19734E+03 
  35488.3760     0.19885E+03 
  35520.6382     0.20035E+03 
  35552.9003     0.20186E+03 
  35585.1625     0.20338E+03 
  35617.4246     0.20489E+03 
  35649.6868     0.20641E+03 
  35681.9490     0.20794E+03 
  35714.2111     0.20947E+03 
  35746.4733     0.21100E+03 
  35778.7354     0.21253E+03 
  35810.9976     0.21407E+03 
  35843.2598     0.21561E+03 
  35875.5219     0.21715E+03 
  35907.7841     0.21870E+03 
  35940.0462     0.22024E+03 
  35972.3084     0.22179E+03 
  36004.5706     0.22335E+03 
  36036.8327     0.22490E+03 
  36069.0949     0.22646E+03 
  36101.3570     0.22802E+03 
  36133.6192     0.22958E+03 
  36165.8814     0.23115E+03 
  36198.1435     0.23272E+03 
  36230.4057     0.23428E+03 
  36262.6678     0.23585E+03 
  36294.9300     0.23743E+03 
  36327.1922     0.23900E+03 
  36359.4543     0.24058E+03 
  36391.7165     0.24215E+03 
  36423.9786     0.24373E+03 
  36456.2408     0.24531E+03 
  36488.5030     0.24689E+03 
  36520.7651     0.24847E+03 
  36553.0273     0.25005E+03 
  36585.2894     0.25164E+03 
  36617.5516     0.25322E+03 
  36649.8138     0.25480E+03 
  36682.0759     0.25639E+03 
  36714.3381     0.25798E+03 
  36746.6002     0.25956E+03 
  36778.8624     0.26115E+03 
  36811.1246     0.26273E+03 
  36843.3867     0.26432E+03 
  36875.6489     0.26591E+03 
  36907.9110     0.26749E+03 
  36940.1732     0.26908E+03 
  36972.4354     0.27066E+03 
  37004.6975     0.27225E+03 
  37036.9597     0.27383E+03 
  37069.2218     0.27542E+03 
  37101.4840     0.27700E+03 
  37133.7462     0.27858E+03 
  37166.0083     0.28016E+03 
  37198.2705     0.28174E+03 
  37230.5326     0.28332E+03 
  37262.7948     0.28490E+03 
  37295.0570     0.28648E+03 
  37327.3191     0.28805E+03 
  37359.5813     0.28963E+03 
  37391.8434     0.29120E+03 
  37424.1056     0.29277E+03 
  37456.3678     0.29433E+03 
  37488.6299     0.29590E+03 
  37520.8921     0.29746E+03 
  37553.1542     0.29902E+03 
  37585.4164     0.30058E+03 
  37617.6786     0.30214E+03 
  37649.9407     0.30369E+03 
  37682.2029     0.30524E+03 
  37714.4650     0.30679E+03 
  37746.7272     0.30834E+03 
  37778.9894     0.30988E+03 
  37811.2515     0.31142E+03 
  37843.5137     0.31295E+03 
  37875.7758     0.31449E+03 
  37908.0380     0.31602E+03 
  37940.3002     0.31754E+03 
  37972.5623     0.31906E+03 
  38004.8245     0.32058E+03 
  38037.0866     0.32210E+03 
  38069.3488     0.32361E+03 
  38101.6110     0.32511E+03 
  38133.8731     0.32662E+03 
  38166.1353     0.32811E+03 
  38198.3974     0.32961E+03 
  38230.6596     0.33110E+03 
  38262.9218     0.33258E+03 
  38295.1839     0.33406E+03 
  38327.4461     0.33553E+03 
  38359.7082     0.33700E+03 
  38391.9704     0.33847E+03 
  38424.2326     0.33993E+03 
  38456.4947     0.34138E+03 
  38488.7569     0.34283E+03 
  38521.0190     0.34428E+03 
  38553.2812     0.34571E+03 
  38585.5434     0.34715E+03 
  38617.8055     0.34857E+03 
  38650.0677     0.34999E+03 
  38682.3298     0.35141E+03 
  38714.5920     0.35282E+03 
  38746.8542     0.35422E+03 
  38779.1163     0.35562E+03 
  38811.3785     0.35701E+03 
  38843.6406     0.35839E+03 
  38875.9028     0.35977E+03 
  38908.1650     0.36114E+03 
  38940.4271     0.36250E+03 
  38972.6893     0.36386E+03 
  39004.9514     0.36521E+03 
  39037.2136     0.36655E+03 
  39069.4758     0.36789E+03 
  39101.7379     0.36921E+03 
  39134.0001     0.37053E+03 
  39166.2622     0.37185E+03 
  39198.5244     0.37315E+03 
  39230.7866     0.37445E+03 
  39263.0487     0.37574E+03 
  39295.3109     0.37703E+03 
  39327.5730     0.37830E+03 
  39359.8352     0.37957E+03 
  39392.0974     0.38083E+03 
  39424.3595     0.38208E+03 
  39456.6217     0.38332E+03 
  39488.8838     0.38455E+03 
  39521.1460     0.38578E+03 
  39553.4082     0.38700E+03 
  39585.6703     0.38820E+03 
  39617.9325     0.38940E+03 
  39650.1946     0.39060E+03 
  39682.4568     0.39178E+03 
  39714.7190     0.39295E+03 
  39746.9811     0.39412E+03 
  39779.2433     0.39527E+03 
  39811.5054     0.39642E+03 
  39843.7676     0.39755E+03 
  39876.0298     0.39868E+03 
  39908.2919     0.39980E+03 
  39940.5541     0.40091E+03 
  39972.8162     0.40200E+03 
  40005.0784     0.40309E+03 
  40037.3406     0.40417E+03 
  40069.6027     0.40524E+03 
  40101.8649     0.40630E+03 
  40134.1270     0.40735E+03 
  40166.3892     0.40839E+03 
  40198.6514     0.40942E+03 
  40230.9135     0.41044E+03 
  40263.1757     0.41145E+03 
  40295.4378     0.41245E+03 
  40327.7000     0.41344E+03 
  40359.9622     0.41441E+03 
  40392.2243     0.41538E+03 
  40424.4865     0.41634E+03 
  40456.7486     0.41728E+03 
  40489.0108     0.41822E+03 
  40521.2730     0.41914E+03 
  40553.5351     0.42006E+03 
  40585.7973     0.42096E+03 
  40618.0594     0.42185E+03 
  40650.3216     0.42273E+03 
  40682.5838     0.42360E+03 
  40714.8459     0.42446E+03 
  40747.1081     0.42531E+03 
  40779.3702     0.42615E+03 
  40811.6324     0.42697E+03 
  40843.8946     0.42779E+03 
  40876.1567     0.42859E+03 
  40908.4189     0.42938E+03 
  40940.6810     0.43016E+03 
  40972.9432     0.43093E+03 
  41005.2054     0.43169E+03 
  41037.4675     0.43243E+03 
  41069.7297     0.43316E+03 
  41101.9918     0.43388E+03 
  41134.2540     0.43459E+03 
  41166.5162     0.43529E+03 
  41198.7783     0.43598E+03 
  41231.0405     0.43665E+03 
  41263.3026     0.43732E+03 
  41295.5648     0.43797E+03 
  41327.8270     0.43860E+03 
  41360.0891     0.43923E+03 
  41392.3513     0.43985E+03 
  41424.6134     0.44045E+03 
  41456.8756     0.44104E+03 
  41489.1378     0.44162E+03 
  41521.3999     0.44218E+03 
  41553.6621     0.44274E+03 
  41585.9242     0.44328E+03 
  41618.1864     0.44381E+03 
  41650.4486     0.44432E+03 
  41682.7107     0.44483E+03 
  41714.9729     0.44532E+03 
  41747.2350     0.44580E+03 
  41779.4972     0.44627E+03 
  41811.7594     0.44672E+03 
  41844.0215     0.44717E+03 
  41876.2837     0.44760E+03 
  41908.5458     0.44801E+03 
  41940.8080     0.44842E+03 
  41973.0702     0.44881E+03 
  42005.3323     0.44919E+03 
  42037.5945     0.44956E+03 
  42069.8566     0.44992E+03 
  42102.1188     0.45026E+03 
  42134.3810     0.45059E+03 
  42166.6431     0.45091E+03 
  42198.9053     0.45121E+03 
  42231.1674     0.45151E+03 
  42263.4296     0.45179E+03 
  42295.6918     0.45205E+03 
  42327.9539     0.45231E+03 
  42360.2161     0.45255E+03 
  42392.4782     0.45278E+03 
  42424.7404     0.45300E+03 
  42457.0026     0.45320E+03 
  42489.2647     0.45339E+03 
  42521.5269     0.45357E+03 
  42553.7890     0.45374E+03 
  42586.0512     0.45390E+03 
  42618.3134     0.45404E+03 
  42650.5755     0.45417E+03 
  42682.8377     0.45428E+03 
  42715.0998     0.45439E+03 
  42747.3620     0.45448E+03 
  42779.6242     0.45456E+03 
  42811.8863     0.45463E+03 
  42844.1485     0.45468E+03 
  42876.4106     0.45472E+03 
  42908.6728     0.45475E+03 
  42940.9350     0.45477E+03 
  42973.1971     0.45477E+03 
  43005.4593     0.45477E+03 
  43037.7214     0.45475E+03 
  43069.9836     0.45471E+03 
  43102.2458     0.45467E+03 
  43134.5079     0.45461E+03 
  43166.7701     0.45454E+03 
  43199.0322     0.45446E+03 
  43231.2944     0.45437E+03 
  43263.5566     0.45426E+03 
  43295.8187     0.45414E+03 
  43328.0809     0.45401E+03 
  43360.3430     0.45387E+03 
  43392.6052     0.45372E+03 
  43424.8674     0.45355E+03 
  43457.1295     0.45337E+03 
  43489.3917     0.45318E+03 
  43521.6538     0.45298E+03 
  43553.9160     0.45276E+03 
  43586.1782     0.45254E+03 
  43618.4403     0.45230E+03 
  43650.7025     0.45205E+03 
  43682.9646     0.45179E+03 
  43715.2268     0.45151E+03 
  43747.4890     0.45123E+03 
  43779.7511     0.45093E+03 
  43812.0133     0.45062E+03 
  43844.2754     0.45030E+03 
  43876.5376     0.44997E+03 
  43908.7998     0.44963E+03 
  43941.0619     0.44927E+03 
  43973.3241     0.44891E+03 
  44005.5862     0.44853E+03 
  44037.8484     0.44814E+03 
  44070.1106     0.44774E+03 
  44102.3727     0.44733E+03 
  44134.6349     0.44691E+03 
  44166.8970     0.44647E+03 
  44199.1592     0.44603E+03 
  44231.4214     0.44557E+03 
  44263.6835     0.44511E+03 
  44295.9457     0.44463E+03 
  44328.2078     0.44414E+03 
  44360.4700     0.44364E+03 
  44392.7322     0.44313E+03 
  44424.9943     0.44261E+03 
  44457.2565     0.44208E+03 
  44489.5186     0.44154E+03 
  44521.7808     0.44099E+03 
  44554.0430     0.44042E+03 
  44586.3051     0.43985E+03 
  44618.5673     0.43927E+03 
  44650.8294     0.43867E+03 
  44683.0916     0.43807E+03 
  44715.3538     0.43745E+03 
  44747.6159     0.43683E+03 
  44779.8781     0.43620E+03 
  44812.1402     0.43555E+03 
  44844.4024     0.43490E+03 
  44876.6646     0.43423E+03 
  44908.9267     0.43356E+03 
  44941.1889     0.43288E+03 
  44973.4510     0.43218E+03 
  45005.7132     0.43148E+03 
  45037.9754     0.43077E+03 
  45070.2375     0.43004E+03 
  45102.4997     0.42931E+03 
  45134.7618     0.42857E+03 
  45167.0240     0.42782E+03 
  45199.2862     0.42706E+03 
  45231.5483     0.42630E+03 
  45263.8105     0.42552E+03 
  45296.0726     0.42473E+03 
  45328.3348     0.42394E+03 
  45360.5970     0.42313E+03 
  45392.8591     0.42232E+03 
  45425.1213     0.42150E+03 
  45457.3834     0.42067E+03 
  45489.6456     0.41983E+03 
  45521.9078     0.41898E+03 
  45554.1699     0.41813E+03 
  45586.4321     0.41726E+03 
  45618.6942     0.41639E+03 
  45650.9564     0.41551E+03 
  45683.2186     0.41462E+03 
  45715.4807     0.41372E+03 
  45747.7429     0.41282E+03 
  45780.0050     0.41191E+03 
  45812.2672     0.41098E+03 
  45844.5294     0.41006E+03 
  45876.7915     0.40912E+03 
  45909.0537     0.40818E+03 
  45941.3158     0.40723E+03 
  45973.5780     0.40627E+03 
  46005.8402     0.40530E+03 
  46038.1023     0.40433E+03 
  46070.3645     0.40335E+03 
  46102.6266     0.40236E+03 
  46134.8888     0.40137E+03 
  46167.1510     0.40036E+03 
  46199.4131     0.39935E+03 
  46231.6753     0.39834E+03 
  46263.9374     0.39732E+03 
  46296.1996     0.39629E+03 
  46328.4618     0.39525E+03 
  46360.7239     0.39421E+03 
  46392.9861     0.39316E+03 
  46425.2482     0.39211E+03 
  46457.5104     0.39105E+03 
  46489.7726     0.38998E+03 
  46522.0347     0.38890E+03 
  46554.2969     0.38783E+03 
  46586.5590     0.38674E+03 
  46618.8212     0.38565E+03 
  46651.0834     0.38455E+03 
  46683.3455     0.38345E+03 
  46715.6077     0.38234E+03 
  46747.8698     0.38122E+03 
  46780.1320     0.38010E+03 
  46812.3942     0.37898E+03 
  46844.6563     0.37785E+03 
  46876.9185     0.37671E+03 
  46909.1806     0.37557E+03 
  46941.4428     0.37442E+03 
  46973.7050     0.37327E+03 
  47005.9671     0.37212E+03 
  47038.2293     0.37096E+03 
  47070.4914     0.36979E+03 
  47102.7536     0.36862E+03 
  47135.0158     0.36744E+03 
  47167.2779     0.36626E+03 
  47199.5401     0.36508E+03 
  47231.8022     0.36389E+03 
  47264.0644     0.36270E+03 
  47296.3266     0.36150E+03 
  47328.5887     0.36030E+03 
  47360.8509     0.35909E+03 
  47393.1130     0.35788E+03 
  47425.3752     0.35667E+03 
  47457.6374     0.35545E+03 
  47489.8995     0.35423E+03 
  47522.1617     0.35300E+03 
  47554.4238     0.35177E+03 
  47586.6860     0.35054E+03 
  47618.9482     0.34930E+03 
  47651.2103     0.34806E+03 
  47683.4725     0.34682E+03 
  47715.7346     0.34558E+03 
  47747.9968     0.34433E+03 
  47780.2590     0.34307E+03 
  47812.5211     0.34182E+03 
  47844.7833     0.34056E+03 
  47877.0454     0.33930E+03 
  47909.3076     0.33803E+03 
  47941.5698     0.33677E+03 
  47973.8319     0.33550E+03 
  48006.0941     0.33423E+03 
  48038.3562     0.33295E+03 
  48070.6184     0.33167E+03 
  48102.8806     0.33039E+03 
  48135.1427     0.32911E+03 
  48167.4049     0.32783E+03 
  48199.6670     0.32654E+03 
  48231.9292     0.32525E+03 
  48264.1914     0.32396E+03 
  48296.4535     0.32267E+03 
  48328.7157     0.32138E+03 
  48360.9778     0.32008E+03 
  48393.2400     0.31878E+03 
  48425.5022     0.31748E+03 
  48457.7643     0.31618E+03 
  48490.0265     0.31488E+03 
  48522.2886     0.31357E+03 
  48554.5508     0.31227E+03 
  48586.8130     0.31096E+03 
  48619.0751     0.30965E+03 
  48651.3373     0.30834E+03 
  48683.5994     0.30703E+03 
  48715.8616     0.30572E+03 
  48748.1238     0.30441E+03 
  48780.3859     0.30309E+03 
  48812.6481     0.30178E+03 
  48844.9102     0.30047E+03 
  48877.1724     0.29915E+03 
  48909.4346     0.29783E+03 
  48941.6967     0.29652E+03 
  48973.9589     0.29520E+03 
  49006.2210     0.29388E+03 
  49038.4832     0.29256E+03 
  49070.7454     0.29124E+03 
  49103.0075     0.28992E+03 
  49135.2697     0.28860E+03 
  49167.5318     0.28728E+03 
  49199.7940     0.28596E+03 
  49232.0562     0.28464E+03 
  49264.3183     0.28332E+03 
  49296.5805     0.28200E+03 
  49328.8426     0.28068E+03 
  49361.1048     0.27936E+03 
  49393.3670     0.27804E+03 
  49425.6291     0.27672E+03 
  49457.8913     0.27541E+03 
  49490.1534     0.27409E+03 
  49522.4156     0.27277E+03 
  49554.6778     0.27145E+03 
  49586.9399     0.27014E+03 
  49619.2021     0.26882E+03 
  49651.4642     0.26750E+03 
  49683.7264     0.26619E+03 
  49715.9886     0.26488E+03 
  49748.2507     0.26356E+03 
  49780.5129     0.26225E+03 
  49812.7750     0.26094E+03 
  49845.0372     0.25963E+03 
  49877.2994     0.25832E+03 
  49909.5615     0.25701E+03 
  49941.8237     0.25571E+03 
  49974.0858     0.25440E+03 
  50006.3480     0.25310E+03 
  50038.6102     0.25179E+03 
  50070.8723     0.25049E+03 
  50103.1345     0.24919E+03 
  50135.3966     0.24789E+03 
  50167.6588     0.24660E+03 
  50199.9210     0.24530E+03 
  50232.1831     0.24401E+03 
  50264.4453     0.24271E+03 
  50296.7074     0.24142E+03 
  50328.9696     0.24013E+03 
  50361.2318     0.23885E+03 
  50393.4939     0.23756E+03 
  50425.7561     0.23628E+03 
  50458.0182     0.23500E+03 
  50490.2804     0.23372E+03 
  50522.5426     0.23244E+03 
  50554.8047     0.23116E+03 
  50587.0669     0.22989E+03 
  50619.3290     0.22862E+03 
  50651.5912     0.22735E+03 
  50683.8534     0.22608E+03 
  50716.1155     0.22482E+03 
  50748.3777     0.22356E+03 
  50780.6398     0.22230E+03 
  50812.9020     0.22104E+03 
  50845.1642     0.21978E+03 
  50877.4263     0.21853E+03 
  50909.6885     0.21728E+03 
  50941.9506     0.21603E+03 
  50974.2128     0.21479E+03 
  51006.4750     0.21355E+03 
  51038.7371     0.21231E+03 
  51070.9993     0.21107E+03 
  51103.2614     0.20983E+03 
  51135.5236     0.20860E+03 
  51167.7858     0.20737E+03 
  51200.0479     0.20615E+03 
  51232.3101     0.20492E+03 
  51264.5722     0.20370E+03 
  51296.8344     0.20249E+03 
  51329.0966     0.20127E+03 
  51361.3587     0.20006E+03 
  51393.6209     0.19885E+03 
  51425.8830     0.19765E+03 
  51458.1452     0.19644E+03 
  51490.4074     0.19524E+03 
  51522.6695     0.19405E+03 
  51554.9317     0.19285E+03 
  51587.1938     0.19166E+03 
  51619.4560     0.19048E+03 
  51651.7182     0.18929E+03 
  51683.9803     0.18811E+03 
  51716.2425     0.18694E+03 
  51748.5046     0.18576E+03 
  51780.7668     0.18459E+03 
  51813.0290     0.18342E+03 
  51845.2911     0.18226E+03 
  51877.5533     0.18110E+03 
  51909.8154     0.17994E+03 
  51942.0776     0.17879E+03 
  51974.3398     0.17764E+03 
  52006.6019     0.17649E+03 
  52038.8641     0.17535E+03 
  52071.1262     0.17421E+03 
  52103.3884     0.17307E+03 
  52135.6506     0.17194E+03 
  52167.9127     0.17081E+03 
  52200.1749     0.16969E+03 
  52232.4370     0.16857E+03 
  52264.6992     0.16745E+03 
  52296.9614     0.16634E+03 
  52329.2235     0.16523E+03 
  52361.4857     0.16412E+03 
  52393.7478     0.16302E+03 
  52426.0100     0.16192E+03 
  52458.2722     0.16082E+03 
  52490.5343     0.15973E+03 
  52522.7965     0.15864E+03 
  52555.0586     0.15756E+03 
  52587.3208     0.15648E+03 
  52619.5830     0.15540E+03 
  52651.8451     0.15433E+03 
  52684.1073     0.15326E+03 
  52716.3694     0.15220E+03 
  52748.6316     0.15113E+03 
  52780.8938     0.15008E+03 
  52813.1559     0.14902E+03 
  52845.4181     0.14798E+03 
  52877.6802     0.14693E+03 
  52909.9424     0.14589E+03 
  52942.2046     0.14485E+03 
  52974.4667     0.14382E+03 
  53006.7289     0.14279E+03 
  53038.9910     0.14177E+03 
  53071.2532     0.14074E+03 
  53103.5154     0.13973E+03 
  53135.7775     0.13871E+03 
  53168.0397     0.13771E+03 
  53200.3018     0.13670E+03 
  53232.5640     0.13570E+03 
  53264.8262     0.13470E+03 
  53297.0883     0.13371E+03 
  53329.3505     0.13272E+03 
  53361.6126     0.13174E+03 
  53393.8748     0.13076E+03 
  53426.1370     0.12978E+03 
  53458.3991     0.12881E+03 
  53490.6613     0.12784E+03 
  53522.9234     0.12688E+03 
  53555.1856     0.12592E+03 
  53587.4478     0.12496E+03 
  53619.7099     0.12401E+03 
  53651.9721     0.12306E+03 
  53684.2342     0.12212E+03 
  53716.4964     0.12118E+03 
  53748.7586     0.12025E+03 
  53781.0207     0.11932E+03 
  53813.2829     0.11839E+03 
  53845.5450     0.11747E+03 
  53877.8072     0.11655E+03 
  53910.0694     0.11564E+03 
  53942.3315     0.11473E+03 
  53974.5937     0.11382E+03 
  54006.8558     0.11292E+03 
  54039.1180     0.11202E+03 
  54071.3802     0.11113E+03 
  54103.6423     0.11024E+03 
  54135.9045     0.10936E+03 
  54168.1666     0.10848E+03 
  54200.4288     0.10760E+03 
  54232.6910     0.10673E+03 
  54264.9531     0.10586E+03 
  54297.2153     0.10500E+03 
  54329.4774     0.10414E+03 
  54361.7396     0.10328E+03 
  54394.0018     0.10243E+03 
  54426.2639     0.10158E+03 
  54458.5261     0.10074E+03 
  54490.7882     0.99902E+02 
  54523.0504     0.99067E+02 
  54555.3126     0.98237E+02 
  54587.5747     0.97411E+02 
  54619.8369     0.96589E+02 
  54652.0990     0.95771E+02 
  54684.3612     0.94958E+02 
  54716.6234     0.94148E+02 
  54748.8855     0.93343E+02 
  54781.1477     0.92542E+02 
  54813.4098     0.91745E+02 
  54845.6720     0.90952E+02 
  54877.9342     0.90164E+02 
  54910.1963     0.89379E+02 
  54942.4585     0.88599E+02 
  54974.7206     0.87822E+02 
  55006.9828     0.87050E+02 
  55039.2450     0.86282E+02 
  55071.5071     0.85518E+02 
  55103.7693     0.84758E+02 
  55136.0314     0.84002E+02 
  55168.2936     0.83250E+02 
  55200.5558     0.82503E+02 
  55232.8179     0.81759E+02 
  55265.0801     0.81020E+02 
  55297.3422     0.80284E+02 
  55329.6044     0.79553E+02 
  55361.8666     0.78826E+02 
  55394.1287     0.78102E+02 
  55426.3909     0.77383E+02 
  55458.6530     0.76668E+02 
  55490.9152     0.75956E+02 
  55523.1774     0.75249E+02 
  55555.4395     0.74546E+02 
  55587.7017     0.73847E+02 
  55619.9638     0.73151E+02 
  55652.2260     0.72460E+02 
  55684.4882     0.71773E+02 
  55716.7503     0.71090E+02 
  55749.0125     0.70410E+02 
  55781.2746     0.69735E+02 
  55813.5368     0.69063E+02 
  55845.7990     0.68396E+02 
  55878.0611     0.67732E+02 
  55910.3233     0.67072E+02 
  55942.5854     0.66416E+02 
  55974.8476     0.65764E+02 
  56007.1098     0.65116E+02 
  56039.3719     0.64472E+02 
  56071.6341     0.63832E+02 
  56103.8962     0.63195E+02 
  56136.1584     0.62562E+02 
  56168.4206     0.61934E+02 
  56200.6827     0.61309E+02 
  56232.9449     0.60687E+02 
  56265.2070     0.60070E+02 
  56297.4692     0.59456E+02 
  56329.7314     0.58846E+02 
  56361.9935     0.58240E+02 
  56394.2557     0.57638E+02 
  56426.5178     0.57039E+02 
  56458.7800     0.56445E+02 
  56491.0422     0.55854E+02 
  56523.3043     0.55266E+02 
  56555.5665     0.54682E+02 
  56587.8286     0.54102E+02 
  56620.0908     0.53526E+02 
  56652.3530     0.52954E+02 
  56684.6151     0.52385E+02 
  56716.8773     0.51819E+02 
  56749.1394     0.51258E+02 
  56781.4016     0.50700E+02 
  56813.6638     0.50145E+02 
  56845.9259     0.49594E+02 
  56878.1881     0.49047E+02 
  56910.4502     0.48504E+02 
  56942.7124     0.47964E+02 
  56974.9746     0.47427E+02 
  57007.2367     0.46894E+02 
  57039.4989     0.46365E+02 
  57071.7610     0.45839E+02 
  57104.0232     0.45317E+02 
  57136.2854     0.44798E+02 
  57168.5475     0.44283E+02 
  57200.8097     0.43771E+02 
  57233.0718     0.43263E+02 
  57265.3340     0.42758E+02 
  57297.5962     0.42256E+02 
  57329.8583     0.41758E+02 
  57362.1205     0.41264E+02 
  57394.3826     0.40773E+02 
  57426.6448     0.40285E+02 
  57458.9070     0.39801E+02 
  57491.1691     0.39320E+02 
  57523.4313     0.38842E+02 
  57555.6934     0.38368E+02 
  57587.9556     0.37897E+02 
  57620.2178     0.37430E+02 
  57652.4799     0.36966E+02 
  57684.7421     0.36505E+02 
  57717.0042     0.36047E+02 
  57749.2664     0.35593E+02 
  57781.5286     0.35142E+02 
  57813.7907     0.34695E+02 
  57846.0529     0.34250E+02 
  57878.3150     0.33809E+02 
  57910.5772     0.33371E+02 
  57942.8394     0.32937E+02 
  57975.1015     0.32505E+02 
  58007.3637     0.32077E+02 
  58039.6258     0.31652E+02 
  58071.8880     0.31231E+02 
  58104.1502     0.30812E+02 
  58136.4123     0.30397E+02 
  58168.6745     0.29984E+02 
  58200.9366     0.29575E+02 
  58233.1988     0.29169E+02 
  58265.4610     0.28767E+02 
  58297.7231     0.28367E+02 
  58329.9853     0.27970E+02 
  58362.2474     0.27577E+02 
  58394.5096     0.27187E+02 
  58426.7718     0.26799E+02 
  58459.0339     0.26415E+02 
  58491.2961     0.26034E+02 
  58523.5582     0.25656E+02 
  58555.8204     0.25281E+02 
  58588.0826     0.24909E+02 
  58620.3447     0.24540E+02 
  58652.6069     0.24174E+02 
  58684.8690     0.23811E+02 
  58717.1312     0.23451E+02 
  58749.3934     0.23094E+02 
  58781.6555     0.22741E+02 
  58813.9177     0.22390E+02 
  58846.1798     0.22042E+02 
  58878.4420     0.21697E+02 
  58910.7042     0.21355E+02 
  58942.9663     0.21016E+02 
  58975.2285     0.20680E+02 
  59007.4906     0.20346E+02 
  59039.7528     0.20016E+02 
  59072.0150     0.19689E+02 
  59104.2771     0.19364E+02 
  59136.5393     0.19043E+02 
  59168.8014     0.18724E+02 
  59201.0636     0.18409E+02 
  59233.3258     0.18096E+02 
  59265.5879     0.17786E+02 
  59297.8501     0.17479E+02 
  59330.1122     0.17175E+02 
  59362.3744     0.16874E+02 
  59394.6366     0.16575E+02 
  59426.8987     0.16280E+02 
  59459.1609     0.15987E+02 
  59491.4230     0.15697E+02 
  59523.6852     0.15410E+02 
  59555.9474     0.15126E+02 
  59588.2095     0.14844E+02 
  59620.4717     0.14566E+02 
  59652.7338     0.14290E+02 
  59684.9960     0.14017E+02 
  59717.2582     0.13747E+02 
  59749.5203     0.13480E+02 
  59781.7825     0.13216E+02 
  59814.0446     0.12954E+02 
  59846.3068     0.12695E+02 
  59878.5690     0.12440E+02 
  59910.8311     0.12186E+02 
  59943.0933     0.11936E+02 
  59975.3554     0.11689E+02 
  60007.6176     0.11444E+02 
  60039.8798     0.11202E+02 
  60072.1419     0.10963E+02 
  60104.4041     0.10726E+02 
  60136.6662     0.10493E+02 
  60168.9284     0.10262E+02 
  60201.1906     0.10034E+02 
  60233.4527     0.98093E+01 
  60265.7149     0.95870E+01 
  60297.9770     0.93675E+01 
  60330.2392     0.91509E+01 
  60362.5014     0.89370E+01 
  60394.7635     0.87260E+01 
  60427.0257     0.85178E+01 
  60459.2878     0.83124E+01 
  60491.5500     0.81099E+01 
  60523.8122     0.79102E+01 
  60556.0743     0.77133E+01 
  60588.3365     0.75193E+01 
  60620.5986     0.73281E+01 
  60652.8608     0.71398E+01 
  60685.1230     0.69543E+01 
  60717.3851     0.67717E+01 
  60749.6473     0.65919E+01 
  60781.9094     0.64151E+01 
  60814.1716     0.62411E+01 
  60846.4338     0.60700E+01 
  60878.6959     0.59018E+01 
  60910.9581     0.57366E+01 
  60943.2202     0.55742E+01 
  60975.4824     0.54148E+01 
  61007.7446     0.52583E+01 
  61040.0067     0.51048E+01 
  61072.2689     0.49543E+01 
  61104.5310     0.48067E+01 
  61136.7932     0.46621E+01 
  61169.0554     0.45205E+01 
  61201.3175     0.43819E+01 
  61233.5797     0.42463E+01 
  61265.8418     0.41138E+01 
  61298.1040     0.39843E+01 
  61330.3662     0.38579E+01 
  61362.6283     0.37346E+01 
  61394.8905     0.36144E+01 
  61427.1526     0.34973E+01 
  61459.4148     0.33834E+01 
  61491.6770     0.32725E+01 
  61523.9391     0.31649E+01 
  61556.2013     0.30605E+01 
  61588.4634     0.29593E+01 
  61620.7256     0.28613E+01 
  61652.9878     0.27665E+01 
  61685.2499     0.26750E+01 
  61717.5121     0.25869E+01 
  61749.7742     0.25020E+01 
  61782.0364     0.24205E+01 
  61814.2986     0.23424E+01 
  61846.5607     0.22676E+01 
  61878.8229     0.21963E+01 
  61911.0850     0.21284E+01 
  61943.3472     0.20640E+01 
  61975.6094     0.20031E+01 
  62007.8715     0.19457E+01 
  62040.1337     0.18919E+01 
  62072.3958     0.18416E+01 
  62104.6580     0.17950E+01 
  62136.9202     0.17520E+01 
  62169.1823     0.17128E+01 
  62201.4445     0.16772E+01 
  62233.7066     0.16454E+01 
  62265.9688     0.16173E+01 
  62298.2310     0.15931E+01 
  62330.4931     0.15728E+01 
  62362.7553     0.15563E+01 
  62395.0174     0.15438E+01 
  62427.2796     0.15353E+01 
  62459.5418     0.15307E+01 
  62491.8039     0.15303E+01 
  62524.0661     0.15339E+01 
  62556.3282     0.15417E+01 
  62588.5904     0.15536E+01 
  62620.8526     0.15698E+01 
  62653.1147     0.15903E+01 
  62685.3769     0.16150E+01 
  62717.6390     0.16442E+01 
  62749.9012     0.16778E+01 
  62782.1634     0.17158E+01 
  62814.4255     0.17584E+01 
  62846.6877     0.18056E+01 
  62878.9498     0.18574E+01 
  62911.2120     0.19138E+01 
  62943.4742     0.19751E+01 
  62975.7363     0.20411E+01 
  63007.9985     0.21119E+01 
  63040.2606     0.21877E+01 
  63072.5228     0.22685E+01 
  63104.7850     0.23543E+01 
  63137.0471     0.24452E+01 
  63169.3093     0.25413E+01 
  63201.5714     0.26426E+01 
  63233.8336     0.27492E+01 
  63266.0958     0.28612E+01 
  63298.3579     0.29786E+01 
  63330.6201     0.31016E+01 
  63362.8822     0.32301E+01 
  63395.1444     0.33643E+01 
  63427.4066     0.35042E+01 
  63459.6687     0.36499E+01 
  63491.9309     0.38015E+01 
  63524.1930     0.39591E+01 
  63556.4552     0.41227E+01 
  63588.7174     0.42924E+01 
  63620.9795     0.44684E+01 
  63653.2417     0.46507E+01 
  63685.5038     0.48393E+01 
  63717.7660     0.50345E+01 
  63750.0282     0.52362E+01 
  63782.2903     0.54446E+01 
  63814.5525     0.56597E+01 
  63846.8146     0.58817E+01 
  63879.0768     0.61106E+01 
  63911.3390     0.63466E+01 
  63943.6011     0.65897E+01 
  63975.8633     0.68401E+01 
  64008.1254     0.70978E+01 
  64040.3876     0.73630E+01 
  64072.6498     0.76358E+01 
  64104.9119     0.79162E+01 
  64137.1741     0.82045E+01 
  64169.4362     0.85006E+01 
  64201.6984     0.88048E+01 
  64233.9606     0.91171E+01 
  64266.2227     0.94377E+01 
  64298.4849     0.97666E+01 
  64330.7470     0.10104E+02 
  64363.0092     0.10450E+02 
  64395.2714     0.10805E+02 
  64427.5335     0.11169E+02 
  64459.7957     0.11541E+02 
  64492.0578     0.11923E+02 
  64524.3200     0.12314E+02 
  64556.5822     0.12715E+02 
  64588.8443     0.13125E+02 
  64621.1065     0.13545E+02 
  64653.3686     0.13975E+02 
  64685.6308     0.14415E+02 
  64717.8930     0.14864E+02 
  64750.1551     0.15325E+02 
  64782.4173     0.15795E+02 
  64814.6794     0.16277E+02 
  64846.9416     0.16769E+02 
  64879.2038     0.17272E+02 
  64911.4659     0.17786E+02 
  64943.7281     0.18311E+02 
  64975.9902     0.18848E+02 
  65008.2524     0.19396E+02 
  65040.5146     0.19956E+02 
  65072.7767     0.20528E+02 
  65105.0389     0.21113E+02 
  65137.3010     0.21709E+02 
  65169.5632     0.22318E+02 
  65201.8254     0.22940E+02 
  65234.0875     0.23575E+02 
  65266.3497     0.24222E+02 
  65298.6118     0.24883E+02 
  65330.8740     0.25558E+02 
  65363.1362     0.26246E+02 
  65395.3983     0.26948E+02 
  65427.6605     0.27663E+02 
  65459.9226     0.28394E+02 
  65492.1848     0.29139E+02 
  65524.4470     0.29898E+02 
  65556.7091     0.30672E+02 
  65588.9713     0.31462E+02 
  65621.2334     0.32267E+02 
  65653.4956     0.33087E+02 
  65685.7578     0.33924E+02 
  65718.0199     0.34776E+02 
  65750.2821     0.35645E+02 
  65782.5442     0.36530E+02 
  65814.8064     0.37432E+02 
  65847.0686     0.38351E+02 
  65879.3307     0.39287E+02 
  65911.5929     0.40241E+02 
  65943.8550     0.41212E+02 
  65976.1172     0.42202E+02 
  66008.3794     0.43210E+02 
  66040.6415     0.44236E+02 
  66072.9037     0.45281E+02 
  66105.1658     0.46346E+02 
  66137.4280     0.47429E+02 
  66169.6902     0.48533E+02 
  66201.9523     0.49656E+02 
  66234.2145     0.50799E+02 
  66266.4766     0.51963E+02 
  66298.7388     0.53148E+02 
  66331.0010     0.54354E+02 
  66363.2631     0.55581E+02 
  66395.5253     0.56830E+02 
  66427.7874     0.58100E+02 
  66460.0496     0.59393E+02 
  66492.3118     0.60709E+02 
  66524.5739     0.62048E+02 
  66556.8361     0.63410E+02 
  66589.0982     0.64795E+02 
  66621.3604     0.66204E+02 
  66653.6226     0.67638E+02 
  66685.8847     0.69096E+02 
  66718.1469     0.70579E+02 
  66750.4090     0.72087E+02 
  66782.6712     0.73620E+02 
  66814.9334     0.75180E+02 
  66847.1955     0.76766E+02 
  66879.4577     0.78378E+02 
  66911.7198     0.80018E+02 
  66943.9820     0.81684E+02 
  66976.2442     0.83379E+02 
  67008.5063     0.85101E+02 
  67040.7685     0.86852E+02 
  67073.0306     0.88632E+02 
  67105.2928     0.90441E+02 
  67137.5550     0.92279E+02 
  67169.8171     0.94148E+02 
  67202.0793     0.96046E+02 
  67234.3414     0.97976E+02 
  67266.6036     0.99937E+02 
  67298.8658     0.10193E+03 
  67331.1279     0.10395E+03 
  67363.3901     0.10601E+03 
  67395.6522     0.10810E+03 
  67427.9144     0.11022E+03 
  67460.1766     0.11238E+03 
  67492.4387     0.11457E+03 
  67524.7009     0.11679E+03 
  67556.9630     0.11905E+03 
  67589.2252     0.12135E+03 
  67621.4874     0.12368E+03 
  67653.7495     0.12604E+03 
  67686.0117     0.12845E+03 
  67718.2738     0.13089E+03 
  67750.5360     0.13337E+03 
  67782.7982     0.13588E+03 
  67815.0603     0.13844E+03 
  67847.3225     0.14103E+03 
  67879.5846     0.14366E+03 
  67911.8468     0.14633E+03 
  67944.1090     0.14905E+03 
  67976.3711     0.15180E+03 
  68008.6333     0.15460E+03 
  68040.8954     0.15743E+03 
  68073.1576     0.16031E+03 
  68105.4198     0.16323E+03 
  68137.6819     0.16620E+03 
  68169.9441     0.16921E+03 
  68202.2062     0.17226E+03 
  68234.4684     0.17536E+03 
  68266.7306     0.17850E+03 
  68298.9927     0.18169E+03 
  68331.2549     0.18493E+03 
  68363.5170     0.18821E+03 
  68395.7792     0.19154E+03 
  68428.0414     0.19492E+03 
  68460.3035     0.19834E+03 
  68492.5657     0.20182E+03 
  68524.8278     0.20534E+03 
  68557.0900     0.20891E+03 
  68589.3522     0.21254E+03 
  68621.6143     0.21621E+03 
  68653.8765     0.21994E+03 
  68686.1386     0.22372E+03 
  68718.4008     0.22755E+03 
  68750.6630     0.23144E+03 
  68782.9251     0.23538E+03 
  68815.1873     0.23937E+03 
  68847.4494     0.24342E+03 
  68879.7116     0.24752E+03 
  68911.9738     0.25168E+03 
  68944.2359     0.25590E+03 
  68976.4981     0.26017E+03 
  69008.7602     0.26450E+03 
  69041.0224     0.26889E+03 
  69073.2846     0.27334E+03 
  69105.5467     0.27785E+03 
  69137.8089     0.28241E+03 
  69170.0710     0.28704E+03 
  69202.3332     0.29173E+03 
  69234.5954     0.29648E+03 
  69266.8575     0.30130E+03 
  69299.1197     0.30617E+03 
  69331.3818     0.31111E+03 
  69363.6440     0.31612E+03 
  69395.9062     0.32119E+03 
  69428.1683     0.32632E+03 
  69460.4305     0.33152E+03 
  69492.6926     0.33679E+03 
  69524.9548     0.34212E+03 
  69557.2170     0.34753E+03 
  69589.4791     0.35300E+03 
  69621.7413     0.35854E+03 
  69654.0034     0.36414E+03 
  69686.2656     0.36982E+03 
  69718.5278     0.37557E+03 
  69750.7899     0.38139E+03 
  69783.0521     0.38729E+03 
  69815.3142     0.39325E+03 
  69847.5764     0.39929E+03 
  69879.8386     0.40540E+03 
  69912.1007     0.41159E+03 
  69944.3629     0.41785E+03 
  69976.6250     0.42419E+03 
  70008.8872     0.43060E+03 
  70041.1494     0.43709E+03 
  70073.4115     0.44366E+03 
  70105.6737     0.45030E+03 
  70137.9358     0.45703E+03 
  70170.1980     0.46383E+03 
  70202.4602     0.47071E+03 
  70234.7223     0.47768E+03 
  70266.9845     0.48472E+03 
  70299.2466     0.49185E+03 
  70331.5088     0.49905E+03 
  70363.7710     0.50635E+03 
  70396.0331     0.51372E+03 
  70428.2953     0.52118E+03 
  70460.5574     0.52872E+03 
  70492.8196     0.53635E+03 
  70525.0818     0.54406E+03 
  70557.3439     0.55186E+03 
  70589.6061     0.55975E+03 
  70621.8682     0.56772E+03 
  70654.1304     0.57579E+03 
  70686.3926     0.58394E+03 
  70718.6547     0.59218E+03 
  70750.9169     0.60051E+03 
  70783.1790     0.60893E+03 
  70815.4412     0.61744E+03 
  70847.7034     0.62604E+03 
  70879.9655     0.63474E+03 
  70912.2277     0.64352E+03 
  70944.4898     0.65240E+03 
  70976.7520     0.66138E+03 
  71009.0142     0.67045E+03 
  71041.2763     0.67961E+03 
  71073.5385     0.68887E+03 
  71105.8006     0.69822E+03 
  71138.0628     0.70767E+03 
  71170.3250     0.71722E+03 
  71202.5871     0.72686E+03 
  71234.8493     0.73661E+03 
  71267.1114     0.74645E+03 
  71299.3736     0.75639E+03 
  71331.6358     0.76643E+03 
  71363.8979     0.77657E+03 
  71396.1601     0.78681E+03 
  71428.4222     0.79715E+03 
  71460.6844     0.80759E+03 
  71492.9466     0.81813E+03 
  71525.2087     0.82878E+03 
  71557.4709     0.83953E+03 
  71589.7330     0.85038E+03 
  71621.9952     0.86133E+03 
  71654.2574     0.87239E+03 
  71686.5195     0.88356E+03 
  71718.7817     0.89483E+03 
  71751.0438     0.90620E+03 
  71783.3060     0.91768E+03 
  71815.5682     0.92927E+03 
  71847.8303     0.94096E+03 
  71880.0925     0.95276E+03 
  71912.3546     0.96467E+03 
  71944.6168     0.97668E+03 
  71976.8790     0.98880E+03 
  72009.1411     0.10010E+04 
  72041.4033     0.10134E+04 
  72073.6654     0.10258E+04 
  72105.9276     0.10384E+04 
  72138.1898     0.10511E+04 
  72170.4519     0.10638E+04 
  72202.7141     0.10767E+04 
  72234.9762     0.10897E+04 
  72267.2384     0.11028E+04 
  72299.5006     0.11161E+04 
  72331.7627     0.11294E+04 
  72364.0249     0.11428E+04 
  72396.2870     0.11564E+04 
  72428.5492     0.11701E+04 
  72460.8114     0.11838E+04 
  72493.0735     0.11977E+04 
  72525.3357     0.12117E+04 
  72557.5978     0.12259E+04 
  72589.8600     0.12401E+04 
