  32262.1600     0.76049E+01 
  32294.4222     0.77199E+01 
  32326.6843     0.78362E+01 
  32358.9465     0.79538E+01 
  32391.2086     0.80726E+01 
  32423.4708     0.81926E+01 
  32455.7330     0.83140E+01 
  32487.9951     0.84366E+01 
  32520.2573     0.85605E+01 
  32552.5194     0.86856E+01 
  32584.7816     0.88121E+01 
  32617.0438     0.89398E+01 
  32649.3059     0.90688E+01 
  32681.5681     0.91991E+01 
  32713.8302     0.93307E+01 
  32746.0924     0.94636E+01 
  32778.3546     0.95977E+01 
  32810.6167     0.97332E+01 
  32842.8789     0.98700E+01 
  32875.1410     0.10008E+02 
  32907.4032     0.10147E+02 
  32939.6654     0.10288E+02 
  32971.9275     0.10430E+02 
  33004.1897     0.10573E+02 
  33036.4518     0.10718E+02 
  33068.7140     0.10864E+02 
  33100.9762     0.11011E+02 
  33133.2383     0.11159E+02 
  33165.5005     0.11309E+02 
  33197.7626     0.11460E+02 
  33230.0248     0.11613E+02 
  33262.2870     0.11766E+02 
  33294.5491     0.11921E+02 
  33326.8113     0.12077E+02 
  33359.0734     0.12235E+02 
  33391.3356     0.12394E+02 
  33423.5978     0.12554E+02 
  33455.8599     0.12715E+02 
  33488.1221     0.12878E+02 
  33520.3842     0.13042E+02 
  33552.6464     0.13207E+02 
  33584.9086     0.13374E+02 
  33617.1707     0.13541E+02 
  33649.4329     0.13710E+02 
  33681.6950     0.13881E+02 
  33713.9572     0.14052E+02 
  33746.2194     0.14225E+02 
  33778.4815     0.14399E+02 
  33810.7437     0.14574E+02 
  33843.0058     0.14751E+02 
  33875.2680     0.14928E+02 
  33907.5302     0.15107E+02 
  33939.7923     0.15287E+02 
  33972.0545     0.15469E+02 
  34004.3166     0.15651E+02 
  34036.5788     0.15835E+02 
  34068.8410     0.16020E+02 
  34101.1031     0.16206E+02 
  34133.3653     0.16393E+02 
  34165.6274     0.16582E+02 
  34197.8896     0.16771E+02 
  34230.1518     0.16962E+02 
  34262.4139     0.17154E+02 
  34294.6761     0.17347E+02 
  34326.9382     0.17541E+02 
  34359.2004     0.17736E+02 
  34391.4626     0.17932E+02 
  34423.7247     0.18129E+02 
  34455.9869     0.18328E+02 
  34488.2490     0.18527E+02 
  34520.5112     0.18728E+02 
  34552.7734     0.18929E+02 
  34585.0355     0.19132E+02 
  34617.2977     0.19336E+02 
  34649.5598     0.19540E+02 
  34681.8220     0.19746E+02 
  34714.0842     0.19952E+02 
  34746.3463     0.20160E+02 
  34778.6085     0.20368E+02 
  34810.8706     0.20578E+02 
  34843.1328     0.20788E+02 
  34875.3950     0.20999E+02 
  34907.6571     0.21212E+02 
  34939.9193     0.21425E+02 
  34972.1814     0.21639E+02 
  35004.4436     0.21853E+02 
  35036.7058     0.22069E+02 
  35068.9679     0.22286E+02 
  35101.2301     0.22503E+02 
  35133.4922     0.22721E+02 
  35165.7544     0.22940E+02 
  35198.0166     0.23159E+02 
  35230.2787     0.23380E+02 
  35262.5409     0.23601E+02 
  35294.8030     0.23823E+02 
  35327.0652     0.24045E+02 
  35359.3274     0.24268E+02 
  35391.5895     0.24492E+02 
  35423.8517     0.24717E+02 
  35456.1138     0.24942E+02 
  35488.3760     0.25168E+02 
  35520.6382     0.25394E+02 
  35552.9003     0.25621E+02 
  35585.1625     0.25849E+02 
  35617.4246     0.26077E+02 
  35649.6868     0.26305E+02 
  35681.9490     0.26534E+02 
  35714.2111     0.26764E+02 
  35746.4733     0.26994E+02 
  35778.7354     0.27224E+02 
  35810.9976     0.27455E+02 
  35843.2598     0.27686E+02 
  35875.5219     0.27918E+02 
  35907.7841     0.28150E+02 
  35940.0462     0.28382E+02 
  35972.3084     0.28615E+02 
  36004.5706     0.28848E+02 
  36036.8327     0.29082E+02 
  36069.0949     0.29315E+02 
  36101.3570     0.29549E+02 
  36133.6192     0.29783E+02 
  36165.8814     0.30017E+02 
  36198.1435     0.30252E+02 
  36230.4057     0.30486E+02 
  36262.6678     0.30721E+02 
  36294.9300     0.30956E+02 
  36327.1922     0.31191E+02 
  36359.4543     0.31426E+02 
  36391.7165     0.31661E+02 
  36423.9786     0.31896E+02 
  36456.2408     0.32131E+02 
  36488.5030     0.32366E+02 
  36520.7651     0.32601E+02 
  36553.0273     0.32836E+02 
  36585.2894     0.33071E+02 
  36617.5516     0.33306E+02 
  36649.8138     0.33541E+02 
  36682.0759     0.33776E+02 
  36714.3381     0.34010E+02 
  36746.6002     0.34244E+02 
  36778.8624     0.34478E+02 
  36811.1246     0.34712E+02 
  36843.3867     0.34946E+02 
  36875.6489     0.35179E+02 
  36907.9110     0.35412E+02 
  36940.1732     0.35644E+02 
  36972.4354     0.35877E+02 
  37004.6975     0.36109E+02 
  37036.9597     0.36340E+02 
  37069.2218     0.36571E+02 
  37101.4840     0.36802E+02 
  37133.7462     0.37032E+02 
  37166.0083     0.37262E+02 
  37198.2705     0.37491E+02 
  37230.5326     0.37720E+02 
  37262.7948     0.37948E+02 
  37295.0570     0.38176E+02 
  37327.3191     0.38403E+02 
  37359.5813     0.38629E+02 
  37391.8434     0.38855E+02 
  37424.1056     0.39080E+02 
  37456.3678     0.39305E+02 
  37488.6299     0.39528E+02 
  37520.8921     0.39751E+02 
  37553.1542     0.39974E+02 
  37585.4164     0.40195E+02 
  37617.6786     0.40416E+02 
  37649.9407     0.40636E+02 
  37682.2029     0.40855E+02 
  37714.4650     0.41073E+02 
  37746.7272     0.41290E+02 
  37778.9894     0.41507E+02 
  37811.2515     0.41722E+02 
  37843.5137     0.41937E+02 
  37875.7758     0.42150E+02 
  37908.0380     0.42363E+02 
  37940.3002     0.42575E+02 
  37972.5623     0.42785E+02 
  38004.8245     0.42995E+02 
  38037.0866     0.43203E+02 
  38069.3488     0.43411E+02 
  38101.6110     0.43617E+02 
  38133.8731     0.43822E+02 
  38166.1353     0.44026E+02 
  38198.3974     0.44229E+02 
  38230.6596     0.44430E+02 
  38262.9218     0.44631E+02 
  38295.1839     0.44830E+02 
  38327.4461     0.45028E+02 
  38359.7082     0.45225E+02 
  38391.9704     0.45420E+02 
  38424.2326     0.45614E+02 
  38456.4947     0.45807E+02 
  38488.7569     0.45998E+02 
  38521.0190     0.46189E+02 
  38553.2812     0.46377E+02 
  38585.5434     0.46565E+02 
  38617.8055     0.46750E+02 
  38650.0677     0.46935E+02 
  38682.3298     0.47118E+02 
  38714.5920     0.47299E+02 
  38746.8542     0.47479E+02 
  38779.1163     0.47658E+02 
  38811.3785     0.47835E+02 
  38843.6406     0.48011E+02 
  38875.9028     0.48185E+02 
  38908.1650     0.48357E+02 
  38940.4271     0.48528E+02 
  38972.6893     0.48697E+02 
  39004.9514     0.48865E+02 
  39037.2136     0.49030E+02 
  39069.4758     0.49195E+02 
  39101.7379     0.49357E+02 
  39134.0001     0.49518E+02 
  39166.2622     0.49678E+02 
  39198.5244     0.49835E+02 
  39230.7866     0.49991E+02 
  39263.0487     0.50145E+02 
  39295.3109     0.50298E+02 
  39327.5730     0.50448E+02 
  39359.8352     0.50597E+02 
  39392.0974     0.50744E+02 
  39424.3595     0.50890E+02 
  39456.6217     0.51033E+02 
  39488.8838     0.51175E+02 
  39521.1460     0.51315E+02 
  39553.4082     0.51453E+02 
  39585.6703     0.51589E+02 
  39617.9325     0.51723E+02 
  39650.1946     0.51856E+02 
  39682.4568     0.51986E+02 
  39714.7190     0.52115E+02 
  39746.9811     0.52241E+02 
  39779.2433     0.52366E+02 
  39811.5054     0.52489E+02 
  39843.7676     0.52610E+02 
  39876.0298     0.52729E+02 
  39908.2919     0.52846E+02 
  39940.5541     0.52961E+02 
  39972.8162     0.53074E+02 
  40005.0784     0.53185E+02 
  40037.3406     0.53294E+02 
  40069.6027     0.53402E+02 
  40101.8649     0.53507E+02 
  40134.1270     0.53610E+02 
  40166.3892     0.53711E+02 
  40198.6514     0.53810E+02 
  40230.9135     0.53907E+02 
  40263.1757     0.54002E+02 
  40295.4378     0.54095E+02 
  40327.7000     0.54186E+02 
  40359.9622     0.54275E+02 
  40392.2243     0.54362E+02 
  40424.4865     0.54446E+02 
  40456.7486     0.54529E+02 
  40489.0108     0.54610E+02 
  40521.2730     0.54688E+02 
  40553.5351     0.54765E+02 
  40585.7973     0.54839E+02 
  40618.0594     0.54911E+02 
  40650.3216     0.54982E+02 
  40682.5838     0.55050E+02 
  40714.8459     0.55116E+02 
  40747.1081     0.55180E+02 
  40779.3702     0.55242E+02 
  40811.6324     0.55301E+02 
  40843.8946     0.55359E+02 
  40876.1567     0.55414E+02 
  40908.4189     0.55468E+02 
  40940.6810     0.55519E+02 
  40972.9432     0.55568E+02 
  41005.2054     0.55615E+02 
  41037.4675     0.55660E+02 
  41069.7297     0.55703E+02 
  41101.9918     0.55744E+02 
  41134.2540     0.55783E+02 
  41166.5162     0.55819E+02 
  41198.7783     0.55854E+02 
  41231.0405     0.55886E+02 
  41263.3026     0.55916E+02 
  41295.5648     0.55945E+02 
  41327.8270     0.55971E+02 
  41360.0891     0.55995E+02 
  41392.3513     0.56017E+02 
  41424.6134     0.56036E+02 
  41456.8756     0.56054E+02 
  41489.1378     0.56070E+02 
  41521.3999     0.56083E+02 
  41553.6621     0.56095E+02 
  41585.9242     0.56104E+02 
  41618.1864     0.56112E+02 
  41650.4486     0.56117E+02 
  41682.7107     0.56120E+02 
  41714.9729     0.56121E+02 
  41747.2350     0.56120E+02 
  41779.4972     0.56117E+02 
  41811.7594     0.56112E+02 
  41844.0215     0.56105E+02 
  41876.2837     0.56096E+02 
  41908.5458     0.56085E+02 
  41940.8080     0.56072E+02 
  41973.0702     0.56057E+02 
  42005.3323     0.56040E+02 
  42037.5945     0.56021E+02 
  42069.8566     0.56000E+02 
  42102.1188     0.55977E+02 
  42134.3810     0.55952E+02 
  42166.6431     0.55925E+02 
  42198.9053     0.55896E+02 
  42231.1674     0.55866E+02 
  42263.4296     0.55833E+02 
  42295.6918     0.55798E+02 
  42327.9539     0.55761E+02 
  42360.2161     0.55723E+02 
  42392.4782     0.55682E+02 
  42424.7404     0.55640E+02 
  42457.0026     0.55596E+02 
  42489.2647     0.55550E+02 
  42521.5269     0.55502E+02 
  42553.7890     0.55452E+02 
  42586.0512     0.55400E+02 
  42618.3134     0.55346E+02 
  42650.5755     0.55291E+02 
  42682.8377     0.55234E+02 
  42715.0998     0.55175E+02 
  42747.3620     0.55114E+02 
  42779.6242     0.55051E+02 
  42811.8863     0.54987E+02 
  42844.1485     0.54921E+02 
  42876.4106     0.54853E+02 
  42908.6728     0.54783E+02 
  42940.9350     0.54712E+02 
  42973.1971     0.54639E+02 
  43005.4593     0.54564E+02 
  43037.7214     0.54487E+02 
  43069.9836     0.54409E+02 
  43102.2458     0.54329E+02 
  43134.5079     0.54248E+02 
  43166.7701     0.54165E+02 
  43199.0322     0.54080E+02 
  43231.2944     0.53993E+02 
  43263.5566     0.53905E+02 
  43295.8187     0.53816E+02 
  43328.0809     0.53724E+02 
  43360.3430     0.53632E+02 
  43392.6052     0.53537E+02 
  43424.8674     0.53441E+02 
  43457.1295     0.53344E+02 
  43489.3917     0.53245E+02 
  43521.6538     0.53144E+02 
  43553.9160     0.53042E+02 
  43586.1782     0.52939E+02 
  43618.4403     0.52834E+02 
  43650.7025     0.52727E+02 
  43682.9646     0.52619E+02 
  43715.2268     0.52510E+02 
  43747.4890     0.52399E+02 
  43779.7511     0.52287E+02 
  43812.0133     0.52174E+02 
  43844.2754     0.52059E+02 
  43876.5376     0.51943E+02 
  43908.7998     0.51825E+02 
  43941.0619     0.51706E+02 
  43973.3241     0.51586E+02 
  44005.5862     0.51465E+02 
  44037.8484     0.51342E+02 
  44070.1106     0.51218E+02 
  44102.3727     0.51092E+02 
  44134.6349     0.50966E+02 
  44166.8970     0.50838E+02 
  44199.1592     0.50709E+02 
  44231.4214     0.50579E+02 
  44263.6835     0.50447E+02 
  44295.9457     0.50315E+02 
  44328.2078     0.50181E+02 
  44360.4700     0.50046E+02 
  44392.7322     0.49910E+02 
  44424.9943     0.49773E+02 
  44457.2565     0.49635E+02 
  44489.5186     0.49496E+02 
  44521.7808     0.49355E+02 
  44554.0430     0.49214E+02 
  44586.3051     0.49071E+02 
  44618.5673     0.48928E+02 
  44650.8294     0.48783E+02 
  44683.0916     0.48638E+02 
  44715.3538     0.48491E+02 
  44747.6159     0.48344E+02 
  44779.8781     0.48195E+02 
  44812.1402     0.48046E+02 
  44844.4024     0.47896E+02 
  44876.6646     0.47745E+02 
  44908.9267     0.47593E+02 
  44941.1889     0.47440E+02 
  44973.4510     0.47286E+02 
  45005.7132     0.47131E+02 
  45037.9754     0.46976E+02 
  45070.2375     0.46820E+02 
  45102.4997     0.46662E+02 
  45134.7618     0.46505E+02 
  45167.0240     0.46346E+02 
  45199.2862     0.46186E+02 
  45231.5483     0.46026E+02 
  45263.8105     0.45865E+02 
  45296.0726     0.45704E+02 
  45328.3348     0.45542E+02 
  45360.5970     0.45379E+02 
  45392.8591     0.45215E+02 
  45425.1213     0.45051E+02 
  45457.3834     0.44886E+02 
  45489.6456     0.44720E+02 
  45521.9078     0.44554E+02 
  45554.1699     0.44387E+02 
  45586.4321     0.44220E+02 
  45618.6942     0.44052E+02 
  45650.9564     0.43883E+02 
  45683.2186     0.43714E+02 
  45715.4807     0.43544E+02 
  45747.7429     0.43374E+02 
  45780.0050     0.43204E+02 
  45812.2672     0.43033E+02 
  45844.5294     0.42861E+02 
  45876.7915     0.42689E+02 
  45909.0537     0.42516E+02 
  45941.3158     0.42343E+02 
  45973.5780     0.42170E+02 
  46005.8402     0.41996E+02 
  46038.1023     0.41822E+02 
  46070.3645     0.41648E+02 
  46102.6266     0.41473E+02 
  46134.8888     0.41297E+02 
  46167.1510     0.41122E+02 
  46199.4131     0.40946E+02 
  46231.6753     0.40770E+02 
  46263.9374     0.40593E+02 
  46296.1996     0.40416E+02 
  46328.4618     0.40239E+02 
  46360.7239     0.40062E+02 
  46392.9861     0.39884E+02 
  46425.2482     0.39706E+02 
  46457.5104     0.39528E+02 
  46489.7726     0.39350E+02 
  46522.0347     0.39171E+02 
  46554.2969     0.38993E+02 
  46586.5590     0.38814E+02 
  46618.8212     0.38635E+02 
  46651.0834     0.38456E+02 
  46683.3455     0.38276E+02 
  46715.6077     0.38097E+02 
  46747.8698     0.37917E+02 
  46780.1320     0.37738E+02 
  46812.3942     0.37558E+02 
  46844.6563     0.37378E+02 
  46876.9185     0.37198E+02 
  46909.1806     0.37018E+02 
  46941.4428     0.36838E+02 
  46973.7050     0.36658E+02 
  47005.9671     0.36478E+02 
  47038.2293     0.36298E+02 
  47070.4914     0.36118E+02 
  47102.7536     0.35937E+02 
  47135.0158     0.35757E+02 
  47167.2779     0.35577E+02 
  47199.5401     0.35397E+02 
  47231.8022     0.35217E+02 
  47264.0644     0.35037E+02 
  47296.3266     0.34857E+02 
  47328.5887     0.34678E+02 
  47360.8509     0.34498E+02 
  47393.1130     0.34318E+02 
  47425.3752     0.34139E+02 
  47457.6374     0.33960E+02 
  47489.8995     0.33780E+02 
  47522.1617     0.33601E+02 
  47554.4238     0.33422E+02 
  47586.6860     0.33243E+02 
  47618.9482     0.33065E+02 
  47651.2103     0.32886E+02 
  47683.4725     0.32708E+02 
  47715.7346     0.32530E+02 
  47747.9968     0.32352E+02 
  47780.2590     0.32174E+02 
  47812.5211     0.31997E+02 
  47844.7833     0.31820E+02 
  47877.0454     0.31643E+02 
  47909.3076     0.31466E+02 
  47941.5698     0.31290E+02 
  47973.8319     0.31113E+02 
  48006.0941     0.30937E+02 
  48038.3562     0.30762E+02 
  48070.6184     0.30586E+02 
  48102.8806     0.30411E+02 
  48135.1427     0.30236E+02 
  48167.4049     0.30062E+02 
  48199.6670     0.29888E+02 
  48231.9292     0.29714E+02 
  48264.1914     0.29540E+02 
  48296.4535     0.29367E+02 
  48328.7157     0.29194E+02 
  48360.9778     0.29022E+02 
  48393.2400     0.28850E+02 
  48425.5022     0.28678E+02 
  48457.7643     0.28507E+02 
  48490.0265     0.28336E+02 
  48522.2886     0.28165E+02 
  48554.5508     0.27995E+02 
  48586.8130     0.27825E+02 
  48619.0751     0.27656E+02 
  48651.3373     0.27487E+02 
  48683.5994     0.27318E+02 
  48715.8616     0.27150E+02 
  48748.1238     0.26982E+02 
  48780.3859     0.26815E+02 
  48812.6481     0.26648E+02 
  48844.9102     0.26482E+02 
  48877.1724     0.26316E+02 
  48909.4346     0.26150E+02 
  48941.6967     0.25985E+02 
  48973.9589     0.25821E+02 
  49006.2210     0.25657E+02 
  49038.4832     0.25493E+02 
  49070.7454     0.25330E+02 
  49103.0075     0.25167E+02 
  49135.2697     0.25005E+02 
  49167.5318     0.24844E+02 
  49199.7940     0.24683E+02 
  49232.0562     0.24522E+02 
  49264.3183     0.24362E+02 
  49296.5805     0.24202E+02 
  49328.8426     0.24043E+02 
  49361.1048     0.23885E+02 
  49393.3670     0.23727E+02 
  49425.6291     0.23569E+02 
  49457.8913     0.23412E+02 
  49490.1534     0.23256E+02 
  49522.4156     0.23100E+02 
  49554.6778     0.22945E+02 
  49586.9399     0.22790E+02 
  49619.2021     0.22636E+02 
  49651.4642     0.22482E+02 
  49683.7264     0.22329E+02 
  49715.9886     0.22177E+02 
  49748.2507     0.22025E+02 
  49780.5129     0.21874E+02 
  49812.7750     0.21723E+02 
  49845.0372     0.21573E+02 
  49877.2994     0.21423E+02 
  49909.5615     0.21274E+02 
  49941.8237     0.21126E+02 
  49974.0858     0.20978E+02 
  50006.3480     0.20830E+02 
  50038.6102     0.20684E+02 
  50070.8723     0.20538E+02 
  50103.1345     0.20392E+02 
  50135.3966     0.20247E+02 
  50167.6588     0.20103E+02 
  50199.9210     0.19960E+02 
  50232.1831     0.19817E+02 
  50264.4453     0.19674E+02 
  50296.7074     0.19532E+02 
  50328.9696     0.19391E+02 
  50361.2318     0.19251E+02 
  50393.4939     0.19111E+02 
  50425.7561     0.18971E+02 
  50458.0182     0.18833E+02 
  50490.2804     0.18695E+02 
  50522.5426     0.18557E+02 
  50554.8047     0.18420E+02 
  50587.0669     0.18284E+02 
  50619.3290     0.18148E+02 
  50651.5912     0.18014E+02 
  50683.8534     0.17879E+02 
  50716.1155     0.17746E+02 
  50748.3777     0.17613E+02 
  50780.6398     0.17480E+02 
  50812.9020     0.17348E+02 
  50845.1642     0.17217E+02 
  50877.4263     0.17087E+02 
  50909.6885     0.16957E+02 
  50941.9506     0.16828E+02 
  50974.2128     0.16699E+02 
  51006.4750     0.16571E+02 
  51038.7371     0.16444E+02 
  51070.9993     0.16317E+02 
  51103.2614     0.16191E+02 
  51135.5236     0.16066E+02 
  51167.7858     0.15941E+02 
  51200.0479     0.15817E+02 
  51232.3101     0.15694E+02 
  51264.5722     0.15571E+02 
  51296.8344     0.15449E+02 
  51329.0966     0.15327E+02 
  51361.3587     0.15206E+02 
  51393.6209     0.15086E+02 
  51425.8830     0.14966E+02 
  51458.1452     0.14847E+02 
  51490.4074     0.14729E+02 
  51522.6695     0.14611E+02 
  51554.9317     0.14494E+02 
  51587.1938     0.14378E+02 
  51619.4560     0.14262E+02 
  51651.7182     0.14147E+02 
  51683.9803     0.14033E+02 
  51716.2425     0.13919E+02 
  51748.5046     0.13806E+02 
  51780.7668     0.13693E+02 
  51813.0290     0.13581E+02 
  51845.2911     0.13470E+02 
  51877.5533     0.13359E+02 
  51909.8154     0.13249E+02 
  51942.0776     0.13140E+02 
  51974.3398     0.13031E+02 
  52006.6019     0.12923E+02 
  52038.8641     0.12816E+02 
  52071.1262     0.12709E+02 
  52103.3884     0.12602E+02 
  52135.6506     0.12497E+02 
  52167.9127     0.12392E+02 
  52200.1749     0.12288E+02 
  52232.4370     0.12184E+02 
  52264.6992     0.12081E+02 
  52296.9614     0.11978E+02 
  52329.2235     0.11876E+02 
  52361.4857     0.11775E+02 
  52393.7478     0.11675E+02 
  52426.0100     0.11575E+02 
  52458.2722     0.11475E+02 
  52490.5343     0.11376E+02 
  52522.7965     0.11278E+02 
  52555.0586     0.11181E+02 
  52587.3208     0.11084E+02 
  52619.5830     0.10987E+02 
  52651.8451     0.10892E+02 
  52684.1073     0.10797E+02 
  52716.3694     0.10702E+02 
  52748.6316     0.10608E+02 
  52780.8938     0.10515E+02 
  52813.1559     0.10422E+02 
  52845.4181     0.10330E+02 
  52877.6802     0.10238E+02 
  52909.9424     0.10147E+02 
  52942.2046     0.10057E+02 
  52974.4667     0.99673E+01 
  53006.7289     0.98781E+01 
  53038.9910     0.97895E+01 
  53071.2532     0.97015E+01 
  53103.5154     0.96141E+01 
  53135.7775     0.95272E+01 
  53168.0397     0.94409E+01 
  53200.3018     0.93552E+01 
  53232.5640     0.92701E+01 
  53264.8262     0.91856E+01 
  53297.0883     0.91016E+01 
  53329.3505     0.90181E+01 
  53361.6126     0.89353E+01 
  53393.8748     0.88530E+01 
  53426.1370     0.87713E+01 
  53458.3991     0.86901E+01 
  53490.6613     0.86095E+01 
  53522.9234     0.85294E+01 
  53555.1856     0.84499E+01 
  53587.4478     0.83709E+01 
  53619.7099     0.82925E+01 
  53651.9721     0.82146E+01 
  53684.2342     0.81373E+01 
  53716.4964     0.80605E+01 
  53748.7586     0.79843E+01 
  53781.0207     0.79086E+01 
  53813.2829     0.78334E+01 
  53845.5450     0.77587E+01 
  53877.8072     0.76846E+01 
  53910.0694     0.76110E+01 
  53942.3315     0.75380E+01 
  53974.5937     0.74654E+01 
  54006.8558     0.73934E+01 
  54039.1180     0.73219E+01 
  54071.3802     0.72509E+01 
  54103.6423     0.71804E+01 
  54135.9045     0.71105E+01 
  54168.1666     0.70410E+01 
  54200.4288     0.69720E+01 
  54232.6910     0.69036E+01 
  54264.9531     0.68356E+01 
  54297.2153     0.67682E+01 
  54329.4774     0.67013E+01 
  54361.7396     0.66348E+01 
  54394.0018     0.65688E+01 
  54426.2639     0.65034E+01 
  54458.5261     0.64384E+01 
  54490.7882     0.63739E+01 
  54523.0504     0.63098E+01 
  54555.3126     0.62463E+01 
  54587.5747     0.61832E+01 
  54619.8369     0.61206E+01 
  54652.0990     0.60585E+01 
  54684.3612     0.59969E+01 
  54716.6234     0.59357E+01 
  54748.8855     0.58750E+01 
  54781.1477     0.58147E+01 
  54813.4098     0.57549E+01 
  54845.6720     0.56956E+01 
  54877.9342     0.56367E+01 
  54910.1963     0.55782E+01 
  54942.4585     0.55203E+01 
  54974.7206     0.54627E+01 
  55006.9828     0.54056E+01 
  55039.2450     0.53490E+01 
  55071.5071     0.52928E+01 
  55103.7693     0.52370E+01 
  55136.0314     0.51817E+01 
  55168.2936     0.51268E+01 
  55200.5558     0.50723E+01 
  55232.8179     0.50183E+01 
  55265.0801     0.49647E+01 
  55297.3422     0.49115E+01 
  55329.6044     0.48587E+01 
  55361.8666     0.48063E+01 
  55394.1287     0.47544E+01 
  55426.3909     0.47029E+01 
  55458.6530     0.46518E+01 
  55490.9152     0.46011E+01 
  55523.1774     0.45508E+01 
  55555.4395     0.45009E+01 
  55587.7017     0.44514E+01 
  55619.9638     0.44023E+01 
  55652.2260     0.43536E+01 
  55684.4882     0.43053E+01 
  55716.7503     0.42574E+01 
  55749.0125     0.42098E+01 
  55781.2746     0.41627E+01 
  55813.5368     0.41159E+01 
  55845.7990     0.40696E+01 
  55878.0611     0.40236E+01 
  55910.3233     0.39780E+01 
  55942.5854     0.39327E+01 
  55974.8476     0.38879E+01 
  56007.1098     0.38434E+01 
  56039.3719     0.37993E+01 
  56071.6341     0.37555E+01 
  56103.8962     0.37121E+01 
  56136.1584     0.36691E+01 
  56168.4206     0.36264E+01 
  56200.6827     0.35841E+01 
  56232.9449     0.35421E+01 
  56265.2070     0.35005E+01 
  56297.4692     0.34593E+01 
  56329.7314     0.34184E+01 
  56361.9935     0.33778E+01 
  56394.2557     0.33376E+01 
  56426.5178     0.32977E+01 
  56458.7800     0.32582E+01 
  56491.0422     0.32190E+01 
  56523.3043     0.31801E+01 
  56555.5665     0.31415E+01 
  56587.8286     0.31033E+01 
  56620.0908     0.30655E+01 
  56652.3530     0.30279E+01 
  56684.6151     0.29907E+01 
  56716.8773     0.29538E+01 
  56749.1394     0.29172E+01 
  56781.4016     0.28809E+01 
  56813.6638     0.28450E+01 
  56845.9259     0.28093E+01 
  56878.1881     0.27740E+01 
  56910.4502     0.27390E+01 
  56942.7124     0.27042E+01 
  56974.9746     0.26698E+01 
  57007.2367     0.26357E+01 
  57039.4989     0.26019E+01 
  57071.7610     0.25684E+01 
  57104.0232     0.25352E+01 
  57136.2854     0.25023E+01 
  57168.5475     0.24697E+01 
  57200.8097     0.24373E+01 
  57233.0718     0.24053E+01 
  57265.3340     0.23735E+01 
  57297.5962     0.23421E+01 
  57329.8583     0.23109E+01 
  57362.1205     0.22800E+01 
  57394.3826     0.22494E+01 
  57426.6448     0.22190E+01 
  57458.9070     0.21889E+01 
  57491.1691     0.21591E+01 
  57523.4313     0.21296E+01 
  57555.6934     0.21003E+01 
  57587.9556     0.20714E+01 
  57620.2178     0.20426E+01 
  57652.4799     0.20142E+01 
  57684.7421     0.19860E+01 
  57717.0042     0.19581E+01 
  57749.2664     0.19304E+01 
  57781.5286     0.19030E+01 
  57813.7907     0.18758E+01 
  57846.0529     0.18489E+01 
  57878.3150     0.18222E+01 
  57910.5772     0.17958E+01 
  57942.8394     0.17697E+01 
  57975.1015     0.17438E+01 
  58007.3637     0.17181E+01 
  58039.6258     0.16927E+01 
  58071.8880     0.16675E+01 
  58104.1502     0.16426E+01 
  58136.4123     0.16179E+01 
  58168.6745     0.15934E+01 
  58200.9366     0.15692E+01 
  58233.1988     0.15452E+01 
  58265.4610     0.15215E+01 
  58297.7231     0.14979E+01 
  58329.9853     0.14746E+01 
  58362.2474     0.14516E+01 
  58394.5096     0.14287E+01 
  58426.7718     0.14061E+01 
  58459.0339     0.13837E+01 
  58491.2961     0.13616E+01 
  58523.5582     0.13396E+01 
  58555.8204     0.13179E+01 
  58588.0826     0.12964E+01 
  58620.3447     0.12751E+01 
  58652.6069     0.12540E+01 
  58684.8690     0.12332E+01 
  58717.1312     0.12125E+01 
  58749.3934     0.11921E+01 
  58781.6555     0.11719E+01 
  58813.9177     0.11518E+01 
  58846.1798     0.11320E+01 
  58878.4420     0.11124E+01 
  58910.7042     0.10930E+01 
  58942.9663     0.10738E+01 
  58975.2285     0.10548E+01 
  59007.4906     0.10360E+01 
  59039.7528     0.10174E+01 
  59072.0150     0.99905E+00 
  59104.2771     0.98085E+00 
  59136.5393     0.96285E+00 
  59168.8014     0.94504E+00 
  59201.0636     0.92743E+00 
  59233.3258     0.91001E+00 
  59265.5879     0.89279E+00 
  59297.8501     0.87575E+00 
  59330.1122     0.85891E+00 
  59362.3744     0.84225E+00 
  59394.6366     0.82578E+00 
  59426.8987     0.80950E+00 
  59459.1609     0.79340E+00 
  59491.4230     0.77749E+00 
  59523.6852     0.76176E+00 
  59555.9474     0.74621E+00 
  59588.2095     0.73085E+00 
  59620.4717     0.71567E+00 
  59652.7338     0.70066E+00 
  59684.9960     0.68584E+00 
  59717.2582     0.67119E+00 
  59749.5203     0.65672E+00 
  59781.7825     0.64243E+00 
  59814.0446     0.62831E+00 
  59846.3068     0.61437E+00 
  59878.5690     0.60060E+00 
  59910.8311     0.58701E+00 
  59943.0933     0.57359E+00 
  59975.3554     0.56034E+00 
  60007.6176     0.54726E+00 
  60039.8798     0.53435E+00 
  60072.1419     0.52161E+00 
  60104.4041     0.50904E+00 
  60136.6662     0.49663E+00 
  60168.9284     0.48440E+00 
  60201.1906     0.47233E+00 
  60233.4527     0.46043E+00 
  60265.7149     0.44869E+00 
  60297.9770     0.43712E+00 
  60330.2392     0.42572E+00 
  60362.5014     0.41448E+00 
  60394.7635     0.40340E+00 
  60427.0257     0.39248E+00 
  60459.2878     0.38173E+00 
  60491.5500     0.37114E+00 
  60523.8122     0.36071E+00 
  60556.0743     0.35045E+00 
  60588.3365     0.34034E+00 
  60620.5986     0.33039E+00 
  60652.8608     0.32061E+00 
  60685.1230     0.31098E+00 
  60717.3851     0.30152E+00 
  60749.6473     0.29221E+00 
  60781.9094     0.28306E+00 
  60814.1716     0.27407E+00 
  60846.4338     0.26524E+00 
  60878.6959     0.25657E+00 
  60910.9581     0.24805E+00 
  60943.2202     0.23969E+00 
  60975.4824     0.23149E+00 
  61007.7446     0.22345E+00 
  61040.0067     0.21557E+00 
  61072.2689     0.20784E+00 
  61104.5310     0.20027E+00 
  61136.7932     0.19285E+00 
  61169.0554     0.18560E+00 
  61201.3175     0.17850E+00 
  61233.5797     0.17155E+00 
  61265.8418     0.16477E+00 
  61298.1040     0.15814E+00 
  61330.3662     0.15167E+00 
  61362.6283     0.14536E+00 
  61394.8905     0.13920E+00 
  61427.1526     0.13320E+00 
  61459.4148     0.12736E+00 
  61491.6770     0.12168E+00 
  61523.9391     0.11615E+00 
  61556.2013     0.11078E+00 
  61588.4634     0.10558E+00 
  61620.7256     0.10053E+00 
  61652.9878     0.95639E-01 
  61685.2499     0.90909E-01 
  61717.5121     0.86339E-01 
  61749.7742     0.81930E-01 
  61782.0364     0.77682E-01 
  61814.2986     0.73595E-01 
  61846.5607     0.69670E-01 
  61878.8229     0.65908E-01 
  61911.0850     0.62308E-01 
  61943.3472     0.58872E-01 
  61975.6094     0.55601E-01 
  62007.8715     0.52494E-01 
  62040.1337     0.49552E-01 
  62072.3958     0.46776E-01 
  62104.6580     0.44168E-01 
  62136.9202     0.41727E-01 
  62169.1823     0.39455E-01 
  62201.4445     0.37351E-01 
  62233.7066     0.35418E-01 
  62265.9688     0.33657E-01 
  62298.2310     0.32067E-01 
  62330.4931     0.30650E-01 
  62362.7553     0.29407E-01 
  62395.0174     0.28339E-01 
  62427.2796     0.27447E-01 
  62459.5418     0.26732E-01 
  62491.8039     0.26195E-01 
  62524.0661     0.25838E-01 
  62556.3282     0.25662E-01 
  62588.5904     0.25668E-01 
  62620.8526     0.25857E-01 
  62653.1147     0.26231E-01 
  62685.3769     0.26791E-01 
  62717.6390     0.27539E-01 
  62749.9012     0.28475E-01 
  62782.1634     0.29602E-01 
  62814.4255     0.30921E-01 
  62846.6877     0.32434E-01 
  62878.9498     0.34142E-01 
  62911.2120     0.36048E-01 
  62943.4742     0.38152E-01 
  62975.7363     0.40456E-01 
  63007.9985     0.42964E-01 
  63040.2606     0.45675E-01 
  63072.5228     0.48593E-01 
  63104.7850     0.51720E-01 
  63137.0471     0.55056E-01 
  63169.3093     0.58606E-01 
  63201.5714     0.62370E-01 
  63233.8336     0.66351E-01 
  63266.0958     0.70551E-01 
  63298.3579     0.74973E-01 
  63330.6201     0.79619E-01 
  63362.8822     0.84492E-01 
  63395.1444     0.89593E-01 
  63427.4066     0.94927E-01 
  63459.6687     0.10049E+00 
  63491.9309     0.10630E+00 
  63524.1930     0.11234E+00 
  63556.4552     0.11863E+00 
  63588.7174     0.12516E+00 
  63620.9795     0.13194E+00 
  63653.2417     0.13898E+00 
  63685.5038     0.14627E+00 
  63717.7660     0.15381E+00 
  63750.0282     0.16162E+00 
  63782.2903     0.16969E+00 
  63814.5525     0.17803E+00 
  63846.8146     0.18665E+00 
  63879.0768     0.19553E+00 
  63911.3390     0.20470E+00 
  63943.6011     0.21415E+00 
  63975.8633     0.22389E+00 
  64008.1254     0.23392E+00 
  64040.3876     0.24424E+00 
  64072.6498     0.25487E+00 
  64104.9119     0.26579E+00 
  64137.1741     0.27703E+00 
  64169.4362     0.28858E+00 
  64201.6984     0.30044E+00 
  64233.9606     0.31263E+00 
  64266.2227     0.32514E+00 
  64298.4849     0.33799E+00 
  64330.7470     0.35117E+00 
  64363.0092     0.36469E+00 
  64395.2714     0.37856E+00 
  64427.5335     0.39278E+00 
  64459.7957     0.40736E+00 
  64492.0578     0.42231E+00 
  64524.3200     0.43762E+00 
  64556.5822     0.45331E+00 
  64588.8443     0.46938E+00 
  64621.1065     0.48584E+00 
  64653.3686     0.50269E+00 
  64685.6308     0.51994E+00 
  64717.8930     0.53760E+00 
  64750.1551     0.55567E+00 
  64782.4173     0.57417E+00 
  64814.6794     0.59309E+00 
  64846.9416     0.61244E+00 
  64879.2038     0.63224E+00 
  64911.4659     0.65249E+00 
  64943.7281     0.67320E+00 
  64975.9902     0.69437E+00 
  65008.2524     0.71601E+00 
  65040.5146     0.73814E+00 
  65072.7767     0.76076E+00 
  65105.0389     0.78387E+00 
  65137.3010     0.80750E+00 
  65169.5632     0.83164E+00 
  65201.8254     0.85631E+00 
  65234.0875     0.88151E+00 
  65266.3497     0.90726E+00 
  65298.6118     0.93356E+00 
  65330.8740     0.96043E+00 
  65363.1362     0.98787E+00 
  65395.3983     0.10159E+01 
  65427.6605     0.10445E+01 
  65459.9226     0.10738E+01 
  65492.1848     0.11036E+01 
  65524.4470     0.11341E+01 
  65556.7091     0.11652E+01 
  65588.9713     0.11970E+01 
  65621.2334     0.12294E+01 
  65653.4956     0.12626E+01 
  65685.7578     0.12964E+01 
  65718.0199     0.13309E+01 
  65750.2821     0.13661E+01 
  65782.5442     0.14021E+01 
  65814.8064     0.14388E+01 
  65847.0686     0.14763E+01 
  65879.3307     0.15146E+01 
  65911.5929     0.15536E+01 
  65943.8550     0.15935E+01 
  65976.1172     0.16341E+01 
  66008.3794     0.16756E+01 
  66040.6415     0.17180E+01 
  66072.9037     0.17612E+01 
  66105.1658     0.18053E+01 
  66137.4280     0.18503E+01 
  66169.6902     0.18963E+01 
  66201.9523     0.19431E+01 
  66234.2145     0.19910E+01 
  66266.4766     0.20398E+01 
  66298.7388     0.20896E+01 
  66331.0010     0.21404E+01 
  66363.2631     0.21922E+01 
  66395.5253     0.22451E+01 
  66427.7874     0.22991E+01 
  66460.0496     0.23542E+01 
  66492.3118     0.24104E+01 
  66524.5739     0.24677E+01 
  66556.8361     0.25262E+01 
  66589.0982     0.25859E+01 
  66621.3604     0.26468E+01 
  66653.6226     0.27089E+01 
  66685.8847     0.27723E+01 
  66718.1469     0.28370E+01 
  66750.4090     0.29030E+01 
  66782.6712     0.29703E+01 
  66814.9334     0.30390E+01 
  66847.1955     0.31090E+01 
  66879.4577     0.31805E+01 
  66911.7198     0.32535E+01 
  66943.9820     0.33279E+01 
  66976.2442     0.34038E+01 
  67008.5063     0.34812E+01 
  67040.7685     0.35602E+01 
  67073.0306     0.36408E+01 
  67105.2928     0.37230E+01 
  67137.5550     0.38069E+01 
  67169.8171     0.38924E+01 
  67202.0793     0.39797E+01 
  67234.3414     0.40688E+01 
  67266.6036     0.41596E+01 
  67298.8658     0.42523E+01 
  67331.1279     0.43468E+01 
  67363.3901     0.44433E+01 
  67395.6522     0.45417E+01 
  67427.9144     0.46420E+01 
  67460.1766     0.47444E+01 
  67492.4387     0.48488E+01 
  67524.7009     0.49554E+01 
  67556.9630     0.50640E+01 
  67589.2252     0.51749E+01 
  67621.4874     0.52879E+01 
  67653.7495     0.54033E+01 
  67686.0117     0.55209E+01 
  67718.2738     0.56409E+01 
  67750.5360     0.57633E+01 
  67782.7982     0.58882E+01 
  67815.0603     0.60156E+01 
  67847.3225     0.61454E+01 
  67879.5846     0.62779E+01 
  67911.8468     0.64131E+01 
  67944.1090     0.65509E+01 
  67976.3711     0.66915E+01 
  68008.6333     0.68348E+01 
  68040.8954     0.69811E+01 
  68073.1576     0.71302E+01 
  68105.4198     0.72823E+01 
  68137.6819     0.74374E+01 
  68169.9441     0.75956E+01 
  68202.2062     0.77569E+01 
  68234.4684     0.79215E+01 
  68266.7306     0.80892E+01 
  68298.9927     0.82603E+01 
  68331.2549     0.84348E+01 
  68363.5170     0.86127E+01 
  68395.7792     0.87941E+01 
  68428.0414     0.89791E+01 
  68460.3035     0.91677E+01 
  68492.5657     0.93601E+01 
  68524.8278     0.95561E+01 
  68557.0900     0.97561E+01 
  68589.3522     0.99599E+01 
  68621.6143     0.10168E+02 
  68653.8765     0.10380E+02 
  68686.1386     0.10596E+02 
  68718.4008     0.10816E+02 
  68750.6630     0.11040E+02 
  68782.9251     0.11269E+02 
  68815.1873     0.11503E+02 
  68847.4494     0.11740E+02 
  68879.7116     0.11983E+02 
  68911.9738     0.12230E+02 
  68944.2359     0.12482E+02 
  68976.4981     0.12738E+02 
  69008.7602     0.13000E+02 
  69041.0224     0.13266E+02 
  69073.2846     0.13538E+02 
  69105.5467     0.13815E+02 
  69137.8089     0.14097E+02 
  69170.0710     0.14385E+02 
  69202.3332     0.14678E+02 
  69234.5954     0.14976E+02 
  69266.8575     0.15280E+02 
  69299.1197     0.15590E+02 
  69331.3818     0.15906E+02 
  69363.6440     0.16228E+02 
  69395.9062     0.16555E+02 
  69428.1683     0.16889E+02 
  69460.4305     0.17229E+02 
  69492.6926     0.17576E+02 
  69524.9548     0.17929E+02 
  69557.2170     0.18288E+02 
  69589.4791     0.18654E+02 
  69621.7413     0.19027E+02 
  69654.0034     0.19407E+02 
  69686.2656     0.19793E+02 
  69718.5278     0.20187E+02 
  69750.7899     0.20588E+02 
  69783.0521     0.20996E+02 
  69815.3142     0.21412E+02 
  69847.5764     0.21835E+02 
  69879.8386     0.22266E+02 
  69912.1007     0.22705E+02 
  69944.3629     0.23151E+02 
  69976.6250     0.23606E+02 
  70008.8872     0.24068E+02 
  70041.1494     0.24539E+02 
  70073.4115     0.25019E+02 
  70105.6737     0.25506E+02 
  70137.9358     0.26003E+02 
  70170.1980     0.26508E+02 
  70202.4602     0.27022E+02 
  70234.7223     0.27545E+02 
  70266.9845     0.28077E+02 
  70299.2466     0.28619E+02 
  70331.5088     0.29170E+02 
  70363.7710     0.29730E+02 
  70396.0331     0.30300E+02 
  70428.2953     0.30880E+02 
  70460.5574     0.31470E+02 
  70492.8196     0.32070E+02 
  70525.0818     0.32680E+02 
  70557.3439     0.33300E+02 
  70589.6061     0.33931E+02 
  70621.8682     0.34573E+02 
  70654.1304     0.35225E+02 
  70686.3926     0.35888E+02 
  70718.6547     0.36563E+02 
  70750.9169     0.37248E+02 
  70783.1790     0.37945E+02 
  70815.4412     0.38653E+02 
  70847.7034     0.39373E+02 
  70879.9655     0.40105E+02 
  70912.2277     0.40849E+02 
  70944.4898     0.41604E+02 
  70976.7520     0.42372E+02 
  71009.0142     0.43152E+02 
  71041.2763     0.43945E+02 
  71073.5385     0.44751E+02 
  71105.8006     0.45569E+02 
  71138.0628     0.46400E+02 
  71170.3250     0.47245E+02 
  71202.5871     0.48102E+02 
  71234.8493     0.48973E+02 
  71267.1114     0.49858E+02 
  71299.3736     0.50756E+02 
  71331.6358     0.51668E+02 
  71363.8979     0.52594E+02 
  71396.1601     0.53535E+02 
  71428.4222     0.54489E+02 
  71460.6844     0.55459E+02 
  71492.9466     0.56442E+02 
  71525.2087     0.57441E+02 
  71557.4709     0.58455E+02 
  71589.7330     0.59483E+02 
  71621.9952     0.60527E+02 
  71654.2574     0.61586E+02 
  71686.5195     0.62661E+02 
  71718.7817     0.63752E+02 
  71751.0438     0.64858E+02 
  71783.3060     0.65980E+02 
  71815.5682     0.67119E+02 
  71847.8303     0.68274E+02 
  71880.0925     0.69445E+02 
  71912.3546     0.70633E+02 
  71944.6168     0.71838E+02 
  71976.8790     0.73059E+02 
  72009.1411     0.74298E+02 
  72041.4033     0.75554E+02 
  72073.6654     0.76827E+02 
  72105.9276     0.78118E+02 
  72138.1898     0.79426E+02 
  72170.4519     0.80752E+02 
  72202.7141     0.82096E+02 
  72234.9762     0.83458E+02 
  72267.2384     0.84838E+02 
  72299.5006     0.86237E+02 
  72331.7627     0.87654E+02 
  72364.0249     0.89090E+02 
  72396.2870     0.90544E+02 
  72428.5492     0.92018E+02 
  72460.8114     0.93510E+02 
  72493.0735     0.95021E+02 
  72525.3357     0.96552E+02 
  72557.5978     0.98103E+02 
  72589.8600     0.99672E+02 
