  32262.1600     0.82176E+02 
  32294.4222     0.83455E+02 
  32326.6843     0.84750E+02 
  32358.9465     0.86059E+02 
  32391.2086     0.87383E+02 
  32423.4708     0.88722E+02 
  32455.7330     0.90077E+02 
  32487.9951     0.91446E+02 
  32520.2573     0.92831E+02 
  32552.5194     0.94231E+02 
  32584.7816     0.95646E+02 
  32617.0438     0.97077E+02 
  32649.3059     0.98523E+02 
  32681.5681     0.99985E+02 
  32713.8302     0.10146E+03 
  32746.0924     0.10295E+03 
  32778.3546     0.10446E+03 
  32810.6167     0.10599E+03 
  32842.8789     0.10753E+03 
  32875.1410     0.10908E+03 
  32907.4032     0.11065E+03 
  32939.6654     0.11224E+03 
  32971.9275     0.11385E+03 
  33004.1897     0.11546E+03 
  33036.4518     0.11710E+03 
  33068.7140     0.11875E+03 
  33100.9762     0.12042E+03 
  33133.2383     0.12210E+03 
  33165.5005     0.12380E+03 
  33197.7626     0.12551E+03 
  33230.0248     0.12725E+03 
  33262.2870     0.12899E+03 
  33294.5491     0.13076E+03 
  33326.8113     0.13253E+03 
  33359.0734     0.13433E+03 
  33391.3356     0.13614E+03 
  33423.5978     0.13797E+03 
  33455.8599     0.13981E+03 
  33488.1221     0.14167E+03 
  33520.3842     0.14355E+03 
  33552.6464     0.14544E+03 
  33584.9086     0.14735E+03 
  33617.1707     0.14927E+03 
  33649.4329     0.15121E+03 
  33681.6950     0.15316E+03 
  33713.9572     0.15513E+03 
  33746.2194     0.15712E+03 
  33778.4815     0.15912E+03 
  33810.7437     0.16114E+03 
  33843.0058     0.16318E+03 
  33875.2680     0.16523E+03 
  33907.5302     0.16729E+03 
  33939.7923     0.16937E+03 
  33972.0545     0.17147E+03 
  34004.3166     0.17358E+03 
  34036.5788     0.17571E+03 
  34068.8410     0.17785E+03 
  34101.1031     0.18001E+03 
  34133.3653     0.18218E+03 
  34165.6274     0.18437E+03 
  34197.8896     0.18658E+03 
  34230.1518     0.18879E+03 
  34262.4139     0.19103E+03 
  34294.6761     0.19328E+03 
  34326.9382     0.19554E+03 
  34359.2004     0.19782E+03 
  34391.4626     0.20011E+03 
  34423.7247     0.20242E+03 
  34455.9869     0.20474E+03 
  34488.2490     0.20707E+03 
  34520.5112     0.20942E+03 
  34552.7734     0.21179E+03 
  34585.0355     0.21416E+03 
  34617.2977     0.21655E+03 
  34649.5598     0.21896E+03 
  34681.8220     0.22138E+03 
  34714.0842     0.22381E+03 
  34746.3463     0.22625E+03 
  34778.6085     0.22871E+03 
  34810.8706     0.23118E+03 
  34843.1328     0.23367E+03 
  34875.3950     0.23616E+03 
  34907.6571     0.23867E+03 
  34939.9193     0.24119E+03 
  34972.1814     0.24373E+03 
  35004.4436     0.24627E+03 
  35036.7058     0.24883E+03 
  35068.9679     0.25140E+03 
  35101.2301     0.25398E+03 
  35133.4922     0.25658E+03 
  35165.7544     0.25918E+03 
  35198.0166     0.26180E+03 
  35230.2787     0.26442E+03 
  35262.5409     0.26706E+03 
  35294.8030     0.26971E+03 
  35327.0652     0.27237E+03 
  35359.3274     0.27503E+03 
  35391.5895     0.27771E+03 
  35423.8517     0.28040E+03 
  35456.1138     0.28310E+03 
  35488.3760     0.28580E+03 
  35520.6382     0.28852E+03 
  35552.9003     0.29124E+03 
  35585.1625     0.29398E+03 
  35617.4246     0.29672E+03 
  35649.6868     0.29947E+03 
  35681.9490     0.30223E+03 
  35714.2111     0.30500E+03 
  35746.4733     0.30777E+03 
  35778.7354     0.31055E+03 
  35810.9976     0.31334E+03 
  35843.2598     0.31614E+03 
  35875.5219     0.31894E+03 
  35907.7841     0.32175E+03 
  35940.0462     0.32457E+03 
  35972.3084     0.32739E+03 
  36004.5706     0.33022E+03 
  36036.8327     0.33305E+03 
  36069.0949     0.33589E+03 
  36101.3570     0.33873E+03 
  36133.6192     0.34158E+03 
  36165.8814     0.34443E+03 
  36198.1435     0.34729E+03 
  36230.4057     0.35015E+03 
  36262.6678     0.35302E+03 
  36294.9300     0.35589E+03 
  36327.1922     0.35876E+03 
  36359.4543     0.36164E+03 
  36391.7165     0.36451E+03 
  36423.9786     0.36739E+03 
  36456.2408     0.37028E+03 
  36488.5030     0.37316E+03 
  36520.7651     0.37605E+03 
  36553.0273     0.37894E+03 
  36585.2894     0.38182E+03 
  36617.5516     0.38471E+03 
  36649.8138     0.38760E+03 
  36682.0759     0.39049E+03 
  36714.3381     0.39339E+03 
  36746.6002     0.39628E+03 
  36778.8624     0.39917E+03 
  36811.1246     0.40205E+03 
  36843.3867     0.40494E+03 
  36875.6489     0.40783E+03 
  36907.9110     0.41071E+03 
  36940.1732     0.41360E+03 
  36972.4354     0.41648E+03 
  37004.6975     0.41936E+03 
  37036.9597     0.42223E+03 
  37069.2218     0.42510E+03 
  37101.4840     0.42797E+03 
  37133.7462     0.43084E+03 
  37166.0083     0.43370E+03 
  37198.2705     0.43656E+03 
  37230.5326     0.43941E+03 
  37262.7948     0.44225E+03 
  37295.0570     0.44510E+03 
  37327.3191     0.44793E+03 
  37359.5813     0.45077E+03 
  37391.8434     0.45359E+03 
  37424.1056     0.45641E+03 
  37456.3678     0.45922E+03 
  37488.6299     0.46203E+03 
  37520.8921     0.46482E+03 
  37553.1542     0.46762E+03 
  37585.4164     0.47040E+03 
  37617.6786     0.47317E+03 
  37649.9407     0.47594E+03 
  37682.2029     0.47870E+03 
  37714.4650     0.48145E+03 
  37746.7272     0.48419E+03 
  37778.9894     0.48692E+03 
  37811.2515     0.48964E+03 
  37843.5137     0.49235E+03 
  37875.7758     0.49505E+03 
  37908.0380     0.49774E+03 
  37940.3002     0.50041E+03 
  37972.5623     0.50308E+03 
  38004.8245     0.50574E+03 
  38037.0866     0.50838E+03 
  38069.3488     0.51101E+03 
  38101.6110     0.51363E+03 
  38133.8731     0.51624E+03 
  38166.1353     0.51883E+03 
  38198.3974     0.52142E+03 
  38230.6596     0.52398E+03 
  38262.9218     0.52654E+03 
  38295.1839     0.52908E+03 
  38327.4461     0.53160E+03 
  38359.7082     0.53411E+03 
  38391.9704     0.53661E+03 
  38424.2326     0.53909E+03 
  38456.4947     0.54156E+03 
  38488.7569     0.54401E+03 
  38521.0190     0.54644E+03 
  38553.2812     0.54886E+03 
  38585.5434     0.55127E+03 
  38617.8055     0.55365E+03 
  38650.0677     0.55602E+03 
  38682.3298     0.55837E+03 
  38714.5920     0.56071E+03 
  38746.8542     0.56303E+03 
  38779.1163     0.56533E+03 
  38811.3785     0.56761E+03 
  38843.6406     0.56987E+03 
  38875.9028     0.57212E+03 
  38908.1650     0.57434E+03 
  38940.4271     0.57655E+03 
  38972.6893     0.57874E+03 
  39004.9514     0.58091E+03 
  39037.2136     0.58306E+03 
  39069.4758     0.58519E+03 
  39101.7379     0.58730E+03 
  39134.0001     0.58939E+03 
  39166.2622     0.59146E+03 
  39198.5244     0.59351E+03 
  39230.7866     0.59554E+03 
  39263.0487     0.59754E+03 
  39295.3109     0.59953E+03 
  39327.5730     0.60149E+03 
  39359.8352     0.60344E+03 
  39392.0974     0.60536E+03 
  39424.3595     0.60726E+03 
  39456.6217     0.60913E+03 
  39488.8838     0.61099E+03 
  39521.1460     0.61282E+03 
  39553.4082     0.61463E+03 
  39585.6703     0.61641E+03 
  39617.9325     0.61818E+03 
  39650.1946     0.61992E+03 
  39682.4568     0.62164E+03 
  39714.7190     0.62333E+03 
  39746.9811     0.62500E+03 
  39779.2433     0.62664E+03 
  39811.5054     0.62827E+03 
  39843.7676     0.62987E+03 
  39876.0298     0.63144E+03 
  39908.2919     0.63299E+03 
  39940.5541     0.63451E+03 
  39972.8162     0.63601E+03 
  40005.0784     0.63749E+03 
  40037.3406     0.63894E+03 
  40069.6027     0.64037E+03 
  40101.8649     0.64177E+03 
  40134.1270     0.64314E+03 
  40166.3892     0.64449E+03 
  40198.6514     0.64582E+03 
  40230.9135     0.64712E+03 
  40263.1757     0.64839E+03 
  40295.4378     0.64964E+03 
  40327.7000     0.65086E+03 
  40359.9622     0.65206E+03 
  40392.2243     0.65323E+03 
  40424.4865     0.65437E+03 
  40456.7486     0.65549E+03 
  40489.0108     0.65658E+03 
  40521.2730     0.65765E+03 
  40553.5351     0.65868E+03 
  40585.7973     0.65970E+03 
  40618.0594     0.66068E+03 
  40650.3216     0.66164E+03 
  40682.5838     0.66258E+03 
  40714.8459     0.66348E+03 
  40747.1081     0.66436E+03 
  40779.3702     0.66522E+03 
  40811.6324     0.66604E+03 
  40843.8946     0.66684E+03 
  40876.1567     0.66761E+03 
  40908.4189     0.66836E+03 
  40940.6810     0.66908E+03 
  40972.9432     0.66977E+03 
  41005.2054     0.67044E+03 
  41037.4675     0.67107E+03 
  41069.7297     0.67168E+03 
  41101.9918     0.67227E+03 
  41134.2540     0.67283E+03 
  41166.5162     0.67336E+03 
  41198.7783     0.67386E+03 
  41231.0405     0.67434E+03 
  41263.3026     0.67478E+03 
  41295.5648     0.67521E+03 
  41327.8270     0.67560E+03 
  41360.0891     0.67597E+03 
  41392.3513     0.67631E+03 
  41424.6134     0.67663E+03 
  41456.8756     0.67691E+03 
  41489.1378     0.67718E+03 
  41521.3999     0.67741E+03 
  41553.6621     0.67762E+03 
  41585.9242     0.67780E+03 
  41618.1864     0.67795E+03 
  41650.4486     0.67808E+03 
  41682.7107     0.67818E+03 
  41714.9729     0.67826E+03 
  41747.2350     0.67830E+03 
  41779.4972     0.67833E+03 
  41811.7594     0.67832E+03 
  41844.0215     0.67829E+03 
  41876.2837     0.67823E+03 
  41908.5458     0.67815E+03 
  41940.8080     0.67804E+03 
  41973.0702     0.67790E+03 
  42005.3323     0.67774E+03 
  42037.5945     0.67756E+03 
  42069.8566     0.67734E+03 
  42102.1188     0.67710E+03 
  42134.3810     0.67684E+03 
  42166.6431     0.67655E+03 
  42198.9053     0.67624E+03 
  42231.1674     0.67590E+03 
  42263.4296     0.67553E+03 
  42295.6918     0.67514E+03 
  42327.9539     0.67473E+03 
  42360.2161     0.67429E+03 
  42392.4782     0.67382E+03 
  42424.7404     0.67333E+03 
  42457.0026     0.67282E+03 
  42489.2647     0.67228E+03 
  42521.5269     0.67172E+03 
  42553.7890     0.67113E+03 
  42586.0512     0.67052E+03 
  42618.3134     0.66988E+03 
  42650.5755     0.66923E+03 
  42682.8377     0.66854E+03 
  42715.0998     0.66784E+03 
  42747.3620     0.66711E+03 
  42779.6242     0.66636E+03 
  42811.8863     0.66558E+03 
  42844.1485     0.66478E+03 
  42876.4106     0.66396E+03 
  42908.6728     0.66312E+03 
  42940.9350     0.66225E+03 
  42973.1971     0.66136E+03 
  43005.4593     0.66045E+03 
  43037.7214     0.65952E+03 
  43069.9836     0.65856E+03 
  43102.2458     0.65759E+03 
  43134.5079     0.65659E+03 
  43166.7701     0.65557E+03 
  43199.0322     0.65453E+03 
  43231.2944     0.65347E+03 
  43263.5566     0.65238E+03 
  43295.8187     0.65128E+03 
  43328.0809     0.65015E+03 
  43360.3430     0.64901E+03 
  43392.6052     0.64784E+03 
  43424.8674     0.64666E+03 
  43457.1295     0.64545E+03 
  43489.3917     0.64423E+03 
  43521.6538     0.64298E+03 
  43553.9160     0.64172E+03 
  43586.1782     0.64044E+03 
  43618.4403     0.63913E+03 
  43650.7025     0.63781E+03 
  43682.9646     0.63647E+03 
  43715.2268     0.63511E+03 
  43747.4890     0.63374E+03 
  43779.7511     0.63234E+03 
  43812.0133     0.63093E+03 
  43844.2754     0.62950E+03 
  43876.5376     0.62805E+03 
  43908.7998     0.62659E+03 
  43941.0619     0.62510E+03 
  43973.3241     0.62360E+03 
  44005.5862     0.62209E+03 
  44037.8484     0.62055E+03 
  44070.1106     0.61900E+03 
  44102.3727     0.61744E+03 
  44134.6349     0.61585E+03 
  44166.8970     0.61426E+03 
  44199.1592     0.61264E+03 
  44231.4214     0.61101E+03 
  44263.6835     0.60937E+03 
  44295.9457     0.60771E+03 
  44328.2078     0.60603E+03 
  44360.4700     0.60435E+03 
  44392.7322     0.60264E+03 
  44424.9943     0.60092E+03 
  44457.2565     0.59919E+03 
  44489.5186     0.59745E+03 
  44521.7808     0.59569E+03 
  44554.0430     0.59391E+03 
  44586.3051     0.59213E+03 
  44618.5673     0.59033E+03 
  44650.8294     0.58851E+03 
  44683.0916     0.58669E+03 
  44715.3538     0.58485E+03 
  44747.6159     0.58300E+03 
  44779.8781     0.58114E+03 
  44812.1402     0.57926E+03 
  44844.4024     0.57738E+03 
  44876.6646     0.57548E+03 
  44908.9267     0.57357E+03 
  44941.1889     0.57165E+03 
  44973.4510     0.56972E+03 
  45005.7132     0.56777E+03 
  45037.9754     0.56582E+03 
  45070.2375     0.56386E+03 
  45102.4997     0.56189E+03 
  45134.7618     0.55990E+03 
  45167.0240     0.55791E+03 
  45199.2862     0.55591E+03 
  45231.5483     0.55389E+03 
  45263.8105     0.55187E+03 
  45296.0726     0.54984E+03 
  45328.3348     0.54780E+03 
  45360.5970     0.54576E+03 
  45392.8591     0.54370E+03 
  45425.1213     0.54164E+03 
  45457.3834     0.53956E+03 
  45489.6456     0.53748E+03 
  45521.9078     0.53540E+03 
  45554.1699     0.53330E+03 
  45586.4321     0.53120E+03 
  45618.6942     0.52909E+03 
  45650.9564     0.52697E+03 
  45683.2186     0.52485E+03 
  45715.4807     0.52272E+03 
  45747.7429     0.52058E+03 
  45780.0050     0.51844E+03 
  45812.2672     0.51629E+03 
  45844.5294     0.51414E+03 
  45876.7915     0.51198E+03 
  45909.0537     0.50981E+03 
  45941.3158     0.50764E+03 
  45973.5780     0.50546E+03 
  46005.8402     0.50328E+03 
  46038.1023     0.50110E+03 
  46070.3645     0.49891E+03 
  46102.6266     0.49671E+03 
  46134.8888     0.49452E+03 
  46167.1510     0.49231E+03 
  46199.4131     0.49011E+03 
  46231.6753     0.48790E+03 
  46263.9374     0.48568E+03 
  46296.1996     0.48347E+03 
  46328.4618     0.48125E+03 
  46360.7239     0.47902E+03 
  46392.9861     0.47680E+03 
  46425.2482     0.47457E+03 
  46457.5104     0.47234E+03 
  46489.7726     0.47011E+03 
  46522.0347     0.46787E+03 
  46554.2969     0.46563E+03 
  46586.5590     0.46339E+03 
  46618.8212     0.46115E+03 
  46651.0834     0.45891E+03 
  46683.3455     0.45666E+03 
  46715.6077     0.45442E+03 
  46747.8698     0.45217E+03 
  46780.1320     0.44993E+03 
  46812.3942     0.44768E+03 
  46844.6563     0.44543E+03 
  46876.9185     0.44318E+03 
  46909.1806     0.44093E+03 
  46941.4428     0.43868E+03 
  46973.7050     0.43643E+03 
  47005.9671     0.43418E+03 
  47038.2293     0.43193E+03 
  47070.4914     0.42968E+03 
  47102.7536     0.42744E+03 
  47135.0158     0.42519E+03 
  47167.2779     0.42294E+03 
  47199.5401     0.42069E+03 
  47231.8022     0.41845E+03 
  47264.0644     0.41621E+03 
  47296.3266     0.41396E+03 
  47328.5887     0.41172E+03 
  47360.8509     0.40948E+03 
  47393.1130     0.40725E+03 
  47425.3752     0.40501E+03 
  47457.6374     0.40278E+03 
  47489.8995     0.40055E+03 
  47522.1617     0.39832E+03 
  47554.4238     0.39609E+03 
  47586.6860     0.39387E+03 
  47618.9482     0.39165E+03 
  47651.2103     0.38943E+03 
  47683.4725     0.38721E+03 
  47715.7346     0.38500E+03 
  47747.9968     0.38279E+03 
  47780.2590     0.38058E+03 
  47812.5211     0.37838E+03 
  47844.7833     0.37618E+03 
  47877.0454     0.37398E+03 
  47909.3076     0.37179E+03 
  47941.5698     0.36960E+03 
  47973.8319     0.36741E+03 
  48006.0941     0.36523E+03 
  48038.3562     0.36306E+03 
  48070.6184     0.36088E+03 
  48102.8806     0.35871E+03 
  48135.1427     0.35655E+03 
  48167.4049     0.35439E+03 
  48199.6670     0.35223E+03 
  48231.9292     0.35008E+03 
  48264.1914     0.34794E+03 
  48296.4535     0.34580E+03 
  48328.7157     0.34366E+03 
  48360.9778     0.34153E+03 
  48393.2400     0.33940E+03 
  48425.5022     0.33728E+03 
  48457.7643     0.33517E+03 
  48490.0265     0.33306E+03 
  48522.2886     0.33095E+03 
  48554.5508     0.32885E+03 
  48586.8130     0.32676E+03 
  48619.0751     0.32467E+03 
  48651.3373     0.32259E+03 
  48683.5994     0.32051E+03 
  48715.8616     0.31844E+03 
  48748.1238     0.31637E+03 
  48780.3859     0.31432E+03 
  48812.6481     0.31226E+03 
  48844.9102     0.31022E+03 
  48877.1724     0.30818E+03 
  48909.4346     0.30614E+03 
  48941.6967     0.30411E+03 
  48973.9589     0.30209E+03 
  49006.2210     0.30008E+03 
  49038.4832     0.29807E+03 
  49070.7454     0.29607E+03 
  49103.0075     0.29408E+03 
  49135.2697     0.29209E+03 
  49167.5318     0.29011E+03 
  49199.7940     0.28813E+03 
  49232.0562     0.28616E+03 
  49264.3183     0.28420E+03 
  49296.5805     0.28225E+03 
  49328.8426     0.28030E+03 
  49361.1048     0.27837E+03 
  49393.3670     0.27643E+03 
  49425.6291     0.27451E+03 
  49457.8913     0.27259E+03 
  49490.1534     0.27068E+03 
  49522.4156     0.26878E+03 
  49554.6778     0.26688E+03 
  49586.9399     0.26500E+03 
  49619.2021     0.26312E+03 
  49651.4642     0.26124E+03 
  49683.7264     0.25938E+03 
  49715.9886     0.25752E+03 
  49748.2507     0.25567E+03 
  49780.5129     0.25383E+03 
  49812.7750     0.25199E+03 
  49845.0372     0.25017E+03 
  49877.2994     0.24835E+03 
  49909.5615     0.24653E+03 
  49941.8237     0.24473E+03 
  49974.0858     0.24294E+03 
  50006.3480     0.24115E+03 
  50038.6102     0.23937E+03 
  50070.8723     0.23760E+03 
  50103.1345     0.23583E+03 
  50135.3966     0.23408E+03 
  50167.6588     0.23233E+03 
  50199.9210     0.23059E+03 
  50232.1831     0.22886E+03 
  50264.4453     0.22713E+03 
  50296.7074     0.22542E+03 
  50328.9696     0.22371E+03 
  50361.2318     0.22201E+03 
  50393.4939     0.22032E+03 
  50425.7561     0.21864E+03 
  50458.0182     0.21696E+03 
  50490.2804     0.21530E+03 
  50522.5426     0.21364E+03 
  50554.8047     0.21199E+03 
  50587.0669     0.21035E+03 
  50619.3290     0.20871E+03 
  50651.5912     0.20709E+03 
  50683.8534     0.20547E+03 
  50716.1155     0.20386E+03 
  50748.3777     0.20226E+03 
  50780.6398     0.20067E+03 
  50812.9020     0.19908E+03 
  50845.1642     0.19751E+03 
  50877.4263     0.19594E+03 
  50909.6885     0.19438E+03 
  50941.9506     0.19283E+03 
  50974.2128     0.19129E+03 
  51006.4750     0.18976E+03 
  51038.7371     0.18823E+03 
  51070.9993     0.18671E+03 
  51103.2614     0.18520E+03 
  51135.5236     0.18370E+03 
  51167.7858     0.18221E+03 
  51200.0479     0.18073E+03 
  51232.3101     0.17925E+03 
  51264.5722     0.17778E+03 
  51296.8344     0.17632E+03 
  51329.0966     0.17487E+03 
  51361.3587     0.17343E+03 
  51393.6209     0.17200E+03 
  51425.8830     0.17057E+03 
  51458.1452     0.16915E+03 
  51490.4074     0.16774E+03 
  51522.6695     0.16634E+03 
  51554.9317     0.16495E+03 
  51587.1938     0.16357E+03 
  51619.4560     0.16219E+03 
  51651.7182     0.16082E+03 
  51683.9803     0.15946E+03 
  51716.2425     0.15811E+03 
  51748.5046     0.15677E+03 
  51780.7668     0.15543E+03 
  51813.0290     0.15410E+03 
  51845.2911     0.15278E+03 
  51877.5533     0.15147E+03 
  51909.8154     0.15017E+03 
  51942.0776     0.14887E+03 
  51974.3398     0.14759E+03 
  52006.6019     0.14631E+03 
  52038.8641     0.14504E+03 
  52071.1262     0.14378E+03 
  52103.3884     0.14252E+03 
  52135.6506     0.14127E+03 
  52167.9127     0.14003E+03 
  52200.1749     0.13880E+03 
  52232.4370     0.13758E+03 
  52264.6992     0.13637E+03 
  52296.9614     0.13516E+03 
  52329.2235     0.13396E+03 
  52361.4857     0.13277E+03 
  52393.7478     0.13158E+03 
  52426.0100     0.13041E+03 
  52458.2722     0.12924E+03 
  52490.5343     0.12808E+03 
  52522.7965     0.12693E+03 
  52555.0586     0.12578E+03 
  52587.3208     0.12464E+03 
  52619.5830     0.12352E+03 
  52651.8451     0.12239E+03 
  52684.1073     0.12128E+03 
  52716.3694     0.12017E+03 
  52748.6316     0.11907E+03 
  52780.8938     0.11798E+03 
  52813.1559     0.11690E+03 
  52845.4181     0.11582E+03 
  52877.6802     0.11475E+03 
  52909.9424     0.11369E+03 
  52942.2046     0.11263E+03 
  52974.4667     0.11159E+03 
  53006.7289     0.11055E+03 
  53038.9910     0.10951E+03 
  53071.2532     0.10849E+03 
  53103.5154     0.10747E+03 
  53135.7775     0.10646E+03 
  53168.0397     0.10546E+03 
  53200.3018     0.10446E+03 
  53232.5640     0.10347E+03 
  53264.8262     0.10249E+03 
  53297.0883     0.10151E+03 
  53329.3505     0.10055E+03 
  53361.6126     0.99584E+02 
  53393.8748     0.98630E+02 
  53426.1370     0.97683E+02 
  53458.3991     0.96742E+02 
  53490.6613     0.95809E+02 
  53522.9234     0.94882E+02 
  53555.1856     0.93963E+02 
  53587.4478     0.93050E+02 
  53619.7099     0.92144E+02 
  53651.9721     0.91244E+02 
  53684.2342     0.90351E+02 
  53716.4964     0.89465E+02 
  53748.7586     0.88586E+02 
  53781.0207     0.87713E+02 
  53813.2829     0.86847E+02 
  53845.5450     0.85987E+02 
  53877.8072     0.85134E+02 
  53910.0694     0.84287E+02 
  53942.3315     0.83447E+02 
  53974.5937     0.82613E+02 
  54006.8558     0.81785E+02 
  54039.1180     0.80964E+02 
  54071.3802     0.80149E+02 
  54103.6423     0.79341E+02 
  54135.9045     0.78538E+02 
  54168.1666     0.77742E+02 
  54200.4288     0.76952E+02 
  54232.6910     0.76168E+02 
  54264.9531     0.75391E+02 
  54297.2153     0.74619E+02 
  54329.4774     0.73854E+02 
  54361.7396     0.73094E+02 
  54394.0018     0.72340E+02 
  54426.2639     0.71593E+02 
  54458.5261     0.70851E+02 
  54490.7882     0.70115E+02 
  54523.0504     0.69385E+02 
  54555.3126     0.68661E+02 
  54587.5747     0.67943E+02 
  54619.8369     0.67230E+02 
  54652.0990     0.66523E+02 
  54684.3612     0.65822E+02 
  54716.6234     0.65126E+02 
  54748.8855     0.64436E+02 
  54781.1477     0.63752E+02 
  54813.4098     0.63073E+02 
  54845.6720     0.62400E+02 
  54877.9342     0.61732E+02 
  54910.1963     0.61069E+02 
  54942.4585     0.60412E+02 
  54974.7206     0.59761E+02 
  55006.9828     0.59115E+02 
  55039.2450     0.58474E+02 
  55071.5071     0.57838E+02 
  55103.7693     0.57208E+02 
  55136.0314     0.56582E+02 
  55168.2936     0.55962E+02 
  55200.5558     0.55348E+02 
  55232.8179     0.54738E+02 
  55265.0801     0.54133E+02 
  55297.3422     0.53534E+02 
  55329.6044     0.52939E+02 
  55361.8666     0.52350E+02 
  55394.1287     0.51765E+02 
  55426.3909     0.51185E+02 
  55458.6530     0.50611E+02 
  55490.9152     0.50041E+02 
  55523.1774     0.49476E+02 
  55555.4395     0.48916E+02 
  55587.7017     0.48360E+02 
  55619.9638     0.47809E+02 
  55652.2260     0.47263E+02 
  55684.4882     0.46722E+02 
  55716.7503     0.46185E+02 
  55749.0125     0.45653E+02 
  55781.2746     0.45126E+02 
  55813.5368     0.44603E+02 
  55845.7990     0.44084E+02 
  55878.0611     0.43570E+02 
  55910.3233     0.43061E+02 
  55942.5854     0.42556E+02 
  55974.8476     0.42055E+02 
  56007.1098     0.41559E+02 
  56039.3719     0.41067E+02 
  56071.6341     0.40579E+02 
  56103.8962     0.40096E+02 
  56136.1584     0.39617E+02 
  56168.4206     0.39142E+02 
  56200.6827     0.38671E+02 
  56232.9449     0.38205E+02 
  56265.2070     0.37742E+02 
  56297.4692     0.37284E+02 
  56329.7314     0.36830E+02 
  56361.9935     0.36380E+02 
  56394.2557     0.35933E+02 
  56426.5178     0.35491E+02 
  56458.7800     0.35053E+02 
  56491.0422     0.34619E+02 
  56523.3043     0.34188E+02 
  56555.5665     0.33762E+02 
  56587.8286     0.33339E+02 
  56620.0908     0.32921E+02 
  56652.3530     0.32506E+02 
  56684.6151     0.32094E+02 
  56716.8773     0.31687E+02 
  56749.1394     0.31283E+02 
  56781.4016     0.30883E+02 
  56813.6638     0.30486E+02 
  56845.9259     0.30094E+02 
  56878.1881     0.29704E+02 
  56910.4502     0.29319E+02 
  56942.7124     0.28937E+02 
  56974.9746     0.28558E+02 
  57007.2367     0.28183E+02 
  57039.4989     0.27811E+02 
  57071.7610     0.27443E+02 
  57104.0232     0.27079E+02 
  57136.2854     0.26717E+02 
  57168.5475     0.26359E+02 
  57200.8097     0.26005E+02 
  57233.0718     0.25654E+02 
  57265.3340     0.25306E+02 
  57297.5962     0.24961E+02 
  57329.8583     0.24620E+02 
  57362.1205     0.24281E+02 
  57394.3826     0.23946E+02 
  57426.6448     0.23615E+02 
  57458.9070     0.23286E+02 
  57491.1691     0.22960E+02 
  57523.4313     0.22638E+02 
  57555.6934     0.22319E+02 
  57587.9556     0.22002E+02 
  57620.2178     0.21689E+02 
  57652.4799     0.21379E+02 
  57684.7421     0.21072E+02 
  57717.0042     0.20768E+02 
  57749.2664     0.20466E+02 
  57781.5286     0.20168E+02 
  57813.7907     0.19873E+02 
  57846.0529     0.19580E+02 
  57878.3150     0.19291E+02 
  57910.5772     0.19004E+02 
  57942.8394     0.18720E+02 
  57975.1015     0.18439E+02 
  58007.3637     0.18160E+02 
  58039.6258     0.17885E+02 
  58071.8880     0.17612E+02 
  58104.1502     0.17342E+02 
  58136.4123     0.17074E+02 
  58168.6745     0.16809E+02 
  58200.9366     0.16547E+02 
  58233.1988     0.16288E+02 
  58265.4610     0.16031E+02 
  58297.7231     0.15777E+02 
  58329.9853     0.15525E+02 
  58362.2474     0.15276E+02 
  58394.5096     0.15030E+02 
  58426.7718     0.14786E+02 
  58459.0339     0.14544E+02 
  58491.2961     0.14305E+02 
  58523.5582     0.14069E+02 
  58555.8204     0.13835E+02 
  58588.0826     0.13603E+02 
  58620.3447     0.13374E+02 
  58652.6069     0.13147E+02 
  58684.8690     0.12923E+02 
  58717.1312     0.12701E+02 
  58749.3934     0.12482E+02 
  58781.6555     0.12264E+02 
  58813.9177     0.12050E+02 
  58846.1798     0.11837E+02 
  58878.4420     0.11627E+02 
  58910.7042     0.11419E+02 
  58942.9663     0.11213E+02 
  58975.2285     0.11009E+02 
  59007.4906     0.10808E+02 
  59039.7528     0.10609E+02 
  59072.0150     0.10412E+02 
  59104.2771     0.10218E+02 
  59136.5393     0.10025E+02 
  59168.8014     0.98351E+01 
  59201.0636     0.96470E+01 
  59233.3258     0.94610E+01 
  59265.5879     0.92771E+01 
  59297.8501     0.90954E+01 
  59330.1122     0.89158E+01 
  59362.3744     0.87382E+01 
  59394.6366     0.85628E+01 
  59426.8987     0.83893E+01 
  59459.1609     0.82180E+01 
  59491.4230     0.80487E+01 
  59523.6852     0.78814E+01 
  59555.9474     0.77161E+01 
  59588.2095     0.75528E+01 
  59620.4717     0.73915E+01 
  59652.7338     0.72322E+01 
  59684.9960     0.70749E+01 
  59717.2582     0.69195E+01 
  59749.5203     0.67661E+01 
  59781.7825     0.66146E+01 
  59814.0446     0.64650E+01 
  59846.3068     0.63173E+01 
  59878.5690     0.61716E+01 
  59910.8311     0.60278E+01 
  59943.0933     0.58858E+01 
  59975.3554     0.57457E+01 
  60007.6176     0.56075E+01 
  60039.8798     0.54712E+01 
  60072.1419     0.53367E+01 
  60104.4041     0.52041E+01 
  60136.6662     0.50733E+01 
  60168.9284     0.49443E+01 
  60201.1906     0.48172E+01 
  60233.4527     0.46918E+01 
  60265.7149     0.45683E+01 
  60297.9770     0.44466E+01 
  60330.2392     0.43267E+01 
  60362.5014     0.42085E+01 
  60394.7635     0.40921E+01 
  60427.0257     0.39776E+01 
  60459.2878     0.38647E+01 
  60491.5500     0.37537E+01 
  60523.8122     0.36444E+01 
  60556.0743     0.35368E+01 
  60588.3365     0.34310E+01 
  60620.5986     0.33270E+01 
  60652.8608     0.32247E+01 
  60685.1230     0.31241E+01 
  60717.3851     0.30252E+01 
  60749.6473     0.29281E+01 
  60781.9094     0.28327E+01 
  60814.1716     0.27390E+01 
  60846.4338     0.26470E+01 
  60878.6959     0.25567E+01 
  60910.9581     0.24681E+01 
  60943.2202     0.23813E+01 
  60975.4824     0.22961E+01 
  61007.7446     0.22127E+01 
  61040.0067     0.21309E+01 
  61072.2689     0.20508E+01 
  61104.5310     0.19725E+01 
  61136.7932     0.18958E+01 
  61169.0554     0.18208E+01 
  61201.3175     0.17476E+01 
  61233.5797     0.16760E+01 
  61265.8418     0.16061E+01 
  61298.1040     0.15379E+01 
  61330.3662     0.14714E+01 
  61362.6283     0.14065E+01 
  61394.8905     0.13434E+01 
  61427.1526     0.12820E+01 
  61459.4148     0.12223E+01 
  61491.6770     0.11642E+01 
  61523.9391     0.11079E+01 
  61556.2013     0.10533E+01 
  61588.4634     0.10004E+01 
  61620.7256     0.94917E+00 
  61652.9878     0.89967E+00 
  61685.2499     0.85189E+00 
  61717.5121     0.80583E+00 
  61749.7742     0.76149E+00 
  61782.0364     0.71888E+00 
  61814.2986     0.67800E+00 
  61846.5607     0.63886E+00 
  61878.8229     0.60147E+00 
  61911.0850     0.56582E+00 
  61943.3472     0.53192E+00 
  61975.6094     0.49979E+00 
  62007.8715     0.46942E+00 
  62040.1337     0.44082E+00 
  62072.3958     0.41401E+00 
  62104.6580     0.38898E+00 
  62136.9202     0.36576E+00 
  62169.1823     0.34433E+00 
  62201.4445     0.32472E+00 
  62233.7066     0.30693E+00 
  62265.9688     0.29098E+00 
  62298.2310     0.27686E+00 
  62330.4931     0.26460E+00 
  62362.7553     0.25420E+00 
  62395.0174     0.24568E+00 
  62427.2796     0.23903E+00 
  62459.5418     0.23429E+00 
  62491.8039     0.23145E+00 
  62524.0661     0.23053E+00 
  62556.3282     0.23155E+00 
  62588.5904     0.23452E+00 
  62620.8526     0.23944E+00 
  62653.1147     0.24634E+00 
  62685.3769     0.25523E+00 
  62717.6390     0.26613E+00 
  62749.9012     0.27905E+00 
  62782.1634     0.29400E+00 
  62814.4255     0.31101E+00 
  62846.6877     0.33009E+00 
  62878.9498     0.35125E+00 
  62911.2120     0.37453E+00 
  62943.4742     0.39993E+00 
  62975.7363     0.42747E+00 
  63007.9985     0.45717E+00 
  63040.2606     0.48906E+00 
  63072.5228     0.52316E+00 
  63104.7850     0.55948E+00 
  63137.0471     0.59805E+00 
  63169.3093     0.63889E+00 
  63201.5714     0.68202E+00 
  63233.8336     0.72747E+00 
  63266.0958     0.77527E+00 
  63298.3579     0.82543E+00 
  63330.6201     0.87798E+00 
  63362.8822     0.93295E+00 
  63395.1444     0.99036E+00 
  63427.4066     0.10502E+01 
  63459.6687     0.11126E+01 
  63491.9309     0.11776E+01 
  63524.1930     0.12450E+01 
  63556.4552     0.13151E+01 
  63588.7174     0.13878E+01 
  63620.9795     0.14631E+01 
  63653.2417     0.15412E+01 
  63685.5038     0.16219E+01 
  63717.7660     0.17054E+01 
  63750.0282     0.17917E+01 
  63782.2903     0.18808E+01 
  63814.5525     0.19728E+01 
  63846.8146     0.20677E+01 
  63879.0768     0.21655E+01 
  63911.3390     0.22663E+01 
  63943.6011     0.23701E+01 
  63975.8633     0.24769E+01 
  64008.1254     0.25869E+01 
  64040.3876     0.27000E+01 
  64072.6498     0.28163E+01 
  64104.9119     0.29358E+01 
  64137.1741     0.30587E+01 
  64169.4362     0.31848E+01 
  64201.6984     0.33143E+01 
  64233.9606     0.34473E+01 
  64266.2227     0.35837E+01 
  64298.4849     0.37236E+01 
  64330.7470     0.38672E+01 
  64363.0092     0.40143E+01 
  64395.2714     0.41652E+01 
  64427.5335     0.43198E+01 
  64459.7957     0.44782E+01 
  64492.0578     0.46405E+01 
  64524.3200     0.48067E+01 
  64556.5822     0.49769E+01 
  64588.8443     0.51512E+01 
  64621.1065     0.53295E+01 
  64653.3686     0.55121E+01 
  64685.6308     0.56989E+01 
  64717.8930     0.58900E+01 
  64750.1551     0.60855E+01 
  64782.4173     0.62855E+01 
  64814.6794     0.64900E+01 
  64846.9416     0.66992E+01 
  64879.2038     0.69130E+01 
  64911.4659     0.71316E+01 
  64943.7281     0.73550E+01 
  64975.9902     0.75834E+01 
  65008.2524     0.78168E+01 
  65040.5146     0.80553E+01 
  65072.7767     0.82990E+01 
  65105.0389     0.85480E+01 
  65137.3010     0.88024E+01 
  65169.5632     0.90623E+01 
  65201.8254     0.93277E+01 
  65234.0875     0.95987E+01 
  65266.3497     0.98756E+01 
  65298.6118     0.10158E+02 
  65330.8740     0.10447E+02 
  65363.1362     0.10742E+02 
  65395.3983     0.11043E+02 
  65427.6605     0.11350E+02 
  65459.9226     0.11664E+02 
  65492.1848     0.11984E+02 
  65524.4470     0.12311E+02 
  65556.7091     0.12644E+02 
  65588.9713     0.12985E+02 
  65621.2334     0.13333E+02 
  65653.4956     0.13687E+02 
  65685.7578     0.14049E+02 
  65718.0199     0.14419E+02 
  65750.2821     0.14796E+02 
  65782.5442     0.15181E+02 
  65814.8064     0.15573E+02 
  65847.0686     0.15974E+02 
  65879.3307     0.16383E+02 
  65911.5929     0.16800E+02 
  65943.8550     0.17225E+02 
  65976.1172     0.17659E+02 
  66008.3794     0.18102E+02 
  66040.6415     0.18554E+02 
  66072.9037     0.19015E+02 
  66105.1658     0.19486E+02 
  66137.4280     0.19966E+02 
  66169.6902     0.20455E+02 
  66201.9523     0.20954E+02 
  66234.2145     0.21464E+02 
  66266.4766     0.21984E+02 
  66298.7388     0.22514E+02 
  66331.0010     0.23054E+02 
  66363.2631     0.23606E+02 
  66395.5253     0.24169E+02 
  66427.7874     0.24742E+02 
  66460.0496     0.25328E+02 
  66492.3118     0.25925E+02 
  66524.5739     0.26534E+02 
  66556.8361     0.27155E+02 
  66589.0982     0.27789E+02 
  66621.3604     0.28435E+02 
  66653.6226     0.29094E+02 
  66685.8847     0.29767E+02 
  66718.1469     0.30453E+02 
  66750.4090     0.31152E+02 
  66782.6712     0.31865E+02 
  66814.9334     0.32593E+02 
  66847.1955     0.33335E+02 
  66879.4577     0.34092E+02 
  66911.7198     0.34864E+02 
  66943.9820     0.35652E+02 
  66976.2442     0.36455E+02 
  67008.5063     0.37274E+02 
  67040.7685     0.38109E+02 
  67073.0306     0.38961E+02 
  67105.2928     0.39830E+02 
  67137.5550     0.40716E+02 
  67169.8171     0.41620E+02 
  67202.0793     0.42542E+02 
  67234.3414     0.43482E+02 
  67266.6036     0.44441E+02 
  67298.8658     0.45419E+02 
  67331.1279     0.46417E+02 
  67363.3901     0.47434E+02 
  67395.6522     0.48471E+02 
  67427.9144     0.49529E+02 
  67460.1766     0.50608E+02 
  67492.4387     0.51708E+02 
  67524.7009     0.52830E+02 
  67556.9630     0.53975E+02 
  67589.2252     0.55142E+02 
  67621.4874     0.56332E+02 
  67653.7495     0.57546E+02 
  67686.0117     0.58784E+02 
  67718.2738     0.60046E+02 
  67750.5360     0.61333E+02 
  67782.7982     0.62646E+02 
  67815.0603     0.63985E+02 
  67847.3225     0.65350E+02 
  67879.5846     0.66742E+02 
  67911.8468     0.68161E+02 
  67944.1090     0.69609E+02 
  67976.3711     0.71085E+02 
  68008.6333     0.72590E+02 
  68040.8954     0.74125E+02 
  68073.1576     0.75690E+02 
  68105.4198     0.77286E+02 
  68137.6819     0.78913E+02 
  68169.9441     0.80573E+02 
  68202.2062     0.82264E+02 
  68234.4684     0.83989E+02 
  68266.7306     0.85748E+02 
  68298.9927     0.87541E+02 
  68331.2549     0.89370E+02 
  68363.5170     0.91234E+02 
  68395.7792     0.93134E+02 
  68428.0414     0.95072E+02 
  68460.3035     0.97047E+02 
  68492.5657     0.99061E+02 
  68524.8278     0.10111E+03 
  68557.0900     0.10321E+03 
  68589.3522     0.10534E+03 
  68621.6143     0.10752E+03 
  68653.8765     0.10973E+03 
  68686.1386     0.11199E+03 
  68718.4008     0.11430E+03 
  68750.6630     0.11665E+03 
  68782.9251     0.11904E+03 
  68815.1873     0.12148E+03 
  68847.4494     0.12397E+03 
  68879.7116     0.12650E+03 
  68911.9738     0.12909E+03 
  68944.2359     0.13172E+03 
  68976.4981     0.13440E+03 
  69008.7602     0.13714E+03 
  69041.0224     0.13992E+03 
  69073.2846     0.14276E+03 
  69105.5467     0.14566E+03 
  69137.8089     0.14861E+03 
  69170.0710     0.15161E+03 
  69202.3332     0.15467E+03 
  69234.5954     0.15779E+03 
  69266.8575     0.16097E+03 
  69299.1197     0.16421E+03 
  69331.3818     0.16751E+03 
  69363.6440     0.17087E+03 
  69395.9062     0.17430E+03 
  69428.1683     0.17778E+03 
  69460.4305     0.18134E+03 
  69492.6926     0.18496E+03 
  69524.9548     0.18865E+03 
  69557.2170     0.19240E+03 
  69589.4791     0.19623E+03 
  69621.7413     0.20012E+03 
  69654.0034     0.20409E+03 
  69686.2656     0.20813E+03 
  69718.5278     0.21225E+03 
  69750.7899     0.21644E+03 
  69783.0521     0.22071E+03 
  69815.3142     0.22506E+03 
  69847.5764     0.22948E+03 
  69879.8386     0.23399E+03 
  69912.1007     0.23857E+03 
  69944.3629     0.24324E+03 
  69976.6250     0.24800E+03 
  70008.8872     0.25284E+03 
  70041.1494     0.25776E+03 
  70073.4115     0.26278E+03 
  70105.6737     0.26788E+03 
  70137.9358     0.27308E+03 
  70170.1980     0.27837E+03 
  70202.4602     0.28375E+03 
  70234.7223     0.28923E+03 
  70266.9845     0.29480E+03 
  70299.2466     0.30047E+03 
  70331.5088     0.30624E+03 
  70363.7710     0.31211E+03 
  70396.0331     0.31809E+03 
  70428.2953     0.32417E+03 
  70460.5574     0.33035E+03 
  70492.8196     0.33664E+03 
  70525.0818     0.34304E+03 
  70557.3439     0.34955E+03 
  70589.6061     0.35617E+03 
  70621.8682     0.36290E+03 
  70654.1304     0.36975E+03 
  70686.3926     0.37671E+03 
  70718.6547     0.38379E+03 
  70750.9169     0.39099E+03 
  70783.1790     0.39832E+03 
  70815.4412     0.40576E+03 
  70847.7034     0.41333E+03 
  70879.9655     0.42102E+03 
  70912.2277     0.42885E+03 
  70944.4898     0.43680E+03 
  70976.7520     0.44488E+03 
  71009.0142     0.45309E+03 
  71041.2763     0.46144E+03 
  71073.5385     0.46993E+03 
  71105.8006     0.47855E+03 
  71138.0628     0.48731E+03 
  71170.3250     0.49622E+03 
  71202.5871     0.50526E+03 
  71234.8493     0.51445E+03 
  71267.1114     0.52379E+03 
  71299.3736     0.53327E+03 
  71331.6358     0.54291E+03 
  71363.8979     0.55270E+03 
  71396.1601     0.56264E+03 
  71428.4222     0.57273E+03 
  71460.6844     0.58298E+03 
  71492.9466     0.59339E+03 
  71525.2087     0.60397E+03 
  71557.4709     0.61470E+03 
  71589.7330     0.62560E+03 
  71621.9952     0.63666E+03 
  71654.2574     0.64789E+03 
  71686.5195     0.65930E+03 
  71718.7817     0.67087E+03 
  71751.0438     0.68262E+03 
  71783.3060     0.69454E+03 
  71815.5682     0.70664E+03 
  71847.8303     0.71891E+03 
  71880.0925     0.73137E+03 
  71912.3546     0.74401E+03 
  71944.6168     0.75684E+03 
  71976.8790     0.76985E+03 
  72009.1411     0.78304E+03 
  72041.4033     0.79643E+03 
  72073.6654     0.81001E+03 
  72105.9276     0.82378E+03 
  72138.1898     0.83775E+03 
  72170.4519     0.85192E+03 
  72202.7141     0.86628E+03 
  72234.9762     0.88084E+03 
  72267.2384     0.89561E+03 
  72299.5006     0.91058E+03 
  72331.7627     0.92575E+03 
  72364.0249     0.94114E+03 
  72396.2870     0.95673E+03 
  72428.5492     0.97253E+03 
  72460.8114     0.98855E+03 
  72493.0735     0.10048E+04 
  72525.3357     0.10212E+04 
  72557.5978     0.10379E+04 
  72589.8600     0.10548E+04 
