  32262.1600     0.53593E+00 
  32294.4222     0.54284E+00 
  32326.6843     0.54982E+00 
  32358.9465     0.55686E+00 
  32391.2086     0.56396E+00 
  32423.4708     0.57112E+00 
  32455.7330     0.57834E+00 
  32487.9951     0.58562E+00 
  32520.2573     0.59296E+00 
  32552.5194     0.60037E+00 
  32584.7816     0.60784E+00 
  32617.0438     0.61536E+00 
  32649.3059     0.62295E+00 
  32681.5681     0.63061E+00 
  32713.8302     0.63832E+00 
  32746.0924     0.64610E+00 
  32778.3546     0.65393E+00 
  32810.6167     0.66183E+00 
  32842.8789     0.66979E+00 
  32875.1410     0.67781E+00 
  32907.4032     0.68590E+00 
  32939.6654     0.69404E+00 
  32971.9275     0.70225E+00 
  33004.1897     0.71052E+00 
  33036.4518     0.71884E+00 
  33068.7140     0.72724E+00 
  33100.9762     0.73569E+00 
  33133.2383     0.74420E+00 
  33165.5005     0.75277E+00 
  33197.7626     0.76141E+00 
  33230.0248     0.77010E+00 
  33262.2870     0.77886E+00 
  33294.5491     0.78767E+00 
  33326.8113     0.79655E+00 
  33359.0734     0.80548E+00 
  33391.3356     0.81448E+00 
  33423.5978     0.82353E+00 
  33455.8599     0.83265E+00 
  33488.1221     0.84182E+00 
  33520.3842     0.85105E+00 
  33552.6464     0.86035E+00 
  33584.9086     0.86970E+00 
  33617.1707     0.87911E+00 
  33649.4329     0.88857E+00 
  33681.6950     0.89810E+00 
  33713.9572     0.90768E+00 
  33746.2194     0.91732E+00 
  33778.4815     0.92702E+00 
  33810.7437     0.93677E+00 
  33843.0058     0.94658E+00 
  33875.2680     0.95645E+00 
  33907.5302     0.96637E+00 
  33939.7923     0.97635E+00 
  33972.0545     0.98638E+00 
  34004.3166     0.99647E+00 
  34036.5788     0.10066E+01 
  34068.8410     0.10168E+01 
  34101.1031     0.10271E+01 
  34133.3653     0.10374E+01 
  34165.6274     0.10477E+01 
  34197.8896     0.10581E+01 
  34230.1518     0.10686E+01 
  34262.4139     0.10791E+01 
  34294.6761     0.10897E+01 
  34326.9382     0.11003E+01 
  34359.2004     0.11109E+01 
  34391.4626     0.11217E+01 
  34423.7247     0.11324E+01 
  34455.9869     0.11432E+01 
  34488.2490     0.11541E+01 
  34520.5112     0.11650E+01 
  34552.7734     0.11760E+01 
  34585.0355     0.11870E+01 
  34617.2977     0.11980E+01 
  34649.5598     0.12091E+01 
  34681.8220     0.12202E+01 
  34714.0842     0.12314E+01 
  34746.3463     0.12427E+01 
  34778.6085     0.12539E+01 
  34810.8706     0.12653E+01 
  34843.1328     0.12766E+01 
  34875.3950     0.12880E+01 
  34907.6571     0.12995E+01 
  34939.9193     0.13109E+01 
  34972.1814     0.13225E+01 
  35004.4436     0.13340E+01 
  35036.7058     0.13456E+01 
  35068.9679     0.13573E+01 
  35101.2301     0.13689E+01 
  35133.4922     0.13806E+01 
  35165.7544     0.13924E+01 
  35198.0166     0.14042E+01 
  35230.2787     0.14160E+01 
  35262.5409     0.14278E+01 
  35294.8030     0.14397E+01 
  35327.0652     0.14517E+01 
  35359.3274     0.14636E+01 
  35391.5895     0.14756E+01 
  35423.8517     0.14876E+01 
  35456.1138     0.14996E+01 
  35488.3760     0.15117E+01 
  35520.6382     0.15238E+01 
  35552.9003     0.15359E+01 
  35585.1625     0.15481E+01 
  35617.4246     0.15603E+01 
  35649.6868     0.15725E+01 
  35681.9490     0.15847E+01 
  35714.2111     0.15969E+01 
  35746.4733     0.16092E+01 
  35778.7354     0.16215E+01 
  35810.9976     0.16338E+01 
  35843.2598     0.16462E+01 
  35875.5219     0.16585E+01 
  35907.7841     0.16709E+01 
  35940.0462     0.16833E+01 
  35972.3084     0.16957E+01 
  36004.5706     0.17081E+01 
  36036.8327     0.17206E+01 
  36069.0949     0.17330E+01 
  36101.3570     0.17455E+01 
  36133.6192     0.17580E+01 
  36165.8814     0.17705E+01 
  36198.1435     0.17830E+01 
  36230.4057     0.17955E+01 
  36262.6678     0.18080E+01 
  36294.9300     0.18205E+01 
  36327.1922     0.18331E+01 
  36359.4543     0.18456E+01 
  36391.7165     0.18582E+01 
  36423.9786     0.18707E+01 
  36456.2408     0.18833E+01 
  36488.5030     0.18958E+01 
  36520.7651     0.19084E+01 
  36553.0273     0.19210E+01 
  36585.2894     0.19335E+01 
  36617.5516     0.19461E+01 
  36649.8138     0.19586E+01 
  36682.0759     0.19712E+01 
  36714.3381     0.19837E+01 
  36746.6002     0.19963E+01 
  36778.8624     0.20088E+01 
  36811.1246     0.20214E+01 
  36843.3867     0.20339E+01 
  36875.6489     0.20464E+01 
  36907.9110     0.20589E+01 
  36940.1732     0.20714E+01 
  36972.4354     0.20839E+01 
  37004.6975     0.20964E+01 
  37036.9597     0.21088E+01 
  37069.2218     0.21213E+01 
  37101.4840     0.21337E+01 
  37133.7462     0.21461E+01 
  37166.0083     0.21585E+01 
  37198.2705     0.21709E+01 
  37230.5326     0.21832E+01 
  37262.7948     0.21956E+01 
  37295.0570     0.22079E+01 
  37327.3191     0.22202E+01 
  37359.5813     0.22325E+01 
  37391.8434     0.22447E+01 
  37424.1056     0.22569E+01 
  37456.3678     0.22691E+01 
  37488.6299     0.22813E+01 
  37520.8921     0.22934E+01 
  37553.1542     0.23055E+01 
  37585.4164     0.23176E+01 
  37617.6786     0.23297E+01 
  37649.9407     0.23417E+01 
  37682.2029     0.23537E+01 
  37714.4650     0.23656E+01 
  37746.7272     0.23775E+01 
  37778.9894     0.23894E+01 
  37811.2515     0.24013E+01 
  37843.5137     0.24131E+01 
  37875.7758     0.24248E+01 
  37908.0380     0.24366E+01 
  37940.3002     0.24482E+01 
  37972.5623     0.24599E+01 
  38004.8245     0.24715E+01 
  38037.0866     0.24830E+01 
  38069.3488     0.24946E+01 
  38101.6110     0.25060E+01 
  38133.8731     0.25175E+01 
  38166.1353     0.25288E+01 
  38198.3974     0.25402E+01 
  38230.6596     0.25514E+01 
  38262.9218     0.25627E+01 
  38295.1839     0.25738E+01 
  38327.4461     0.25850E+01 
  38359.7082     0.25960E+01 
  38391.9704     0.26071E+01 
  38424.2326     0.26180E+01 
  38456.4947     0.26289E+01 
  38488.7569     0.26398E+01 
  38521.0190     0.26506E+01 
  38553.2812     0.26613E+01 
  38585.5434     0.26720E+01 
  38617.8055     0.26826E+01 
  38650.0677     0.26932E+01 
  38682.3298     0.27037E+01 
  38714.5920     0.27141E+01 
  38746.8542     0.27245E+01 
  38779.1163     0.27348E+01 
  38811.3785     0.27451E+01 
  38843.6406     0.27553E+01 
  38875.9028     0.27654E+01 
  38908.1650     0.27754E+01 
  38940.4271     0.27854E+01 
  38972.6893     0.27953E+01 
  39004.9514     0.28052E+01 
  39037.2136     0.28149E+01 
  39069.4758     0.28246E+01 
  39101.7379     0.28343E+01 
  39134.0001     0.28438E+01 
  39166.2622     0.28533E+01 
  39198.5244     0.28627E+01 
  39230.7866     0.28720E+01 
  39263.0487     0.28813E+01 
  39295.3109     0.28905E+01 
  39327.5730     0.28996E+01 
  39359.8352     0.29086E+01 
  39392.0974     0.29176E+01 
  39424.3595     0.29264E+01 
  39456.6217     0.29352E+01 
  39488.8838     0.29439E+01 
  39521.1460     0.29526E+01 
  39553.4082     0.29611E+01 
  39585.6703     0.29696E+01 
  39617.9325     0.29780E+01 
  39650.1946     0.29863E+01 
  39682.4568     0.29945E+01 
  39714.7190     0.30026E+01 
  39746.9811     0.30107E+01 
  39779.2433     0.30186E+01 
  39811.5054     0.30265E+01 
  39843.7676     0.30343E+01 
  39876.0298     0.30420E+01 
  39908.2919     0.30496E+01 
  39940.5541     0.30571E+01 
  39972.8162     0.30645E+01 
  40005.0784     0.30719E+01 
  40037.3406     0.30791E+01 
  40069.6027     0.30863E+01 
  40101.8649     0.30934E+01 
  40134.1270     0.31003E+01 
  40166.3892     0.31072E+01 
  40198.6514     0.31140E+01 
  40230.9135     0.31207E+01 
  40263.1757     0.31273E+01 
  40295.4378     0.31338E+01 
  40327.7000     0.31403E+01 
  40359.9622     0.31466E+01 
  40392.2243     0.31528E+01 
  40424.4865     0.31589E+01 
  40456.7486     0.31650E+01 
  40489.0108     0.31709E+01 
  40521.2730     0.31767E+01 
  40553.5351     0.31825E+01 
  40585.7973     0.31881E+01 
  40618.0594     0.31937E+01 
  40650.3216     0.31991E+01 
  40682.5838     0.32045E+01 
  40714.8459     0.32097E+01 
  40747.1081     0.32149E+01 
  40779.3702     0.32199E+01 
  40811.6324     0.32249E+01 
  40843.8946     0.32297E+01 
  40876.1567     0.32345E+01 
  40908.4189     0.32391E+01 
  40940.6810     0.32437E+01 
  40972.9432     0.32481E+01 
  41005.2054     0.32525E+01 
  41037.4675     0.32567E+01 
  41069.7297     0.32608E+01 
  41101.9918     0.32649E+01 
  41134.2540     0.32688E+01 
  41166.5162     0.32727E+01 
  41198.7783     0.32764E+01 
  41231.0405     0.32800E+01 
  41263.3026     0.32835E+01 
  41295.5648     0.32870E+01 
  41327.8270     0.32903E+01 
  41360.0891     0.32935E+01 
  41392.3513     0.32966E+01 
  41424.6134     0.32996E+01 
  41456.8756     0.33025E+01 
  41489.1378     0.33053E+01 
  41521.3999     0.33080E+01 
  41553.6621     0.33106E+01 
  41585.9242     0.33131E+01 
  41618.1864     0.33155E+01 
  41650.4486     0.33178E+01 
  41682.7107     0.33200E+01 
  41714.9729     0.33221E+01 
  41747.2350     0.33240E+01 
  41779.4972     0.33259E+01 
  41811.7594     0.33277E+01 
  41844.0215     0.33293E+01 
  41876.2837     0.33309E+01 
  41908.5458     0.33323E+01 
  41940.8080     0.33337E+01 
  41973.0702     0.33349E+01 
  42005.3323     0.33361E+01 
  42037.5945     0.33371E+01 
  42069.8566     0.33381E+01 
  42102.1188     0.33389E+01 
  42134.3810     0.33396E+01 
  42166.6431     0.33403E+01 
  42198.9053     0.33408E+01 
  42231.1674     0.33412E+01 
  42263.4296     0.33415E+01 
  42295.6918     0.33418E+01 
  42327.9539     0.33419E+01 
  42360.2161     0.33419E+01 
  42392.4782     0.33418E+01 
  42424.7404     0.33416E+01 
  42457.0026     0.33413E+01 
  42489.2647     0.33409E+01 
  42521.5269     0.33404E+01 
  42553.7890     0.33399E+01 
  42586.0512     0.33392E+01 
  42618.3134     0.33384E+01 
  42650.5755     0.33375E+01 
  42682.8377     0.33365E+01 
  42715.0998     0.33354E+01 
  42747.3620     0.33342E+01 
  42779.6242     0.33329E+01 
  42811.8863     0.33315E+01 
  42844.1485     0.33301E+01 
  42876.4106     0.33285E+01 
  42908.6728     0.33268E+01 
  42940.9350     0.33250E+01 
  42973.1971     0.33231E+01 
  43005.4593     0.33212E+01 
  43037.7214     0.33191E+01 
  43069.9836     0.33170E+01 
  43102.2458     0.33147E+01 
  43134.5079     0.33123E+01 
  43166.7701     0.33099E+01 
  43199.0322     0.33074E+01 
  43231.2944     0.33047E+01 
  43263.5566     0.33020E+01 
  43295.8187     0.32992E+01 
  43328.0809     0.32963E+01 
  43360.3430     0.32933E+01 
  43392.6052     0.32902E+01 
  43424.8674     0.32870E+01 
  43457.1295     0.32837E+01 
  43489.3917     0.32804E+01 
  43521.6538     0.32769E+01 
  43553.9160     0.32734E+01 
  43586.1782     0.32697E+01 
  43618.4403     0.32660E+01 
  43650.7025     0.32622E+01 
  43682.9646     0.32583E+01 
  43715.2268     0.32543E+01 
  43747.4890     0.32502E+01 
  43779.7511     0.32461E+01 
  43812.0133     0.32418E+01 
  43844.2754     0.32375E+01 
  43876.5376     0.32331E+01 
  43908.7998     0.32286E+01 
  43941.0619     0.32240E+01 
  43973.3241     0.32194E+01 
  44005.5862     0.32146E+01 
  44037.8484     0.32098E+01 
  44070.1106     0.32049E+01 
  44102.3727     0.31999E+01 
  44134.6349     0.31949E+01 
  44166.8970     0.31897E+01 
  44199.1592     0.31845E+01 
  44231.4214     0.31792E+01 
  44263.6835     0.31738E+01 
  44295.9457     0.31683E+01 
  44328.2078     0.31628E+01 
  44360.4700     0.31572E+01 
  44392.7322     0.31515E+01 
  44424.9943     0.31458E+01 
  44457.2565     0.31399E+01 
  44489.5186     0.31340E+01 
  44521.7808     0.31280E+01 
  44554.0430     0.31220E+01 
  44586.3051     0.31159E+01 
  44618.5673     0.31097E+01 
  44650.8294     0.31034E+01 
  44683.0916     0.30971E+01 
  44715.3538     0.30907E+01 
  44747.6159     0.30842E+01 
  44779.8781     0.30777E+01 
  44812.1402     0.30711E+01 
  44844.4024     0.30644E+01 
  44876.6646     0.30576E+01 
  44908.9267     0.30508E+01 
  44941.1889     0.30440E+01 
  44973.4510     0.30370E+01 
  45005.7132     0.30300E+01 
  45037.9754     0.30230E+01 
  45070.2375     0.30159E+01 
  45102.4997     0.30087E+01 
  45134.7618     0.30014E+01 
  45167.0240     0.29941E+01 
  45199.2862     0.29868E+01 
  45231.5483     0.29794E+01 
  45263.8105     0.29719E+01 
  45296.0726     0.29643E+01 
  45328.3348     0.29567E+01 
  45360.5970     0.29491E+01 
  45392.8591     0.29414E+01 
  45425.1213     0.29336E+01 
  45457.3834     0.29258E+01 
  45489.6456     0.29180E+01 
  45521.9078     0.29100E+01 
  45554.1699     0.29021E+01 
  45586.4321     0.28940E+01 
  45618.6942     0.28860E+01 
  45650.9564     0.28778E+01 
  45683.2186     0.28697E+01 
  45715.4807     0.28614E+01 
  45747.7429     0.28532E+01 
  45780.0050     0.28449E+01 
  45812.2672     0.28365E+01 
  45844.5294     0.28281E+01 
  45876.7915     0.28196E+01 
  45909.0537     0.28111E+01 
  45941.3158     0.28026E+01 
  45973.5780     0.27940E+01 
  46005.8402     0.27854E+01 
  46038.1023     0.27767E+01 
  46070.3645     0.27680E+01 
  46102.6266     0.27592E+01 
  46134.8888     0.27504E+01 
  46167.1510     0.27416E+01 
  46199.4131     0.27327E+01 
  46231.6753     0.27238E+01 
  46263.9374     0.27149E+01 
  46296.1996     0.27059E+01 
  46328.4618     0.26969E+01 
  46360.7239     0.26878E+01 
  46392.9861     0.26787E+01 
  46425.2482     0.26696E+01 
  46457.5104     0.26605E+01 
  46489.7726     0.26513E+01 
  46522.0347     0.26420E+01 
  46554.2969     0.26328E+01 
  46586.5590     0.26235E+01 
  46618.8212     0.26142E+01 
  46651.0834     0.26049E+01 
  46683.3455     0.25955E+01 
  46715.6077     0.25861E+01 
  46747.8698     0.25767E+01 
  46780.1320     0.25672E+01 
  46812.3942     0.25577E+01 
  46844.6563     0.25482E+01 
  46876.9185     0.25387E+01 
  46909.1806     0.25292E+01 
  46941.4428     0.25196E+01 
  46973.7050     0.25100E+01 
  47005.9671     0.25004E+01 
  47038.2293     0.24907E+01 
  47070.4914     0.24810E+01 
  47102.7536     0.24714E+01 
  47135.0158     0.24617E+01 
  47167.2779     0.24519E+01 
  47199.5401     0.24422E+01 
  47231.8022     0.24324E+01 
  47264.0644     0.24227E+01 
  47296.3266     0.24129E+01 
  47328.5887     0.24031E+01 
  47360.8509     0.23932E+01 
  47393.1130     0.23834E+01 
  47425.3752     0.23735E+01 
  47457.6374     0.23637E+01 
  47489.8995     0.23538E+01 
  47522.1617     0.23439E+01 
  47554.4238     0.23340E+01 
  47586.6860     0.23241E+01 
  47618.9482     0.23141E+01 
  47651.2103     0.23042E+01 
  47683.4725     0.22943E+01 
  47715.7346     0.22843E+01 
  47747.9968     0.22743E+01 
  47780.2590     0.22644E+01 
  47812.5211     0.22544E+01 
  47844.7833     0.22444E+01 
  47877.0454     0.22344E+01 
  47909.3076     0.22244E+01 
  47941.5698     0.22144E+01 
  47973.8319     0.22044E+01 
  48006.0941     0.21944E+01 
  48038.3562     0.21843E+01 
  48070.6184     0.21743E+01 
  48102.8806     0.21643E+01 
  48135.1427     0.21543E+01 
  48167.4049     0.21442E+01 
  48199.6670     0.21342E+01 
  48231.9292     0.21242E+01 
  48264.1914     0.21142E+01 
  48296.4535     0.21041E+01 
  48328.7157     0.20941E+01 
  48360.9778     0.20841E+01 
  48393.2400     0.20741E+01 
  48425.5022     0.20640E+01 
  48457.7643     0.20540E+01 
  48490.0265     0.20440E+01 
  48522.2886     0.20340E+01 
  48554.5508     0.20240E+01 
  48586.8130     0.20140E+01 
  48619.0751     0.20040E+01 
  48651.3373     0.19940E+01 
  48683.5994     0.19840E+01 
  48715.8616     0.19740E+01 
  48748.1238     0.19641E+01 
  48780.3859     0.19541E+01 
  48812.6481     0.19442E+01 
  48844.9102     0.19342E+01 
  48877.1724     0.19243E+01 
  48909.4346     0.19143E+01 
  48941.6967     0.19044E+01 
  48973.9589     0.18945E+01 
  49006.2210     0.18846E+01 
  49038.4832     0.18747E+01 
  49070.7454     0.18649E+01 
  49103.0075     0.18550E+01 
  49135.2697     0.18451E+01 
  49167.5318     0.18353E+01 
  49199.7940     0.18255E+01 
  49232.0562     0.18157E+01 
  49264.3183     0.18059E+01 
  49296.5805     0.17961E+01 
  49328.8426     0.17863E+01 
  49361.1048     0.17766E+01 
  49393.3670     0.17668E+01 
  49425.6291     0.17571E+01 
  49457.8913     0.17474E+01 
  49490.1534     0.17377E+01 
  49522.4156     0.17280E+01 
  49554.6778     0.17184E+01 
  49586.9399     0.17087E+01 
  49619.2021     0.16991E+01 
  49651.4642     0.16895E+01 
  49683.7264     0.16799E+01 
  49715.9886     0.16704E+01 
  49748.2507     0.16608E+01 
  49780.5129     0.16513E+01 
  49812.7750     0.16418E+01 
  49845.0372     0.16323E+01 
  49877.2994     0.16228E+01 
  49909.5615     0.16134E+01 
  49941.8237     0.16039E+01 
  49974.0858     0.15945E+01 
  50006.3480     0.15851E+01 
  50038.6102     0.15758E+01 
  50070.8723     0.15664E+01 
  50103.1345     0.15571E+01 
  50135.3966     0.15478E+01 
  50167.6588     0.15386E+01 
  50199.9210     0.15293E+01 
  50232.1831     0.15201E+01 
  50264.4453     0.15109E+01 
  50296.7074     0.15017E+01 
  50328.9696     0.14926E+01 
  50361.2318     0.14834E+01 
  50393.4939     0.14743E+01 
  50425.7561     0.14652E+01 
  50458.0182     0.14562E+01 
  50490.2804     0.14472E+01 
  50522.5426     0.14381E+01 
  50554.8047     0.14292E+01 
  50587.0669     0.14202E+01 
  50619.3290     0.14113E+01 
  50651.5912     0.14024E+01 
  50683.8534     0.13935E+01 
  50716.1155     0.13847E+01 
  50748.3777     0.13759E+01 
  50780.6398     0.13671E+01 
  50812.9020     0.13583E+01 
  50845.1642     0.13496E+01 
  50877.4263     0.13409E+01 
  50909.6885     0.13322E+01 
  50941.9506     0.13235E+01 
  50974.2128     0.13149E+01 
  51006.4750     0.13063E+01 
  51038.7371     0.12977E+01 
  51070.9993     0.12892E+01 
  51103.2614     0.12807E+01 
  51135.5236     0.12722E+01 
  51167.7858     0.12638E+01 
  51200.0479     0.12554E+01 
  51232.3101     0.12470E+01 
  51264.5722     0.12386E+01 
  51296.8344     0.12303E+01 
  51329.0966     0.12220E+01 
  51361.3587     0.12137E+01 
  51393.6209     0.12055E+01 
  51425.8830     0.11973E+01 
  51458.1452     0.11891E+01 
  51490.4074     0.11809E+01 
  51522.6695     0.11728E+01 
  51554.9317     0.11647E+01 
  51587.1938     0.11567E+01 
  51619.4560     0.11486E+01 
  51651.7182     0.11407E+01 
  51683.9803     0.11327E+01 
  51716.2425     0.11248E+01 
  51748.5046     0.11169E+01 
  51780.7668     0.11090E+01 
  51813.0290     0.11012E+01 
  51845.2911     0.10934E+01 
  51877.5533     0.10856E+01 
  51909.8154     0.10779E+01 
  51942.0776     0.10701E+01 
  51974.3398     0.10625E+01 
  52006.6019     0.10548E+01 
  52038.8641     0.10472E+01 
  52071.1262     0.10396E+01 
  52103.3884     0.10321E+01 
  52135.6506     0.10246E+01 
  52167.9127     0.10171E+01 
  52200.1749     0.10097E+01 
  52232.4370     0.10022E+01 
  52264.6992     0.99486E+00 
  52296.9614     0.98751E+00 
  52329.2235     0.98020E+00 
  52361.4857     0.97292E+00 
  52393.7478     0.96567E+00 
  52426.0100     0.95845E+00 
  52458.2722     0.95126E+00 
  52490.5343     0.94411E+00 
  52522.7965     0.93699E+00 
  52555.0586     0.92991E+00 
  52587.3208     0.92286E+00 
  52619.5830     0.91584E+00 
  52651.8451     0.90885E+00 
  52684.1073     0.90190E+00 
  52716.3694     0.89498E+00 
  52748.6316     0.88809E+00 
  52780.8938     0.88124E+00 
  52813.1559     0.87442E+00 
  52845.4181     0.86763E+00 
  52877.6802     0.86088E+00 
  52909.9424     0.85416E+00 
  52942.2046     0.84747E+00 
  52974.4667     0.84082E+00 
  53006.7289     0.83419E+00 
  53038.9910     0.82761E+00 
  53071.2532     0.82105E+00 
  53103.5154     0.81453E+00 
  53135.7775     0.80804E+00 
  53168.0397     0.80159E+00 
  53200.3018     0.79516E+00 
  53232.5640     0.78877E+00 
  53264.8262     0.78242E+00 
  53297.0883     0.77609E+00 
  53329.3505     0.76980E+00 
  53361.6126     0.76355E+00 
  53393.8748     0.75732E+00 
  53426.1370     0.75113E+00 
  53458.3991     0.74497E+00 
  53490.6613     0.73885E+00 
  53522.9234     0.73275E+00 
  53555.1856     0.72669E+00 
  53587.4478     0.72066E+00 
  53619.7099     0.71467E+00 
  53651.9721     0.70871E+00 
  53684.2342     0.70278E+00 
  53716.4964     0.69688E+00 
  53748.7586     0.69101E+00 
  53781.0207     0.68518E+00 
  53813.2829     0.67938E+00 
  53845.5450     0.67361E+00 
  53877.8072     0.66788E+00 
  53910.0694     0.66218E+00 
  53942.3315     0.65651E+00 
  53974.5937     0.65087E+00 
  54006.8558     0.64526E+00 
  54039.1180     0.63968E+00 
  54071.3802     0.63414E+00 
  54103.6423     0.62863E+00 
  54135.9045     0.62315E+00 
  54168.1666     0.61770E+00 
  54200.4288     0.61229E+00 
  54232.6910     0.60690E+00 
  54264.9531     0.60155E+00 
  54297.2153     0.59623E+00 
  54329.4774     0.59094E+00 
  54361.7396     0.58568E+00 
  54394.0018     0.58045E+00 
  54426.2639     0.57525E+00 
  54458.5261     0.57009E+00 
  54490.7882     0.56495E+00 
  54523.0504     0.55985E+00 
  54555.3126     0.55478E+00 
  54587.5747     0.54973E+00 
  54619.8369     0.54472E+00 
  54652.0990     0.53974E+00 
  54684.3612     0.53479E+00 
  54716.6234     0.52987E+00 
  54748.8855     0.52498E+00 
  54781.1477     0.52012E+00 
  54813.4098     0.51529E+00 
  54845.6720     0.51049E+00 
  54877.9342     0.50572E+00 
  54910.1963     0.50098E+00 
  54942.4585     0.49627E+00 
  54974.7206     0.49159E+00 
  55006.9828     0.48694E+00 
  55039.2450     0.48232E+00 
  55071.5071     0.47773E+00 
  55103.7693     0.47316E+00 
  55136.0314     0.46863E+00 
  55168.2936     0.46412E+00 
  55200.5558     0.45965E+00 
  55232.8179     0.45520E+00 
  55265.0801     0.45078E+00 
  55297.3422     0.44639E+00 
  55329.6044     0.44203E+00 
  55361.8666     0.43770E+00 
  55394.1287     0.43340E+00 
  55426.3909     0.42912E+00 
  55458.6530     0.42487E+00 
  55490.9152     0.42065E+00 
  55523.1774     0.41646E+00 
  55555.4395     0.41230E+00 
  55587.7017     0.40816E+00 
  55619.9638     0.40405E+00 
  55652.2260     0.39997E+00 
  55684.4882     0.39592E+00 
  55716.7503     0.39189E+00 
  55749.0125     0.38790E+00 
  55781.2746     0.38392E+00 
  55813.5368     0.37998E+00 
  55845.7990     0.37606E+00 
  55878.0611     0.37217E+00 
  55910.3233     0.36831E+00 
  55942.5854     0.36447E+00 
  55974.8476     0.36066E+00 
  56007.1098     0.35687E+00 
  56039.3719     0.35311E+00 
  56071.6341     0.34938E+00 
  56103.8962     0.34567E+00 
  56136.1584     0.34199E+00 
  56168.4206     0.33834E+00 
  56200.6827     0.33471E+00 
  56232.9449     0.33111E+00 
  56265.2070     0.32753E+00 
  56297.4692     0.32398E+00 
  56329.7314     0.32045E+00 
  56361.9935     0.31695E+00 
  56394.2557     0.31347E+00 
  56426.5178     0.31002E+00 
  56458.7800     0.30659E+00 
  56491.0422     0.30319E+00 
  56523.3043     0.29981E+00 
  56555.5665     0.29646E+00 
  56587.8286     0.29313E+00 
  56620.0908     0.28982E+00 
  56652.3530     0.28654E+00 
  56684.6151     0.28328E+00 
  56716.8773     0.28005E+00 
  56749.1394     0.27684E+00 
  56781.4016     0.27366E+00 
  56813.6638     0.27050E+00 
  56845.9259     0.26736E+00 
  56878.1881     0.26424E+00 
  56910.4502     0.26115E+00 
  56942.7124     0.25808E+00 
  56974.9746     0.25504E+00 
  57007.2367     0.25202E+00 
  57039.4989     0.24902E+00 
  57071.7610     0.24604E+00 
  57104.0232     0.24309E+00 
  57136.2854     0.24016E+00 
  57168.5475     0.23725E+00 
  57200.8097     0.23436E+00 
  57233.0718     0.23150E+00 
  57265.3340     0.22866E+00 
  57297.5962     0.22583E+00 
  57329.8583     0.22304E+00 
  57362.1205     0.22026E+00 
  57394.3826     0.21751E+00 
  57426.6448     0.21477E+00 
  57458.9070     0.21206E+00 
  57491.1691     0.20937E+00 
  57523.4313     0.20670E+00 
  57555.6934     0.20405E+00 
  57587.9556     0.20143E+00 
  57620.2178     0.19882E+00 
  57652.4799     0.19624E+00 
  57684.7421     0.19367E+00 
  57717.0042     0.19113E+00 
  57749.2664     0.18860E+00 
  57781.5286     0.18610E+00 
  57813.7907     0.18362E+00 
  57846.0529     0.18116E+00 
  57878.3150     0.17872E+00 
  57910.5772     0.17629E+00 
  57942.8394     0.17389E+00 
  57975.1015     0.17151E+00 
  58007.3637     0.16915E+00 
  58039.6258     0.16681E+00 
  58071.8880     0.16448E+00 
  58104.1502     0.16218E+00 
  58136.4123     0.15990E+00 
  58168.6745     0.15763E+00 
  58200.9366     0.15539E+00 
  58233.1988     0.15316E+00 
  58265.4610     0.15095E+00 
  58297.7231     0.14877E+00 
  58329.9853     0.14660E+00 
  58362.2474     0.14445E+00 
  58394.5096     0.14231E+00 
  58426.7718     0.14020E+00 
  58459.0339     0.13811E+00 
  58491.2961     0.13603E+00 
  58523.5582     0.13397E+00 
  58555.8204     0.13193E+00 
  58588.0826     0.12991E+00 
  58620.3447     0.12791E+00 
  58652.6069     0.12592E+00 
  58684.8690     0.12395E+00 
  58717.1312     0.12201E+00 
  58749.3934     0.12007E+00 
  58781.6555     0.11816E+00 
  58813.9177     0.11626E+00 
  58846.1798     0.11438E+00 
  58878.4420     0.11252E+00 
  58910.7042     0.11068E+00 
  58942.9663     0.10885E+00 
  58975.2285     0.10704E+00 
  59007.4906     0.10525E+00 
  59039.7528     0.10347E+00 
  59072.0150     0.10172E+00 
  59104.2771     0.99974E-01 
  59136.5393     0.98249E-01 
  59168.8014     0.96542E-01 
  59201.0636     0.94851E-01 
  59233.3258     0.93176E-01 
  59265.5879     0.91519E-01 
  59297.8501     0.89878E-01 
  59330.1122     0.88253E-01 
  59362.3744     0.86645E-01 
  59394.6366     0.85053E-01 
  59426.8987     0.83478E-01 
  59459.1609     0.81919E-01 
  59491.4230     0.80376E-01 
  59523.6852     0.78849E-01 
  59555.9474     0.77338E-01 
  59588.2095     0.75843E-01 
  59620.4717     0.74364E-01 
  59652.7338     0.72901E-01 
  59684.9960     0.71454E-01 
  59717.2582     0.70023E-01 
  59749.5203     0.68608E-01 
  59781.7825     0.67208E-01 
  59814.0446     0.65824E-01 
  59846.3068     0.64456E-01 
  59878.5690     0.63103E-01 
  59910.8311     0.61766E-01 
  59943.0933     0.60444E-01 
  59975.3554     0.59138E-01 
  60007.6176     0.57848E-01 
  60039.8798     0.56572E-01 
  60072.1419     0.55312E-01 
  60104.4041     0.54068E-01 
  60136.6662     0.52838E-01 
  60168.9284     0.51624E-01 
  60201.1906     0.50425E-01 
  60233.4527     0.49242E-01 
  60265.7149     0.48073E-01 
  60297.9770     0.46920E-01 
  60330.2392     0.45782E-01 
  60362.5014     0.44659E-01 
  60394.7635     0.43551E-01 
  60427.0257     0.42459E-01 
  60459.2878     0.41381E-01 
  60491.5500     0.40318E-01 
  60523.8122     0.39271E-01 
  60556.0743     0.38238E-01 
  60588.3365     0.37220E-01 
  60620.5986     0.36218E-01 
  60652.8608     0.35230E-01 
  60685.1230     0.34258E-01 
  60717.3851     0.33300E-01 
  60749.6473     0.32358E-01 
  60781.9094     0.31430E-01 
  60814.1716     0.30518E-01 
  60846.4338     0.29620E-01 
  60878.6959     0.28738E-01 
  60910.9581     0.27870E-01 
  60943.2202     0.27018E-01 
  60975.4824     0.26180E-01 
  61007.7446     0.25358E-01 
  61040.0067     0.24551E-01 
  61072.2689     0.23758E-01 
  61104.5310     0.22981E-01 
  61136.7932     0.22220E-01 
  61169.0554     0.21473E-01 
  61201.3175     0.20741E-01 
  61233.5797     0.20025E-01 
  61265.8418     0.19324E-01 
  61298.1040     0.18638E-01 
  61330.3662     0.17968E-01 
  61362.6283     0.17313E-01 
  61394.8905     0.16673E-01 
  61427.1526     0.16049E-01 
  61459.4148     0.15441E-01 
  61491.6770     0.14848E-01 
  61523.9391     0.14271E-01 
  61556.2013     0.13709E-01 
  61588.4634     0.13163E-01 
  61620.7256     0.12633E-01 
  61652.9878     0.12119E-01 
  61685.2499     0.11620E-01 
  61717.5121     0.11138E-01 
  61749.7742     0.10672E-01 
  61782.0364     0.10222E-01 
  61814.2986     0.97882E-02 
  61846.5607     0.93707E-02 
  61878.8229     0.89697E-02 
  61911.0850     0.85852E-02 
  61943.3472     0.82173E-02 
  61975.6094     0.78661E-02 
  62007.8715     0.75317E-02 
  62040.1337     0.72143E-02 
  62072.3958     0.69138E-02 
  62104.6580     0.66305E-02 
  62136.9202     0.63644E-02 
  62169.1823     0.61156E-02 
  62201.4445     0.58844E-02 
  62233.7066     0.56708E-02 
  62265.9688     0.54749E-02 
  62298.2310     0.52969E-02 
  62330.4931     0.51369E-02 
  62362.7553     0.49951E-02 
  62395.0174     0.48717E-02 
  62427.2796     0.47667E-02 
  62459.5418     0.46803E-02 
  62491.8039     0.46127E-02 
  62524.0661     0.45641E-02 
  62556.3282     0.45345E-02 
  62588.5904     0.45244E-02 
  62620.8526     0.45336E-02 
  62653.1147     0.45626E-02 
  62685.3769     0.46114E-02 
  62717.6390     0.46803E-02 
  62749.9012     0.47695E-02 
  62782.1634     0.48791E-02 
  62814.4255     0.50095E-02 
  62846.6877     0.51607E-02 
  62878.9498     0.53330E-02 
  62911.2120     0.55268E-02 
  62943.4742     0.57421E-02 
  62975.7363     0.59792E-02 
  63007.9985     0.62385E-02 
  63040.2606     0.65201E-02 
  63072.5228     0.68242E-02 
  63104.7850     0.71513E-02 
  63137.0471     0.75015E-02 
  63169.3093     0.78751E-02 
  63201.5714     0.82725E-02 
  63233.8336     0.86938E-02 
  63266.0958     0.91395E-02 
  63298.3579     0.96098E-02 
  63330.6201     0.10105E-01 
  63362.8822     0.10625E-01 
  63395.1444     0.11172E-01 
  63427.4066     0.11744E-01 
  63459.6687     0.12342E-01 
  63491.9309     0.12967E-01 
  63524.1930     0.13619E-01 
  63556.4552     0.14298E-01 
  63588.7174     0.15005E-01 
  63620.9795     0.15740E-01 
  63653.2417     0.16504E-01 
  63685.5038     0.17297E-01 
  63717.7660     0.18119E-01 
  63750.0282     0.18970E-01 
  63782.2903     0.19853E-01 
  63814.5525     0.20765E-01 
  63846.8146     0.21709E-01 
  63879.0768     0.22684E-01 
  63911.3390     0.23692E-01 
  63943.6011     0.24732E-01 
  63975.8633     0.25805E-01 
  64008.1254     0.26912E-01 
  64040.3876     0.28052E-01 
  64072.6498     0.29227E-01 
  64104.9119     0.30438E-01 
  64137.1741     0.31684E-01 
  64169.4362     0.32966E-01 
  64201.6984     0.34285E-01 
  64233.9606     0.35642E-01 
  64266.2227     0.37036E-01 
  64298.4849     0.38469E-01 
  64330.7470     0.39942E-01 
  64363.0092     0.41454E-01 
  64395.2714     0.43007E-01 
  64427.5335     0.44601E-01 
  64459.7957     0.46236E-01 
  64492.0578     0.47915E-01 
  64524.3200     0.49636E-01 
  64556.5822     0.51402E-01 
  64588.8443     0.53212E-01 
  64621.1065     0.55068E-01 
  64653.3686     0.56970E-01 
  64685.6308     0.58918E-01 
  64717.8930     0.60915E-01 
  64750.1551     0.62960E-01 
  64782.4173     0.65055E-01 
  64814.6794     0.67200E-01 
  64846.9416     0.69396E-01 
  64879.2038     0.71644E-01 
  64911.4659     0.73945E-01 
  64943.7281     0.76299E-01 
  64975.9902     0.78709E-01 
  65008.2524     0.81174E-01 
  65040.5146     0.83695E-01 
  65072.7767     0.86275E-01 
  65105.0389     0.88912E-01 
  65137.3010     0.91610E-01 
  65169.5632     0.94368E-01 
  65201.8254     0.97187E-01 
  65234.0875     0.10007E+00 
  65266.3497     0.10302E+00 
  65298.6118     0.10603E+00 
  65330.8740     0.10910E+00 
  65363.1362     0.11225E+00 
  65395.3983     0.11546E+00 
  65427.6605     0.11874E+00 
  65459.9226     0.12210E+00 
  65492.1848     0.12552E+00 
  65524.4470     0.12902E+00 
  65556.7091     0.13260E+00 
  65588.9713     0.13625E+00 
  65621.2334     0.13997E+00 
  65653.4956     0.14378E+00 
  65685.7578     0.14766E+00 
  65718.0199     0.15163E+00 
  65750.2821     0.15568E+00 
  65782.5442     0.15981E+00 
  65814.8064     0.16403E+00 
  65847.0686     0.16834E+00 
  65879.3307     0.17274E+00 
  65911.5929     0.17722E+00 
  65943.8550     0.18180E+00 
  65976.1172     0.18647E+00 
  66008.3794     0.19124E+00 
  66040.6415     0.19610E+00 
  66072.9037     0.20106E+00 
  66105.1658     0.20612E+00 
  66137.4280     0.21129E+00 
  66169.6902     0.21656E+00 
  66201.9523     0.22193E+00 
  66234.2145     0.22741E+00 
  66266.4766     0.23300E+00 
  66298.7388     0.23870E+00 
  66331.0010     0.24452E+00 
  66363.2631     0.25045E+00 
  66395.5253     0.25649E+00 
  66427.7874     0.26266E+00 
  66460.0496     0.26894E+00 
  66492.3118     0.27535E+00 
  66524.5739     0.28189E+00 
  66556.8361     0.28855E+00 
  66589.0982     0.29534E+00 
  66621.3604     0.30226E+00 
  66653.6226     0.30932E+00 
  66685.8847     0.31651E+00 
  66718.1469     0.32384E+00 
  66750.4090     0.33131E+00 
  66782.6712     0.33893E+00 
  66814.9334     0.34669E+00 
  66847.1955     0.35460E+00 
  66879.4577     0.36266E+00 
  66911.7198     0.37087E+00 
  66943.9820     0.37924E+00 
  66976.2442     0.38777E+00 
  67008.5063     0.39646E+00 
  67040.7685     0.40531E+00 
  67073.0306     0.41432E+00 
  67105.2928     0.42351E+00 
  67137.5550     0.43287E+00 
  67169.8171     0.44240E+00 
  67202.0793     0.45211E+00 
  67234.3414     0.46200E+00 
  67266.6036     0.47207E+00 
  67298.8658     0.48233E+00 
  67331.1279     0.49278E+00 
  67363.3901     0.50342E+00 
  67395.6522     0.51425E+00 
  67427.9144     0.52529E+00 
  67460.1766     0.53652E+00 
  67492.4387     0.54796E+00 
  67524.7009     0.55961E+00 
  67556.9630     0.57147E+00 
  67589.2252     0.58354E+00 
  67621.4874     0.59583E+00 
  67653.7495     0.60834E+00 
  67686.0117     0.62108E+00 
  67718.2738     0.63405E+00 
  67750.5360     0.64724E+00 
  67782.7982     0.66068E+00 
  67815.0603     0.67435E+00 
  67847.3225     0.68826E+00 
  67879.5846     0.70242E+00 
  67911.8468     0.71683E+00 
  67944.1090     0.73149E+00 
  67976.3711     0.74641E+00 
  68008.6333     0.76159E+00 
  68040.8954     0.77704E+00 
  68073.1576     0.79276E+00 
  68105.4198     0.80875E+00 
  68137.6819     0.82502E+00 
  68169.9441     0.84156E+00 
  68202.2062     0.85840E+00 
  68234.4684     0.87552E+00 
  68266.7306     0.89294E+00 
  68298.9927     0.91065E+00 
  68331.2549     0.92867E+00 
  68363.5170     0.94699E+00 
  68395.7792     0.96563E+00 
  68428.0414     0.98458E+00 
  68460.3035     0.10038E+01 
  68492.5657     0.10234E+01 
  68524.8278     0.10434E+01 
  68557.0900     0.10636E+01 
  68589.3522     0.10842E+01 
  68621.6143     0.11051E+01 
  68653.8765     0.11264E+01 
  68686.1386     0.11481E+01 
  68718.4008     0.11701E+01 
  68750.6630     0.11924E+01 
  68782.9251     0.12151E+01 
  68815.1873     0.12382E+01 
  68847.4494     0.12617E+01 
  68879.7116     0.12855E+01 
  68911.9738     0.13098E+01 
  68944.2359     0.13344E+01 
  68976.4981     0.13594E+01 
  69008.7602     0.13848E+01 
  69041.0224     0.14107E+01 
  69073.2846     0.14369E+01 
  69105.5467     0.14636E+01 
  69137.8089     0.14907E+01 
  69170.0710     0.15182E+01 
  69202.3332     0.15461E+01 
  69234.5954     0.15745E+01 
  69266.8575     0.16033E+01 
  69299.1197     0.16326E+01 
  69331.3818     0.16623E+01 
  69363.6440     0.16925E+01 
  69395.9062     0.17232E+01 
  69428.1683     0.17543E+01 
  69460.4305     0.17859E+01 
  69492.6926     0.18180E+01 
  69524.9548     0.18506E+01 
  69557.2170     0.18836E+01 
  69589.4791     0.19172E+01 
  69621.7413     0.19513E+01 
  69654.0034     0.19859E+01 
  69686.2656     0.20210E+01 
  69718.5278     0.20566E+01 
  69750.7899     0.20927E+01 
  69783.0521     0.21294E+01 
  69815.3142     0.21666E+01 
  69847.5764     0.22044E+01 
  69879.8386     0.22427E+01 
  69912.1007     0.22816E+01 
  69944.3629     0.23211E+01 
  69976.6250     0.23611E+01 
  70008.8872     0.24017E+01 
  70041.1494     0.24429E+01 
  70073.4115     0.24846E+01 
  70105.6737     0.25270E+01 
  70137.9358     0.25700E+01 
  70170.1980     0.26135E+01 
  70202.4602     0.26577E+01 
  70234.7223     0.27025E+01 
  70266.9845     0.27479E+01 
  70299.2466     0.27940E+01 
  70331.5088     0.28407E+01 
  70363.7710     0.28880E+01 
  70396.0331     0.29360E+01 
  70428.2953     0.29846E+01 
  70460.5574     0.30339E+01 
  70492.8196     0.30839E+01 
  70525.0818     0.31346E+01 
  70557.3439     0.31859E+01 
  70589.6061     0.32379E+01 
  70621.8682     0.32906E+01 
  70654.1304     0.33440E+01 
  70686.3926     0.33981E+01 
  70718.6547     0.34529E+01 
  70750.9169     0.35085E+01 
  70783.1790     0.35647E+01 
  70815.4412     0.36217E+01 
  70847.7034     0.36795E+01 
  70879.9655     0.37379E+01 
  70912.2277     0.37971E+01 
  70944.4898     0.38571E+01 
  70976.7520     0.39178E+01 
  71009.0142     0.39793E+01 
  71041.2763     0.40416E+01 
  71073.5385     0.41046E+01 
  71105.8006     0.41685E+01 
  71138.0628     0.42331E+01 
  71170.3250     0.42985E+01 
  71202.5871     0.43647E+01 
  71234.8493     0.44317E+01 
  71267.1114     0.44996E+01 
  71299.3736     0.45682E+01 
  71331.6358     0.46377E+01 
  71363.8979     0.47080E+01 
  71396.1601     0.47792E+01 
  71428.4222     0.48512E+01 
  71460.6844     0.49240E+01 
  71492.9466     0.49977E+01 
  71525.2087     0.50722E+01 
  71557.4709     0.51476E+01 
  71589.7330     0.52239E+01 
  71621.9952     0.53011E+01 
  71654.2574     0.53791E+01 
  71686.5195     0.54580E+01 
  71718.7817     0.55378E+01 
  71751.0438     0.56185E+01 
  71783.3060     0.57001E+01 
  71815.5682     0.57827E+01 
  71847.8303     0.58661E+01 
  71880.0925     0.59504E+01 
  71912.3546     0.60357E+01 
  71944.6168     0.61219E+01 
  71976.8790     0.62090E+01 
  72009.1411     0.62970E+01 
  72041.4033     0.63860E+01 
  72073.6654     0.64759E+01 
  72105.9276     0.65668E+01 
  72138.1898     0.66586E+01 
  72170.4519     0.67514E+01 
  72202.7141     0.68452E+01 
  72234.9762     0.69399E+01 
  72267.2384     0.70355E+01 
  72299.5006     0.71322E+01 
  72331.7627     0.72298E+01 
  72364.0249     0.73284E+01 
  72396.2870     0.74280E+01 
  72428.5492     0.75286E+01 
  72460.8114     0.76302E+01 
  72493.0735     0.77327E+01 
  72525.3357     0.78363E+01 
  72557.5978     0.79408E+01 
  72589.8600     0.80464E+01 
