  32262.1600     0.64643E+02 
  32294.4222     0.65463E+02 
  32326.6843     0.66291E+02 
  32358.9465     0.67125E+02 
  32391.2086     0.67967E+02 
  32423.4708     0.68816E+02 
  32455.7330     0.69673E+02 
  32487.9951     0.70536E+02 
  32520.2573     0.71407E+02 
  32552.5194     0.72285E+02 
  32584.7816     0.73170E+02 
  32617.0438     0.74062E+02 
  32649.3059     0.74962E+02 
  32681.5681     0.75869E+02 
  32713.8302     0.76783E+02 
  32746.0924     0.77704E+02 
  32778.3546     0.78632E+02 
  32810.6167     0.79568E+02 
  32842.8789     0.80511E+02 
  32875.1410     0.81461E+02 
  32907.4032     0.82419E+02 
  32939.6654     0.83383E+02 
  32971.9275     0.84355E+02 
  33004.1897     0.85334E+02 
  33036.4518     0.86320E+02 
  33068.7140     0.87313E+02 
  33100.9762     0.88314E+02 
  33133.2383     0.89322E+02 
  33165.5005     0.90337E+02 
  33197.7626     0.91359E+02 
  33230.0248     0.92388E+02 
  33262.2870     0.93424E+02 
  33294.5491     0.94467E+02 
  33326.8113     0.95518E+02 
  33359.0734     0.96575E+02 
  33391.3356     0.97640E+02 
  33423.5978     0.98711E+02 
  33455.8599     0.99790E+02 
  33488.1221     0.10088E+03 
  33520.3842     0.10197E+03 
  33552.6464     0.10307E+03 
  33584.9086     0.10417E+03 
  33617.1707     0.10529E+03 
  33649.4329     0.10641E+03 
  33681.6950     0.10753E+03 
  33713.9572     0.10867E+03 
  33746.2194     0.10981E+03 
  33778.4815     0.11095E+03 
  33810.7437     0.11211E+03 
  33843.0058     0.11327E+03 
  33875.2680     0.11444E+03 
  33907.5302     0.11561E+03 
  33939.7923     0.11679E+03 
  33972.0545     0.11798E+03 
  34004.3166     0.11917E+03 
  34036.5788     0.12037E+03 
  34068.8410     0.12157E+03 
  34101.1031     0.12279E+03 
  34133.3653     0.12401E+03 
  34165.6274     0.12523E+03 
  34197.8896     0.12646E+03 
  34230.1518     0.12770E+03 
  34262.4139     0.12894E+03 
  34294.6761     0.13019E+03 
  34326.9382     0.13145E+03 
  34359.2004     0.13271E+03 
  34391.4626     0.13398E+03 
  34423.7247     0.13525E+03 
  34455.9869     0.13653E+03 
  34488.2490     0.13781E+03 
  34520.5112     0.13910E+03 
  34552.7734     0.14040E+03 
  34585.0355     0.14170E+03 
  34617.2977     0.14301E+03 
  34649.5598     0.14432E+03 
  34681.8220     0.14564E+03 
  34714.0842     0.14696E+03 
  34746.3463     0.14829E+03 
  34778.6085     0.14962E+03 
  34810.8706     0.15096E+03 
  34843.1328     0.15231E+03 
  34875.3950     0.15366E+03 
  34907.6571     0.15501E+03 
  34939.9193     0.15637E+03 
  34972.1814     0.15773E+03 
  35004.4436     0.15910E+03 
  35036.7058     0.16047E+03 
  35068.9679     0.16185E+03 
  35101.2301     0.16323E+03 
  35133.4922     0.16462E+03 
  35165.7544     0.16601E+03 
  35198.0166     0.16741E+03 
  35230.2787     0.16881E+03 
  35262.5409     0.17021E+03 
  35294.8030     0.17162E+03 
  35327.0652     0.17303E+03 
  35359.3274     0.17444E+03 
  35391.5895     0.17586E+03 
  35423.8517     0.17728E+03 
  35456.1138     0.17871E+03 
  35488.3760     0.18014E+03 
  35520.6382     0.18157E+03 
  35552.9003     0.18301E+03 
  35585.1625     0.18445E+03 
  35617.4246     0.18589E+03 
  35649.6868     0.18734E+03 
  35681.9490     0.18879E+03 
  35714.2111     0.19024E+03 
  35746.4733     0.19169E+03 
  35778.7354     0.19315E+03 
  35810.9976     0.19461E+03 
  35843.2598     0.19607E+03 
  35875.5219     0.19754E+03 
  35907.7841     0.19901E+03 
  35940.0462     0.20047E+03 
  35972.3084     0.20195E+03 
  36004.5706     0.20342E+03 
  36036.8327     0.20490E+03 
  36069.0949     0.20637E+03 
  36101.3570     0.20785E+03 
  36133.6192     0.20933E+03 
  36165.8814     0.21081E+03 
  36198.1435     0.21230E+03 
  36230.4057     0.21378E+03 
  36262.6678     0.21527E+03 
  36294.9300     0.21676E+03 
  36327.1922     0.21824E+03 
  36359.4543     0.21973E+03 
  36391.7165     0.22122E+03 
  36423.9786     0.22271E+03 
  36456.2408     0.22421E+03 
  36488.5030     0.22570E+03 
  36520.7651     0.22719E+03 
  36553.0273     0.22868E+03 
  36585.2894     0.23017E+03 
  36617.5516     0.23167E+03 
  36649.8138     0.23316E+03 
  36682.0759     0.23465E+03 
  36714.3381     0.23614E+03 
  36746.6002     0.23763E+03 
  36778.8624     0.23912E+03 
  36811.1246     0.24061E+03 
  36843.3867     0.24210E+03 
  36875.6489     0.24359E+03 
  36907.9110     0.24508E+03 
  36940.1732     0.24657E+03 
  36972.4354     0.24805E+03 
  37004.6975     0.24954E+03 
  37036.9597     0.25102E+03 
  37069.2218     0.25250E+03 
  37101.4840     0.25398E+03 
  37133.7462     0.25546E+03 
  37166.0083     0.25693E+03 
  37198.2705     0.25841E+03 
  37230.5326     0.25988E+03 
  37262.7948     0.26135E+03 
  37295.0570     0.26282E+03 
  37327.3191     0.26428E+03 
  37359.5813     0.26574E+03 
  37391.8434     0.26720E+03 
  37424.1056     0.26866E+03 
  37456.3678     0.27011E+03 
  37488.6299     0.27157E+03 
  37520.8921     0.27301E+03 
  37553.1542     0.27446E+03 
  37585.4164     0.27590E+03 
  37617.6786     0.27734E+03 
  37649.9407     0.27877E+03 
  37682.2029     0.28020E+03 
  37714.4650     0.28163E+03 
  37746.7272     0.28305E+03 
  37778.9894     0.28447E+03 
  37811.2515     0.28589E+03 
  37843.5137     0.28730E+03 
  37875.7758     0.28870E+03 
  37908.0380     0.29010E+03 
  37940.3002     0.29150E+03 
  37972.5623     0.29289E+03 
  38004.8245     0.29428E+03 
  38037.0866     0.29566E+03 
  38069.3488     0.29704E+03 
  38101.6110     0.29841E+03 
  38133.8731     0.29978E+03 
  38166.1353     0.30114E+03 
  38198.3974     0.30250E+03 
  38230.6596     0.30385E+03 
  38262.9218     0.30519E+03 
  38295.1839     0.30653E+03 
  38327.4461     0.30786E+03 
  38359.7082     0.30919E+03 
  38391.9704     0.31051E+03 
  38424.2326     0.31183E+03 
  38456.4947     0.31314E+03 
  38488.7569     0.31444E+03 
  38521.0190     0.31573E+03 
  38553.2812     0.31702E+03 
  38585.5434     0.31830E+03 
  38617.8055     0.31958E+03 
  38650.0677     0.32085E+03 
  38682.3298     0.32211E+03 
  38714.5920     0.32336E+03 
  38746.8542     0.32461E+03 
  38779.1163     0.32585E+03 
  38811.3785     0.32708E+03 
  38843.6406     0.32830E+03 
  38875.9028     0.32952E+03 
  38908.1650     0.33073E+03 
  38940.4271     0.33193E+03 
  38972.6893     0.33312E+03 
  39004.9514     0.33431E+03 
  39037.2136     0.33549E+03 
  39069.4758     0.33666E+03 
  39101.7379     0.33782E+03 
  39134.0001     0.33897E+03 
  39166.2622     0.34011E+03 
  39198.5244     0.34125E+03 
  39230.7866     0.34237E+03 
  39263.0487     0.34349E+03 
  39295.3109     0.34460E+03 
  39327.5730     0.34570E+03 
  39359.8352     0.34679E+03 
  39392.0974     0.34787E+03 
  39424.3595     0.34894E+03 
  39456.6217     0.35001E+03 
  39488.8838     0.35106E+03 
  39521.1460     0.35210E+03 
  39553.4082     0.35314E+03 
  39585.6703     0.35416E+03 
  39617.9325     0.35518E+03 
  39650.1946     0.35619E+03 
  39682.4568     0.35718E+03 
  39714.7190     0.35817E+03 
  39746.9811     0.35914E+03 
  39779.2433     0.36011E+03 
  39811.5054     0.36107E+03 
  39843.7676     0.36201E+03 
  39876.0298     0.36295E+03 
  39908.2919     0.36387E+03 
  39940.5541     0.36479E+03 
  39972.8162     0.36569E+03 
  40005.0784     0.36659E+03 
  40037.3406     0.36747E+03 
  40069.6027     0.36834E+03 
  40101.8649     0.36920E+03 
  40134.1270     0.37006E+03 
  40166.3892     0.37090E+03 
  40198.6514     0.37172E+03 
  40230.9135     0.37254E+03 
  40263.1757     0.37335E+03 
  40295.4378     0.37415E+03 
  40327.7000     0.37493E+03 
  40359.9622     0.37571E+03 
  40392.2243     0.37647E+03 
  40424.4865     0.37722E+03 
  40456.7486     0.37796E+03 
  40489.0108     0.37869E+03 
  40521.2730     0.37941E+03 
  40553.5351     0.38011E+03 
  40585.7973     0.38081E+03 
  40618.0594     0.38149E+03 
  40650.3216     0.38216E+03 
  40682.5838     0.38282E+03 
  40714.8459     0.38347E+03 
  40747.1081     0.38411E+03 
  40779.3702     0.38473E+03 
  40811.6324     0.38534E+03 
  40843.8946     0.38595E+03 
  40876.1567     0.38654E+03 
  40908.4189     0.38711E+03 
  40940.6810     0.38768E+03 
  40972.9432     0.38823E+03 
  41005.2054     0.38877E+03 
  41037.4675     0.38930E+03 
  41069.7297     0.38982E+03 
  41101.9918     0.39032E+03 
  41134.2540     0.39082E+03 
  41166.5162     0.39130E+03 
  41198.7783     0.39177E+03 
  41231.0405     0.39222E+03 
  41263.3026     0.39267E+03 
  41295.5648     0.39310E+03 
  41327.8270     0.39352E+03 
  41360.0891     0.39393E+03 
  41392.3513     0.39433E+03 
  41424.6134     0.39471E+03 
  41456.8756     0.39508E+03 
  41489.1378     0.39544E+03 
  41521.3999     0.39579E+03 
  41553.6621     0.39612E+03 
  41585.9242     0.39644E+03 
  41618.1864     0.39675E+03 
  41650.4486     0.39705E+03 
  41682.7107     0.39734E+03 
  41714.9729     0.39761E+03 
  41747.2350     0.39787E+03 
  41779.4972     0.39812E+03 
  41811.7594     0.39835E+03 
  41844.0215     0.39858E+03 
  41876.2837     0.39879E+03 
  41908.5458     0.39899E+03 
  41940.8080     0.39917E+03 
  41973.0702     0.39935E+03 
  42005.3323     0.39951E+03 
  42037.5945     0.39966E+03 
  42069.8566     0.39980E+03 
  42102.1188     0.39992E+03 
  42134.3810     0.40003E+03 
  42166.6431     0.40014E+03 
  42198.9053     0.40022E+03 
  42231.1674     0.40030E+03 
  42263.4296     0.40036E+03 
  42295.6918     0.40042E+03 
  42327.9539     0.40045E+03 
  42360.2161     0.40048E+03 
  42392.4782     0.40050E+03 
  42424.7404     0.40050E+03 
  42457.0026     0.40049E+03 
  42489.2647     0.40047E+03 
  42521.5269     0.40044E+03 
  42553.7890     0.40039E+03 
  42586.0512     0.40034E+03 
  42618.3134     0.40027E+03 
  42650.5755     0.40019E+03 
  42682.8377     0.40009E+03 
  42715.0998     0.39999E+03 
  42747.3620     0.39987E+03 
  42779.6242     0.39974E+03 
  42811.8863     0.39960E+03 
  42844.1485     0.39945E+03 
  42876.4106     0.39929E+03 
  42908.6728     0.39911E+03 
  42940.9350     0.39893E+03 
  42973.1971     0.39873E+03 
  43005.4593     0.39852E+03 
  43037.7214     0.39830E+03 
  43069.9836     0.39806E+03 
  43102.2458     0.39782E+03 
  43134.5079     0.39756E+03 
  43166.7701     0.39730E+03 
  43199.0322     0.39702E+03 
  43231.2944     0.39673E+03 
  43263.5566     0.39643E+03 
  43295.8187     0.39612E+03 
  43328.0809     0.39579E+03 
  43360.3430     0.39546E+03 
  43392.6052     0.39511E+03 
  43424.8674     0.39476E+03 
  43457.1295     0.39439E+03 
  43489.3917     0.39401E+03 
  43521.6538     0.39362E+03 
  43553.9160     0.39322E+03 
  43586.1782     0.39281E+03 
  43618.4403     0.39239E+03 
  43650.7025     0.39196E+03 
  43682.9646     0.39152E+03 
  43715.2268     0.39107E+03 
  43747.4890     0.39061E+03 
  43779.7511     0.39013E+03 
  43812.0133     0.38965E+03 
  43844.2754     0.38915E+03 
  43876.5376     0.38865E+03 
  43908.7998     0.38814E+03 
  43941.0619     0.38761E+03 
  43973.3241     0.38708E+03 
  44005.5862     0.38653E+03 
  44037.8484     0.38598E+03 
  44070.1106     0.38542E+03 
  44102.3727     0.38484E+03 
  44134.6349     0.38426E+03 
  44166.8970     0.38367E+03 
  44199.1592     0.38307E+03 
  44231.4214     0.38245E+03 
  44263.6835     0.38183E+03 
  44295.9457     0.38120E+03 
  44328.2078     0.38056E+03 
  44360.4700     0.37991E+03 
  44392.7322     0.37926E+03 
  44424.9943     0.37859E+03 
  44457.2565     0.37791E+03 
  44489.5186     0.37723E+03 
  44521.7808     0.37653E+03 
  44554.0430     0.37583E+03 
  44586.3051     0.37512E+03 
  44618.5673     0.37440E+03 
  44650.8294     0.37367E+03 
  44683.0916     0.37293E+03 
  44715.3538     0.37219E+03 
  44747.6159     0.37143E+03 
  44779.8781     0.37067E+03 
  44812.1402     0.36990E+03 
  44844.4024     0.36912E+03 
  44876.6646     0.36834E+03 
  44908.9267     0.36754E+03 
  44941.1889     0.36674E+03 
  44973.4510     0.36593E+03 
  45005.7132     0.36511E+03 
  45037.9754     0.36429E+03 
  45070.2375     0.36345E+03 
  45102.4997     0.36261E+03 
  45134.7618     0.36176E+03 
  45167.0240     0.36091E+03 
  45199.2862     0.36004E+03 
  45231.5483     0.35917E+03 
  45263.8105     0.35830E+03 
  45296.0726     0.35741E+03 
  45328.3348     0.35652E+03 
  45360.5970     0.35562E+03 
  45392.8591     0.35472E+03 
  45425.1213     0.35381E+03 
  45457.3834     0.35289E+03 
  45489.6456     0.35196E+03 
  45521.9078     0.35103E+03 
  45554.1699     0.35010E+03 
  45586.4321     0.34915E+03 
  45618.6942     0.34820E+03 
  45650.9564     0.34724E+03 
  45683.2186     0.34628E+03 
  45715.4807     0.34531E+03 
  45747.7429     0.34434E+03 
  45780.0050     0.34336E+03 
  45812.2672     0.34237E+03 
  45844.5294     0.34138E+03 
  45876.7915     0.34038E+03 
  45909.0537     0.33938E+03 
  45941.3158     0.33837E+03 
  45973.5780     0.33736E+03 
  46005.8402     0.33634E+03 
  46038.1023     0.33531E+03 
  46070.3645     0.33428E+03 
  46102.6266     0.33325E+03 
  46134.8888     0.33221E+03 
  46167.1510     0.33117E+03 
  46199.4131     0.33012E+03 
  46231.6753     0.32906E+03 
  46263.9374     0.32800E+03 
  46296.1996     0.32694E+03 
  46328.4618     0.32587E+03 
  46360.7239     0.32480E+03 
  46392.9861     0.32373E+03 
  46425.2482     0.32264E+03 
  46457.5104     0.32156E+03 
  46489.7726     0.32047E+03 
  46522.0347     0.31938E+03 
  46554.2969     0.31828E+03 
  46586.5590     0.31718E+03 
  46618.8212     0.31608E+03 
  46651.0834     0.31497E+03 
  46683.3455     0.31386E+03 
  46715.6077     0.31274E+03 
  46747.8698     0.31162E+03 
  46780.1320     0.31050E+03 
  46812.3942     0.30937E+03 
  46844.6563     0.30824E+03 
  46876.9185     0.30711E+03 
  46909.1806     0.30598E+03 
  46941.4428     0.30484E+03 
  46973.7050     0.30370E+03 
  47005.9671     0.30255E+03 
  47038.2293     0.30141E+03 
  47070.4914     0.30026E+03 
  47102.7536     0.29911E+03 
  47135.0158     0.29795E+03 
  47167.2779     0.29679E+03 
  47199.5401     0.29563E+03 
  47231.8022     0.29447E+03 
  47264.0644     0.29331E+03 
  47296.3266     0.29214E+03 
  47328.5887     0.29097E+03 
  47360.8509     0.28980E+03 
  47393.1130     0.28863E+03 
  47425.3752     0.28746E+03 
  47457.6374     0.28628E+03 
  47489.8995     0.28510E+03 
  47522.1617     0.28392E+03 
  47554.4238     0.28274E+03 
  47586.6860     0.28156E+03 
  47618.9482     0.28037E+03 
  47651.2103     0.27919E+03 
  47683.4725     0.27800E+03 
  47715.7346     0.27681E+03 
  47747.9968     0.27562E+03 
  47780.2590     0.27443E+03 
  47812.5211     0.27324E+03 
  47844.7833     0.27205E+03 
  47877.0454     0.27085E+03 
  47909.3076     0.26966E+03 
  47941.5698     0.26846E+03 
  47973.8319     0.26727E+03 
  48006.0941     0.26607E+03 
  48038.3562     0.26487E+03 
  48070.6184     0.26367E+03 
  48102.8806     0.26248E+03 
  48135.1427     0.26128E+03 
  48167.4049     0.26008E+03 
  48199.6670     0.25888E+03 
  48231.9292     0.25768E+03 
  48264.1914     0.25648E+03 
  48296.4535     0.25528E+03 
  48328.7157     0.25408E+03 
  48360.9778     0.25288E+03 
  48393.2400     0.25168E+03 
  48425.5022     0.25048E+03 
  48457.7643     0.24928E+03 
  48490.0265     0.24808E+03 
  48522.2886     0.24688E+03 
  48554.5508     0.24568E+03 
  48586.8130     0.24448E+03 
  48619.0751     0.24328E+03 
  48651.3373     0.24209E+03 
  48683.5994     0.24089E+03 
  48715.8616     0.23969E+03 
  48748.1238     0.23850E+03 
  48780.3859     0.23730E+03 
  48812.6481     0.23611E+03 
  48844.9102     0.23491E+03 
  48877.1724     0.23372E+03 
  48909.4346     0.23253E+03 
  48941.6967     0.23134E+03 
  48973.9589     0.23015E+03 
  49006.2210     0.22896E+03 
  49038.4832     0.22778E+03 
  49070.7454     0.22659E+03 
  49103.0075     0.22541E+03 
  49135.2697     0.22422E+03 
  49167.5318     0.22304E+03 
  49199.7940     0.22186E+03 
  49232.0562     0.22068E+03 
  49264.3183     0.21950E+03 
  49296.5805     0.21833E+03 
  49328.8426     0.21715E+03 
  49361.1048     0.21598E+03 
  49393.3670     0.21481E+03 
  49425.6291     0.21364E+03 
  49457.8913     0.21247E+03 
  49490.1534     0.21131E+03 
  49522.4156     0.21014E+03 
  49554.6778     0.20898E+03 
  49586.9399     0.20782E+03 
  49619.2021     0.20667E+03 
  49651.4642     0.20551E+03 
  49683.7264     0.20436E+03 
  49715.9886     0.20320E+03 
  49748.2507     0.20205E+03 
  49780.5129     0.20091E+03 
  49812.7750     0.19976E+03 
  49845.0372     0.19862E+03 
  49877.2994     0.19748E+03 
  49909.5615     0.19634E+03 
  49941.8237     0.19521E+03 
  49974.0858     0.19407E+03 
  50006.3480     0.19294E+03 
  50038.6102     0.19181E+03 
  50070.8723     0.19069E+03 
  50103.1345     0.18956E+03 
  50135.3966     0.18844E+03 
  50167.6588     0.18733E+03 
  50199.9210     0.18621E+03 
  50232.1831     0.18510E+03 
  50264.4453     0.18399E+03 
  50296.7074     0.18288E+03 
  50328.9696     0.18178E+03 
  50361.2318     0.18067E+03 
  50393.4939     0.17958E+03 
  50425.7561     0.17848E+03 
  50458.0182     0.17739E+03 
  50490.2804     0.17630E+03 
  50522.5426     0.17521E+03 
  50554.8047     0.17413E+03 
  50587.0669     0.17305E+03 
  50619.3290     0.17197E+03 
  50651.5912     0.17089E+03 
  50683.8534     0.16982E+03 
  50716.1155     0.16875E+03 
  50748.3777     0.16769E+03 
  50780.6398     0.16663E+03 
  50812.9020     0.16557E+03 
  50845.1642     0.16451E+03 
  50877.4263     0.16346E+03 
  50909.6885     0.16241E+03 
  50941.9506     0.16136E+03 
  50974.2128     0.16032E+03 
  51006.4750     0.15928E+03 
  51038.7371     0.15825E+03 
  51070.9993     0.15721E+03 
  51103.2614     0.15618E+03 
  51135.5236     0.15516E+03 
  51167.7858     0.15414E+03 
  51200.0479     0.15312E+03 
  51232.3101     0.15210E+03 
  51264.5722     0.15109E+03 
  51296.8344     0.15008E+03 
  51329.0966     0.14908E+03 
  51361.3587     0.14808E+03 
  51393.6209     0.14708E+03 
  51425.8830     0.14608E+03 
  51458.1452     0.14509E+03 
  51490.4074     0.14411E+03 
  51522.6695     0.14312E+03 
  51554.9317     0.14215E+03 
  51587.1938     0.14117E+03 
  51619.4560     0.14020E+03 
  51651.7182     0.13923E+03 
  51683.9803     0.13826E+03 
  51716.2425     0.13730E+03 
  51748.5046     0.13635E+03 
  51780.7668     0.13539E+03 
  51813.0290     0.13444E+03 
  51845.2911     0.13350E+03 
  51877.5533     0.13256E+03 
  51909.8154     0.13162E+03 
  51942.0776     0.13068E+03 
  51974.3398     0.12975E+03 
  52006.6019     0.12882E+03 
  52038.8641     0.12790E+03 
  52071.1262     0.12698E+03 
  52103.3884     0.12607E+03 
  52135.6506     0.12516E+03 
  52167.9127     0.12425E+03 
  52200.1749     0.12334E+03 
  52232.4370     0.12244E+03 
  52264.6992     0.12155E+03 
  52296.9614     0.12066E+03 
  52329.2235     0.11977E+03 
  52361.4857     0.11888E+03 
  52393.7478     0.11800E+03 
  52426.0100     0.11713E+03 
  52458.2722     0.11625E+03 
  52490.5343     0.11539E+03 
  52522.7965     0.11452E+03 
  52555.0586     0.11366E+03 
  52587.3208     0.11280E+03 
  52619.5830     0.11195E+03 
  52651.8451     0.11110E+03 
  52684.1073     0.11026E+03 
  52716.3694     0.10942E+03 
  52748.6316     0.10858E+03 
  52780.8938     0.10775E+03 
  52813.1559     0.10692E+03 
  52845.4181     0.10609E+03 
  52877.6802     0.10527E+03 
  52909.9424     0.10445E+03 
  52942.2046     0.10364E+03 
  52974.4667     0.10283E+03 
  53006.7289     0.10202E+03 
  53038.9910     0.10122E+03 
  53071.2532     0.10043E+03 
  53103.5154     0.99632E+02 
  53135.7775     0.98842E+02 
  53168.0397     0.98056E+02 
  53200.3018     0.97275E+02 
  53232.5640     0.96497E+02 
  53264.8262     0.95723E+02 
  53297.0883     0.94954E+02 
  53329.3505     0.94188E+02 
  53361.6126     0.93426E+02 
  53393.8748     0.92668E+02 
  53426.1370     0.91914E+02 
  53458.3991     0.91164E+02 
  53490.6613     0.90418E+02 
  53522.9234     0.89675E+02 
  53555.1856     0.88937E+02 
  53587.4478     0.88203E+02 
  53619.7099     0.87472E+02 
  53651.9721     0.86746E+02 
  53684.2342     0.86023E+02 
  53716.4964     0.85304E+02 
  53748.7586     0.84590E+02 
  53781.0207     0.83879E+02 
  53813.2829     0.83172E+02 
  53845.5450     0.82469E+02 
  53877.8072     0.81769E+02 
  53910.0694     0.81074E+02 
  53942.3315     0.80382E+02 
  53974.5937     0.79695E+02 
  54006.8558     0.79011E+02 
  54039.1180     0.78331E+02 
  54071.3802     0.77655E+02 
  54103.6423     0.76982E+02 
  54135.9045     0.76314E+02 
  54168.1666     0.75649E+02 
  54200.4288     0.74988E+02 
  54232.6910     0.74331E+02 
  54264.9531     0.73678E+02 
  54297.2153     0.73028E+02 
  54329.4774     0.72382E+02 
  54361.7396     0.71740E+02 
  54394.0018     0.71102E+02 
  54426.2639     0.70468E+02 
  54458.5261     0.69837E+02 
  54490.7882     0.69210E+02 
  54523.0504     0.68587E+02 
  54555.3126     0.67967E+02 
  54587.5747     0.67351E+02 
  54619.8369     0.66739E+02 
  54652.0990     0.66130E+02 
  54684.3612     0.65526E+02 
  54716.6234     0.64924E+02 
  54748.8855     0.64327E+02 
  54781.1477     0.63733E+02 
  54813.4098     0.63143E+02 
  54845.6720     0.62556E+02 
  54877.9342     0.61973E+02 
  54910.1963     0.61394E+02 
  54942.4585     0.60818E+02 
  54974.7206     0.60246E+02 
  55006.9828     0.59677E+02 
  55039.2450     0.59112E+02 
  55071.5071     0.58550E+02 
  55103.7693     0.57992E+02 
  55136.0314     0.57438E+02 
  55168.2936     0.56887E+02 
  55200.5558     0.56340E+02 
  55232.8179     0.55796E+02 
  55265.0801     0.55255E+02 
  55297.3422     0.54718E+02 
  55329.6044     0.54184E+02 
  55361.8666     0.53654E+02 
  55394.1287     0.53128E+02 
  55426.3909     0.52604E+02 
  55458.6530     0.52084E+02 
  55490.9152     0.51568E+02 
  55523.1774     0.51055E+02 
  55555.4395     0.50545E+02 
  55587.7017     0.50039E+02 
  55619.9638     0.49536E+02 
  55652.2260     0.49036E+02 
  55684.4882     0.48540E+02 
  55716.7503     0.48047E+02 
  55749.0125     0.47557E+02 
  55781.2746     0.47071E+02 
  55813.5368     0.46587E+02 
  55845.7990     0.46108E+02 
  55878.0611     0.45631E+02 
  55910.3233     0.45157E+02 
  55942.5854     0.44687E+02 
  55974.8476     0.44220E+02 
  56007.1098     0.43757E+02 
  56039.3719     0.43296E+02 
  56071.6341     0.42838E+02 
  56103.8962     0.42384E+02 
  56136.1584     0.41933E+02 
  56168.4206     0.41485E+02 
  56200.6827     0.41040E+02 
  56232.9449     0.40598E+02 
  56265.2070     0.40160E+02 
  56297.4692     0.39724E+02 
  56329.7314     0.39292E+02 
  56361.9935     0.38862E+02 
  56394.2557     0.38436E+02 
  56426.5178     0.38012E+02 
  56458.7800     0.37592E+02 
  56491.0422     0.37175E+02 
  56523.3043     0.36760E+02 
  56555.5665     0.36349E+02 
  56587.8286     0.35941E+02 
  56620.0908     0.35535E+02 
  56652.3530     0.35133E+02 
  56684.6151     0.34733E+02 
  56716.8773     0.34336E+02 
  56749.1394     0.33942E+02 
  56781.4016     0.33552E+02 
  56813.6638     0.33164E+02 
  56845.9259     0.32778E+02 
  56878.1881     0.32396E+02 
  56910.4502     0.32017E+02 
  56942.7124     0.31640E+02 
  56974.9746     0.31266E+02 
  57007.2367     0.30895E+02 
  57039.4989     0.30527E+02 
  57071.7610     0.30161E+02 
  57104.0232     0.29799E+02 
  57136.2854     0.29439E+02 
  57168.5475     0.29081E+02 
  57200.8097     0.28727E+02 
  57233.0718     0.28375E+02 
  57265.3340     0.28026E+02 
  57297.5962     0.27679E+02 
  57329.8583     0.27336E+02 
  57362.1205     0.26995E+02 
  57394.3826     0.26656E+02 
  57426.6448     0.26320E+02 
  57458.9070     0.25987E+02 
  57491.1691     0.25657E+02 
  57523.4313     0.25329E+02 
  57555.6934     0.25003E+02 
  57587.9556     0.24680E+02 
  57620.2178     0.24360E+02 
  57652.4799     0.24042E+02 
  57684.7421     0.23727E+02 
  57717.0042     0.23415E+02 
  57749.2664     0.23104E+02 
  57781.5286     0.22797E+02 
  57813.7907     0.22492E+02 
  57846.0529     0.22189E+02 
  57878.3150     0.21889E+02 
  57910.5772     0.21591E+02 
  57942.8394     0.21296E+02 
  57975.1015     0.21003E+02 
  58007.3637     0.20712E+02 
  58039.6258     0.20424E+02 
  58071.8880     0.20139E+02 
  58104.1502     0.19855E+02 
  58136.4123     0.19575E+02 
  58168.6745     0.19296E+02 
  58200.9366     0.19020E+02 
  58233.1988     0.18746E+02 
  58265.4610     0.18475E+02 
  58297.7231     0.18205E+02 
  58329.9853     0.17939E+02 
  58362.2474     0.17674E+02 
  58394.5096     0.17412E+02 
  58426.7718     0.17152E+02 
  58459.0339     0.16894E+02 
  58491.2961     0.16639E+02 
  58523.5582     0.16386E+02 
  58555.8204     0.16135E+02 
  58588.0826     0.15886E+02 
  58620.3447     0.15639E+02 
  58652.6069     0.15395E+02 
  58684.8690     0.15153E+02 
  58717.1312     0.14913E+02 
  58749.3934     0.14675E+02 
  58781.6555     0.14440E+02 
  58813.9177     0.14207E+02 
  58846.1798     0.13975E+02 
  58878.4420     0.13746E+02 
  58910.7042     0.13519E+02 
  58942.9663     0.13295E+02 
  58975.2285     0.13072E+02 
  59007.4906     0.12851E+02 
  59039.7528     0.12633E+02 
  59072.0150     0.12417E+02 
  59104.2771     0.12202E+02 
  59136.5393     0.11990E+02 
  59168.8014     0.11780E+02 
  59201.0636     0.11572E+02 
  59233.3258     0.11366E+02 
  59265.5879     0.11162E+02 
  59297.8501     0.10960E+02 
  59330.1122     0.10760E+02 
  59362.3744     0.10562E+02 
  59394.6366     0.10367E+02 
  59426.8987     0.10173E+02 
  59459.1609     0.99810E+01 
  59491.4230     0.97912E+01 
  59523.6852     0.96034E+01 
  59555.9474     0.94175E+01 
  59588.2095     0.92337E+01 
  59620.4717     0.90518E+01 
  59652.7338     0.88719E+01 
  59684.9960     0.86940E+01 
  59717.2582     0.85180E+01 
  59749.5203     0.83440E+01 
  59781.7825     0.81719E+01 
  59814.0446     0.80018E+01 
  59846.3068     0.78336E+01 
  59878.5690     0.76674E+01 
  59910.8311     0.75030E+01 
  59943.0933     0.73406E+01 
  59975.3554     0.71801E+01 
  60007.6176     0.70216E+01 
  60039.8798     0.68649E+01 
  60072.1419     0.67102E+01 
  60104.4041     0.65573E+01 
  60136.6662     0.64064E+01 
  60168.9284     0.62573E+01 
  60201.1906     0.61102E+01 
  60233.4527     0.59649E+01 
  60265.7149     0.58216E+01 
  60297.9770     0.56801E+01 
  60330.2392     0.55405E+01 
  60362.5014     0.54028E+01 
  60394.7635     0.52670E+01 
  60427.0257     0.51330E+01 
  60459.2878     0.50010E+01 
  60491.5500     0.48708E+01 
  60523.8122     0.47425E+01 
  60556.0743     0.46161E+01 
  60588.3365     0.44915E+01 
  60620.5986     0.43688E+01 
  60652.8608     0.42480E+01 
  60685.1230     0.41291E+01 
  60717.3851     0.40121E+01 
  60749.6473     0.38969E+01 
  60781.9094     0.37836E+01 
  60814.1716     0.36722E+01 
  60846.4338     0.35627E+01 
  60878.6959     0.34550E+01 
  60910.9581     0.33493E+01 
  60943.2202     0.32454E+01 
  60975.4824     0.31435E+01 
  61007.7446     0.30434E+01 
  61040.0067     0.29452E+01 
  61072.2689     0.28489E+01 
  61104.5310     0.27545E+01 
  61136.7932     0.26621E+01 
  61169.0554     0.25715E+01 
  61201.3175     0.24829E+01 
  61233.5797     0.23961E+01 
  61265.8418     0.23114E+01 
  61298.1040     0.22285E+01 
  61330.3662     0.21476E+01 
  61362.6283     0.20686E+01 
  61394.8905     0.19916E+01 
  61427.1526     0.19165E+01 
  61459.4148     0.18434E+01 
  61491.6770     0.17723E+01 
  61523.9391     0.17032E+01 
  61556.2013     0.16360E+01 
  61588.4634     0.15709E+01 
  61620.7256     0.15077E+01 
  61652.9878     0.14466E+01 
  61685.2499     0.13875E+01 
  61717.5121     0.13304E+01 
  61749.7742     0.12754E+01 
  61782.0364     0.12225E+01 
  61814.2986     0.11716E+01 
  61846.5607     0.11228E+01 
  61878.8229     0.10761E+01 
  61911.0850     0.10315E+01 
  61943.3472     0.98899E+00 
  61975.6094     0.94865E+00 
  62007.8715     0.91045E+00 
  62040.1337     0.87442E+00 
  62072.3958     0.84057E+00 
  62104.6580     0.80891E+00 
  62136.9202     0.77946E+00 
  62169.1823     0.75224E+00 
  62201.4445     0.72727E+00 
  62233.7066     0.70455E+00 
  62265.9688     0.68412E+00 
  62298.2310     0.66598E+00 
  62330.4931     0.65016E+00 
  62362.7553     0.63668E+00 
  62395.0174     0.62555E+00 
  62427.2796     0.61681E+00 
  62459.5418     0.61046E+00 
  62491.8039     0.60654E+00 
  62524.0661     0.60506E+00 
  62556.3282     0.60605E+00 
  62588.5904     0.60954E+00 
  62620.8526     0.61554E+00 
  62653.1147     0.62408E+00 
  62685.3769     0.63519E+00 
  62717.6390     0.64890E+00 
  62749.9012     0.66522E+00 
  62782.1634     0.68420E+00 
  62814.4255     0.70586E+00 
  62846.6877     0.73023E+00 
  62878.9498     0.75733E+00 
  62911.2120     0.78720E+00 
  62943.4742     0.81988E+00 
  62975.7363     0.85539E+00 
  63007.9985     0.89376E+00 
  63040.2606     0.93504E+00 
  63072.5228     0.97925E+00 
  63104.7850     0.10264E+01 
  63137.0471     0.10766E+01 
  63169.3093     0.11299E+01 
  63201.5714     0.11862E+01 
  63233.8336     0.12456E+01 
  63266.0958     0.13082E+01 
  63298.3579     0.13741E+01 
  63330.6201     0.14431E+01 
  63362.8822     0.15155E+01 
  63395.1444     0.15911E+01 
  63427.4066     0.16702E+01 
  63459.6687     0.17527E+01 
  63491.9309     0.18386E+01 
  63524.1930     0.19281E+01 
  63556.4552     0.20212E+01 
  63588.7174     0.21178E+01 
  63620.9795     0.22181E+01 
  63653.2417     0.23222E+01 
  63685.5038     0.24300E+01 
  63717.7660     0.25417E+01 
  63750.0282     0.26572E+01 
  63782.2903     0.27767E+01 
  63814.5525     0.29002E+01 
  63846.8146     0.30277E+01 
  63879.0768     0.31593E+01 
  63911.3390     0.32952E+01 
  63943.6011     0.34353E+01 
  63975.8633     0.35797E+01 
  64008.1254     0.37284E+01 
  64040.3876     0.38816E+01 
  64072.6498     0.40393E+01 
  64104.9119     0.42016E+01 
  64137.1741     0.43686E+01 
  64169.4362     0.45403E+01 
  64201.6984     0.47167E+01 
  64233.9606     0.48981E+01 
  64266.2227     0.50844E+01 
  64298.4849     0.52757E+01 
  64330.7470     0.54722E+01 
  64363.0092     0.56738E+01 
  64395.2714     0.58807E+01 
  64427.5335     0.60930E+01 
  64459.7957     0.63107E+01 
  64492.0578     0.65340E+01 
  64524.3200     0.67628E+01 
  64556.5822     0.69974E+01 
  64588.8443     0.72378E+01 
  64621.1065     0.74842E+01 
  64653.3686     0.77365E+01 
  64685.6308     0.79949E+01 
  64717.8930     0.82596E+01 
  64750.1551     0.85305E+01 
  64782.4173     0.88079E+01 
  64814.6794     0.90917E+01 
  64846.9416     0.93822E+01 
  64879.2038     0.96795E+01 
  64911.4659     0.99836E+01 
  64943.7281     0.10295E+02 
  64975.9902     0.10613E+02 
  65008.2524     0.10938E+02 
  65040.5146     0.11271E+02 
  65072.7767     0.11611E+02 
  65105.0389     0.11959E+02 
  65137.3010     0.12314E+02 
  65169.5632     0.12677E+02 
  65201.8254     0.13048E+02 
  65234.0875     0.13428E+02 
  65266.3497     0.13815E+02 
  65298.6118     0.14211E+02 
  65330.8740     0.14616E+02 
  65363.1362     0.15029E+02 
  65395.3983     0.15450E+02 
  65427.6605     0.15881E+02 
  65459.9226     0.16321E+02 
  65492.1848     0.16770E+02 
  65524.4470     0.17229E+02 
  65556.7091     0.17697E+02 
  65588.9713     0.18175E+02 
  65621.2334     0.18663E+02 
  65653.4956     0.19161E+02 
  65685.7578     0.19669E+02 
  65718.0199     0.20188E+02 
  65750.2821     0.20717E+02 
  65782.5442     0.21257E+02 
  65814.8064     0.21808E+02 
  65847.0686     0.22370E+02 
  65879.3307     0.22944E+02 
  65911.5929     0.23529E+02 
  65943.8550     0.24125E+02 
  65976.1172     0.24734E+02 
  66008.3794     0.25355E+02 
  66040.6415     0.25988E+02 
  66072.9037     0.26633E+02 
  66105.1658     0.27291E+02 
  66137.4280     0.27963E+02 
  66169.6902     0.28647E+02 
  66201.9523     0.29345E+02 
  66234.2145     0.30056E+02 
  66266.4766     0.30782E+02 
  66298.7388     0.31521E+02 
  66331.0010     0.32275E+02 
  66363.2631     0.33043E+02 
  66395.5253     0.33826E+02 
  66427.7874     0.34624E+02 
  66460.0496     0.35437E+02 
  66492.3118     0.36266E+02 
  66524.5739     0.37110E+02 
  66556.8361     0.37971E+02 
  66589.0982     0.38848E+02 
  66621.3604     0.39741E+02 
  66653.6226     0.40652E+02 
  66685.8847     0.41579E+02 
  66718.1469     0.42524E+02 
  66750.4090     0.43486E+02 
  66782.6712     0.44467E+02 
  66814.9334     0.45465E+02 
  66847.1955     0.46483E+02 
  66879.4577     0.47519E+02 
  66911.7198     0.48574E+02 
  66943.9820     0.49648E+02 
  66976.2442     0.50743E+02 
  67008.5063     0.51857E+02 
  67040.7685     0.52992E+02 
  67073.0306     0.54148E+02 
  67105.2928     0.55324E+02 
  67137.5550     0.56522E+02 
  67169.8171     0.57742E+02 
  67202.0793     0.58983E+02 
  67234.3414     0.60247E+02 
  67266.6036     0.61534E+02 
  67298.8658     0.62844E+02 
  67331.1279     0.64177E+02 
  67363.3901     0.65534E+02 
  67395.6522     0.66916E+02 
  67427.9144     0.68321E+02 
  67460.1766     0.69752E+02 
  67492.4387     0.71208E+02 
  67524.7009     0.72690E+02 
  67556.9630     0.74197E+02 
  67589.2252     0.75731E+02 
  67621.4874     0.77292E+02 
  67653.7495     0.78880E+02 
  67686.0117     0.80496E+02 
  67718.2738     0.82140E+02 
  67750.5360     0.83812E+02 
  67782.7982     0.85514E+02 
  67815.0603     0.87244E+02 
  67847.3225     0.89004E+02 
  67879.5846     0.90795E+02 
  67911.8468     0.92616E+02 
  67944.1090     0.94468E+02 
  67976.3711     0.96351E+02 
  68008.6333     0.98267E+02 
  68040.8954     0.10021E+03 
  68073.1576     0.10220E+03 
  68105.4198     0.10421E+03 
  68137.6819     0.10626E+03 
  68169.9441     0.10834E+03 
  68202.2062     0.11046E+03 
  68234.4684     0.11261E+03 
  68266.7306     0.11480E+03 
  68298.9927     0.11702E+03 
  68331.2549     0.11928E+03 
  68363.5170     0.12158E+03 
  68395.7792     0.12392E+03 
  68428.0414     0.12629E+03 
  68460.3035     0.12870E+03 
  68492.5657     0.13115E+03 
  68524.8278     0.13365E+03 
  68557.0900     0.13618E+03 
  68589.3522     0.13875E+03 
  68621.6143     0.14137E+03 
  68653.8765     0.14402E+03 
  68686.1386     0.14672E+03 
  68718.4008     0.14946E+03 
  68750.6630     0.15225E+03 
  68782.9251     0.15508E+03 
  68815.1873     0.15795E+03 
  68847.4494     0.16087E+03 
  68879.7116     0.16384E+03 
  68911.9738     0.16685E+03 
  68944.2359     0.16991E+03 
  68976.4981     0.17301E+03 
  69008.7602     0.17617E+03 
  69041.0224     0.17937E+03 
  69073.2846     0.18262E+03 
  69105.5467     0.18592E+03 
  69137.8089     0.18928E+03 
  69170.0710     0.19268E+03 
  69202.3332     0.19614E+03 
  69234.5954     0.19965E+03 
  69266.8575     0.20321E+03 
  69299.1197     0.20682E+03 
  69331.3818     0.21049E+03 
  69363.6440     0.21422E+03 
  69395.9062     0.21800E+03 
  69428.1683     0.22183E+03 
  69460.4305     0.22573E+03 
  69492.6926     0.22968E+03 
  69524.9548     0.23368E+03 
  69557.2170     0.23775E+03 
  69589.4791     0.24188E+03 
  69621.7413     0.24606E+03 
  69654.0034     0.25031E+03 
  69686.2656     0.25462E+03 
  69718.5278     0.25899E+03 
  69750.7899     0.26342E+03 
  69783.0521     0.26792E+03 
  69815.3142     0.27248E+03 
  69847.5764     0.27711E+03 
  69879.8386     0.28180E+03 
  69912.1007     0.28656E+03 
  69944.3629     0.29138E+03 
  69976.6250     0.29627E+03 
  70008.8872     0.30123E+03 
  70041.1494     0.30626E+03 
  70073.4115     0.31135E+03 
  70105.6737     0.31652E+03 
  70137.9358     0.32176E+03 
  70170.1980     0.32707E+03 
  70202.4602     0.33245E+03 
  70234.7223     0.33791E+03 
  70266.9845     0.34344E+03 
  70299.2466     0.34904E+03 
  70331.5088     0.35472E+03 
  70363.7710     0.36047E+03 
  70396.0331     0.36630E+03 
  70428.2953     0.37221E+03 
  70460.5574     0.37820E+03 
  70492.8196     0.38426E+03 
  70525.0818     0.39040E+03 
  70557.3439     0.39662E+03 
  70589.6061     0.40293E+03 
  70621.8682     0.40931E+03 
  70654.1304     0.41578E+03 
  70686.3926     0.42233E+03 
  70718.6547     0.42896E+03 
  70750.9169     0.43568E+03 
  70783.1790     0.44248E+03 
  70815.4412     0.44936E+03 
  70847.7034     0.45634E+03 
  70879.9655     0.46340E+03 
  70912.2277     0.47054E+03 
  70944.4898     0.47778E+03 
  70976.7520     0.48510E+03 
  71009.0142     0.49252E+03 
  71041.2763     0.50002E+03 
  71073.5385     0.50761E+03 
  71105.8006     0.51530E+03 
  71138.0628     0.52308E+03 
  71170.3250     0.53095E+03 
  71202.5871     0.53891E+03 
  71234.8493     0.54697E+03 
  71267.1114     0.55512E+03 
  71299.3736     0.56337E+03 
  71331.6358     0.57172E+03 
  71363.8979     0.58016E+03 
  71396.1601     0.58870E+03 
  71428.4222     0.59734E+03 
  71460.6844     0.60607E+03 
  71492.9466     0.61491E+03 
  71525.2087     0.62384E+03 
  71557.4709     0.63288E+03 
  71589.7330     0.64201E+03 
  71621.9952     0.65125E+03 
  71654.2574     0.66059E+03 
  71686.5195     0.67004E+03 
  71718.7817     0.67958E+03 
  71751.0438     0.68923E+03 
  71783.3060     0.69899E+03 
  71815.5682     0.70885E+03 
  71847.8303     0.71882E+03 
  71880.0925     0.72889E+03 
  71912.3546     0.73907E+03 
  71944.6168     0.74935E+03 
  71976.8790     0.75975E+03 
  72009.1411     0.77025E+03 
  72041.4033     0.78086E+03 
  72073.6654     0.79158E+03 
  72105.9276     0.80241E+03 
  72138.1898     0.81336E+03 
  72170.4519     0.82441E+03 
  72202.7141     0.83557E+03 
  72234.9762     0.84685E+03 
  72267.2384     0.85823E+03 
  72299.5006     0.86973E+03 
  72331.7627     0.88135E+03 
  72364.0249     0.89307E+03 
  72396.2870     0.90491E+03 
  72428.5492     0.91687E+03 
  72460.8114     0.92894E+03 
  72493.0735     0.94112E+03 
  72525.3357     0.95342E+03 
  72557.5978     0.96584E+03 
  72589.8600     0.97837E+03 
