  32262.1600     0.22949E+01 
  32294.4222     0.23293E+01 
  32326.6843     0.23641E+01 
  32358.9465     0.23993E+01 
  32391.2086     0.24348E+01 
  32423.4708     0.24708E+01 
  32455.7330     0.25070E+01 
  32487.9951     0.25437E+01 
  32520.2573     0.25807E+01 
  32552.5194     0.26181E+01 
  32584.7816     0.26559E+01 
  32617.0438     0.26940E+01 
  32649.3059     0.27325E+01 
  32681.5681     0.27714E+01 
  32713.8302     0.28107E+01 
  32746.0924     0.28503E+01 
  32778.3546     0.28903E+01 
  32810.6167     0.29307E+01 
  32842.8789     0.29714E+01 
  32875.1410     0.30126E+01 
  32907.4032     0.30541E+01 
  32939.6654     0.30959E+01 
  32971.9275     0.31382E+01 
  33004.1897     0.31808E+01 
  33036.4518     0.32238E+01 
  33068.7140     0.32671E+01 
  33100.9762     0.33109E+01 
  33133.2383     0.33550E+01 
  33165.5005     0.33995E+01 
  33197.7626     0.34443E+01 
  33230.0248     0.34895E+01 
  33262.2870     0.35351E+01 
  33294.5491     0.35810E+01 
  33326.8113     0.36274E+01 
  33359.0734     0.36740E+01 
  33391.3356     0.37211E+01 
  33423.5978     0.37685E+01 
  33455.8599     0.38163E+01 
  33488.1221     0.38644E+01 
  33520.3842     0.39129E+01 
  33552.6464     0.39618E+01 
  33584.9086     0.40110E+01 
  33617.1707     0.40605E+01 
  33649.4329     0.41104E+01 
  33681.6950     0.41607E+01 
  33713.9572     0.42113E+01 
  33746.2194     0.42623E+01 
  33778.4815     0.43136E+01 
  33810.7437     0.43653E+01 
  33843.0058     0.44173E+01 
  33875.2680     0.44696E+01 
  33907.5302     0.45223E+01 
  33939.7923     0.45753E+01 
  33972.0545     0.46286E+01 
  34004.3166     0.46823E+01 
  34036.5788     0.47363E+01 
  34068.8410     0.47906E+01 
  34101.1031     0.48453E+01 
  34133.3653     0.49003E+01 
  34165.6274     0.49555E+01 
  34197.8896     0.50111E+01 
  34230.1518     0.50670E+01 
  34262.4139     0.51233E+01 
  34294.6761     0.51798E+01 
  34326.9382     0.52366E+01 
  34359.2004     0.52937E+01 
  34391.4626     0.53512E+01 
  34423.7247     0.54089E+01 
  34455.9869     0.54669E+01 
  34488.2490     0.55252E+01 
  34520.5112     0.55837E+01 
  34552.7734     0.56426E+01 
  34585.0355     0.57017E+01 
  34617.2977     0.57611E+01 
  34649.5598     0.58207E+01 
  34681.8220     0.58806E+01 
  34714.0842     0.59408E+01 
  34746.3463     0.60012E+01 
  34778.6085     0.60619E+01 
  34810.8706     0.61228E+01 
  34843.1328     0.61840E+01 
  34875.3950     0.62454E+01 
  34907.6571     0.63070E+01 
  34939.9193     0.63689E+01 
  34972.1814     0.64310E+01 
  35004.4436     0.64933E+01 
  35036.7058     0.65558E+01 
  35068.9679     0.66186E+01 
  35101.2301     0.66815E+01 
  35133.4922     0.67446E+01 
  35165.7544     0.68080E+01 
  35198.0166     0.68715E+01 
  35230.2787     0.69352E+01 
  35262.5409     0.69991E+01 
  35294.8030     0.70632E+01 
  35327.0652     0.71274E+01 
  35359.3274     0.71918E+01 
  35391.5895     0.72564E+01 
  35423.8517     0.73211E+01 
  35456.1138     0.73860E+01 
  35488.3760     0.74510E+01 
  35520.6382     0.75161E+01 
  35552.9003     0.75814E+01 
  35585.1625     0.76468E+01 
  35617.4246     0.77124E+01 
  35649.6868     0.77780E+01 
  35681.9490     0.78438E+01 
  35714.2111     0.79097E+01 
  35746.4733     0.79756E+01 
  35778.7354     0.80417E+01 
  35810.9976     0.81079E+01 
  35843.2598     0.81741E+01 
  35875.5219     0.82404E+01 
  35907.7841     0.83068E+01 
  35940.0462     0.83732E+01 
  35972.3084     0.84397E+01 
  36004.5706     0.85063E+01 
  36036.8327     0.85729E+01 
  36069.0949     0.86396E+01 
  36101.3570     0.87062E+01 
  36133.6192     0.87730E+01 
  36165.8814     0.88397E+01 
  36198.1435     0.89065E+01 
  36230.4057     0.89732E+01 
  36262.6678     0.90400E+01 
  36294.9300     0.91068E+01 
  36327.1922     0.91735E+01 
  36359.4543     0.92403E+01 
  36391.7165     0.93070E+01 
  36423.9786     0.93737E+01 
  36456.2408     0.94403E+01 
  36488.5030     0.95070E+01 
  36520.7651     0.95735E+01 
  36553.0273     0.96401E+01 
  36585.2894     0.97065E+01 
  36617.5516     0.97729E+01 
  36649.8138     0.98393E+01 
  36682.0759     0.99055E+01 
  36714.3381     0.99717E+01 
  36746.6002     0.10038E+02 
  36778.8624     0.10104E+02 
  36811.1246     0.10170E+02 
  36843.3867     0.10235E+02 
  36875.6489     0.10301E+02 
  36907.9110     0.10367E+02 
  36940.1732     0.10432E+02 
  36972.4354     0.10497E+02 
  37004.6975     0.10562E+02 
  37036.9597     0.10627E+02 
  37069.2218     0.10692E+02 
  37101.4840     0.10757E+02 
  37133.7462     0.10821E+02 
  37166.0083     0.10886E+02 
  37198.2705     0.10950E+02 
  37230.5326     0.11014E+02 
  37262.7948     0.11078E+02 
  37295.0570     0.11141E+02 
  37327.3191     0.11205E+02 
  37359.5813     0.11268E+02 
  37391.8434     0.11331E+02 
  37424.1056     0.11394E+02 
  37456.3678     0.11456E+02 
  37488.6299     0.11518E+02 
  37520.8921     0.11580E+02 
  37553.1542     0.11642E+02 
  37585.4164     0.11704E+02 
  37617.6786     0.11765E+02 
  37649.9407     0.11826E+02 
  37682.2029     0.11887E+02 
  37714.4650     0.11947E+02 
  37746.7272     0.12008E+02 
  37778.9894     0.12067E+02 
  37811.2515     0.12127E+02 
  37843.5137     0.12186E+02 
  37875.7758     0.12245E+02 
  37908.0380     0.12304E+02 
  37940.3002     0.12363E+02 
  37972.5623     0.12421E+02 
  38004.8245     0.12478E+02 
  38037.0866     0.12536E+02 
  38069.3488     0.12593E+02 
  38101.6110     0.12650E+02 
  38133.8731     0.12706E+02 
  38166.1353     0.12762E+02 
  38198.3974     0.12818E+02 
  38230.6596     0.12873E+02 
  38262.9218     0.12928E+02 
  38295.1839     0.12983E+02 
  38327.4461     0.13037E+02 
  38359.7082     0.13091E+02 
  38391.9704     0.13144E+02 
  38424.2326     0.13197E+02 
  38456.4947     0.13250E+02 
  38488.7569     0.13302E+02 
  38521.0190     0.13354E+02 
  38553.2812     0.13405E+02 
  38585.5434     0.13456E+02 
  38617.8055     0.13507E+02 
  38650.0677     0.13557E+02 
  38682.3298     0.13606E+02 
  38714.5920     0.13656E+02 
  38746.8542     0.13704E+02 
  38779.1163     0.13753E+02 
  38811.3785     0.13801E+02 
  38843.6406     0.13848E+02 
  38875.9028     0.13895E+02 
  38908.1650     0.13942E+02 
  38940.4271     0.13988E+02 
  38972.6893     0.14034E+02 
  39004.9514     0.14079E+02 
  39037.2136     0.14123E+02 
  39069.4758     0.14168E+02 
  39101.7379     0.14211E+02 
  39134.0001     0.14254E+02 
  39166.2622     0.14297E+02 
  39198.5244     0.14339E+02 
  39230.7866     0.14381E+02 
  39263.0487     0.14422E+02 
  39295.3109     0.14463E+02 
  39327.5730     0.14503E+02 
  39359.8352     0.14543E+02 
  39392.0974     0.14582E+02 
  39424.3595     0.14621E+02 
  39456.6217     0.14659E+02 
  39488.8838     0.14697E+02 
  39521.1460     0.14734E+02 
  39553.4082     0.14770E+02 
  39585.6703     0.14806E+02 
  39617.9325     0.14842E+02 
  39650.1946     0.14877E+02 
  39682.4568     0.14911E+02 
  39714.7190     0.14945E+02 
  39746.9811     0.14978E+02 
  39779.2433     0.15011E+02 
  39811.5054     0.15043E+02 
  39843.7676     0.15075E+02 
  39876.0298     0.15106E+02 
  39908.2919     0.15137E+02 
  39940.5541     0.15167E+02 
  39972.8162     0.15196E+02 
  40005.0784     0.15225E+02 
  40037.3406     0.15254E+02 
  40069.6027     0.15281E+02 
  40101.8649     0.15308E+02 
  40134.1270     0.15335E+02 
  40166.3892     0.15361E+02 
  40198.6514     0.15387E+02 
  40230.9135     0.15412E+02 
  40263.1757     0.15436E+02 
  40295.4378     0.15460E+02 
  40327.7000     0.15483E+02 
  40359.9622     0.15506E+02 
  40392.2243     0.15528E+02 
  40424.4865     0.15549E+02 
  40456.7486     0.15570E+02 
  40489.0108     0.15590E+02 
  40521.2730     0.15610E+02 
  40553.5351     0.15629E+02 
  40585.7973     0.15648E+02 
  40618.0594     0.15666E+02 
  40650.3216     0.15683E+02 
  40682.5838     0.15700E+02 
  40714.8459     0.15716E+02 
  40747.1081     0.15732E+02 
  40779.3702     0.15747E+02 
  40811.6324     0.15761E+02 
  40843.8946     0.15775E+02 
  40876.1567     0.15788E+02 
  40908.4189     0.15801E+02 
  40940.6810     0.15813E+02 
  40972.9432     0.15825E+02 
  41005.2054     0.15836E+02 
  41037.4675     0.15846E+02 
  41069.7297     0.15856E+02 
  41101.9918     0.15865E+02 
  41134.2540     0.15874E+02 
  41166.5162     0.15882E+02 
  41198.7783     0.15889E+02 
  41231.0405     0.15896E+02 
  41263.3026     0.15903E+02 
  41295.5648     0.15908E+02 
  41327.8270     0.15914E+02 
  41360.0891     0.15918E+02 
  41392.3513     0.15922E+02 
  41424.6134     0.15926E+02 
  41456.8756     0.15928E+02 
  41489.1378     0.15931E+02 
  41521.3999     0.15933E+02 
  41553.6621     0.15934E+02 
  41585.9242     0.15934E+02 
  41618.1864     0.15934E+02 
  41650.4486     0.15934E+02 
  41682.7107     0.15933E+02 
  41714.9729     0.15931E+02 
  41747.2350     0.15929E+02 
  41779.4972     0.15926E+02 
  41811.7594     0.15923E+02 
  41844.0215     0.15919E+02 
  41876.2837     0.15914E+02 
  41908.5458     0.15909E+02 
  41940.8080     0.15904E+02 
  41973.0702     0.15898E+02 
  42005.3323     0.15891E+02 
  42037.5945     0.15884E+02 
  42069.8566     0.15876E+02 
  42102.1188     0.15868E+02 
  42134.3810     0.15859E+02 
  42166.6431     0.15850E+02 
  42198.9053     0.15840E+02 
  42231.1674     0.15829E+02 
  42263.4296     0.15819E+02 
  42295.6918     0.15807E+02 
  42327.9539     0.15795E+02 
  42360.2161     0.15783E+02 
  42392.4782     0.15770E+02 
  42424.7404     0.15756E+02 
  42457.0026     0.15742E+02 
  42489.2647     0.15728E+02 
  42521.5269     0.15713E+02 
  42553.7890     0.15697E+02 
  42586.0512     0.15681E+02 
  42618.3134     0.15664E+02 
  42650.5755     0.15647E+02 
  42682.8377     0.15630E+02 
  42715.0998     0.15612E+02 
  42747.3620     0.15593E+02 
  42779.6242     0.15574E+02 
  42811.8863     0.15555E+02 
  42844.1485     0.15535E+02 
  42876.4106     0.15515E+02 
  42908.6728     0.15494E+02 
  42940.9350     0.15472E+02 
  42973.1971     0.15451E+02 
  43005.4593     0.15428E+02 
  43037.7214     0.15406E+02 
  43069.9836     0.15382E+02 
  43102.2458     0.15359E+02 
  43134.5079     0.15335E+02 
  43166.7701     0.15310E+02 
  43199.0322     0.15285E+02 
  43231.2944     0.15260E+02 
  43263.5566     0.15234E+02 
  43295.8187     0.15208E+02 
  43328.0809     0.15181E+02 
  43360.3430     0.15154E+02 
  43392.6052     0.15126E+02 
  43424.8674     0.15098E+02 
  43457.1295     0.15070E+02 
  43489.3917     0.15041E+02 
  43521.6538     0.15012E+02 
  43553.9160     0.14983E+02 
  43586.1782     0.14953E+02 
  43618.4403     0.14922E+02 
  43650.7025     0.14892E+02 
  43682.9646     0.14861E+02 
  43715.2268     0.14829E+02 
  43747.4890     0.14797E+02 
  43779.7511     0.14765E+02 
  43812.0133     0.14732E+02 
  43844.2754     0.14699E+02 
  43876.5376     0.14666E+02 
  43908.7998     0.14632E+02 
  43941.0619     0.14598E+02 
  43973.3241     0.14564E+02 
  44005.5862     0.14529E+02 
  44037.8484     0.14494E+02 
  44070.1106     0.14458E+02 
  44102.3727     0.14423E+02 
  44134.6349     0.14387E+02 
  44166.8970     0.14350E+02 
  44199.1592     0.14313E+02 
  44231.4214     0.14276E+02 
  44263.6835     0.14239E+02 
  44295.9457     0.14201E+02 
  44328.2078     0.14163E+02 
  44360.4700     0.14125E+02 
  44392.7322     0.14086E+02 
  44424.9943     0.14047E+02 
  44457.2565     0.14008E+02 
  44489.5186     0.13969E+02 
  44521.7808     0.13929E+02 
  44554.0430     0.13889E+02 
  44586.3051     0.13849E+02 
  44618.5673     0.13808E+02 
  44650.8294     0.13767E+02 
  44683.0916     0.13726E+02 
  44715.3538     0.13685E+02 
  44747.6159     0.13643E+02 
  44779.8781     0.13601E+02 
  44812.1402     0.13559E+02 
  44844.4024     0.13517E+02 
  44876.6646     0.13474E+02 
  44908.9267     0.13431E+02 
  44941.1889     0.13388E+02 
  44973.4510     0.13345E+02 
  45005.7132     0.13301E+02 
  45037.9754     0.13258E+02 
  45070.2375     0.13214E+02 
  45102.4997     0.13169E+02 
  45134.7618     0.13125E+02 
  45167.0240     0.13080E+02 
  45199.2862     0.13036E+02 
  45231.5483     0.12991E+02 
  45263.8105     0.12946E+02 
  45296.0726     0.12900E+02 
  45328.3348     0.12855E+02 
  45360.5970     0.12809E+02 
  45392.8591     0.12763E+02 
  45425.1213     0.12717E+02 
  45457.3834     0.12671E+02 
  45489.6456     0.12624E+02 
  45521.9078     0.12578E+02 
  45554.1699     0.12531E+02 
  45586.4321     0.12484E+02 
  45618.6942     0.12437E+02 
  45650.9564     0.12390E+02 
  45683.2186     0.12343E+02 
  45715.4807     0.12295E+02 
  45747.7429     0.12248E+02 
  45780.0050     0.12200E+02 
  45812.2672     0.12152E+02 
  45844.5294     0.12104E+02 
  45876.7915     0.12056E+02 
  45909.0537     0.12008E+02 
  45941.3158     0.11959E+02 
  45973.5780     0.11911E+02 
  46005.8402     0.11862E+02 
  46038.1023     0.11814E+02 
  46070.3645     0.11765E+02 
  46102.6266     0.11716E+02 
  46134.8888     0.11667E+02 
  46167.1510     0.11618E+02 
  46199.4131     0.11569E+02 
  46231.6753     0.11520E+02 
  46263.9374     0.11471E+02 
  46296.1996     0.11421E+02 
  46328.4618     0.11372E+02 
  46360.7239     0.11323E+02 
  46392.9861     0.11273E+02 
  46425.2482     0.11223E+02 
  46457.5104     0.11174E+02 
  46489.7726     0.11124E+02 
  46522.0347     0.11074E+02 
  46554.2969     0.11025E+02 
  46586.5590     0.10975E+02 
  46618.8212     0.10925E+02 
  46651.0834     0.10875E+02 
  46683.3455     0.10825E+02 
  46715.6077     0.10775E+02 
  46747.8698     0.10725E+02 
  46780.1320     0.10675E+02 
  46812.3942     0.10625E+02 
  46844.6563     0.10575E+02 
  46876.9185     0.10525E+02 
  46909.1806     0.10474E+02 
  46941.4428     0.10424E+02 
  46973.7050     0.10374E+02 
  47005.9671     0.10324E+02 
  47038.2293     0.10274E+02 
  47070.4914     0.10224E+02 
  47102.7536     0.10174E+02 
  47135.0158     0.10124E+02 
  47167.2779     0.10073E+02 
  47199.5401     0.10023E+02 
  47231.8022     0.99732E+01 
  47264.0644     0.99232E+01 
  47296.3266     0.98731E+01 
  47328.5887     0.98231E+01 
  47360.8509     0.97731E+01 
  47393.1130     0.97231E+01 
  47425.3752     0.96732E+01 
  47457.6374     0.96232E+01 
  47489.8995     0.95734E+01 
  47522.1617     0.95235E+01 
  47554.4238     0.94737E+01 
  47586.6860     0.94240E+01 
  47618.9482     0.93743E+01 
  47651.2103     0.93246E+01 
  47683.4725     0.92750E+01 
  47715.7346     0.92255E+01 
  47747.9968     0.91760E+01 
  47780.2590     0.91266E+01 
  47812.5211     0.90772E+01 
  47844.7833     0.90279E+01 
  47877.0454     0.89787E+01 
  47909.3076     0.89295E+01 
  47941.5698     0.88804E+01 
  47973.8319     0.88313E+01 
  48006.0941     0.87824E+01 
  48038.3562     0.87335E+01 
  48070.6184     0.86847E+01 
  48102.8806     0.86360E+01 
  48135.1427     0.85873E+01 
  48167.4049     0.85388E+01 
  48199.6670     0.84903E+01 
  48231.9292     0.84419E+01 
  48264.1914     0.83936E+01 
  48296.4535     0.83454E+01 
  48328.7157     0.82973E+01 
  48360.9778     0.82493E+01 
  48393.2400     0.82014E+01 
  48425.5022     0.81536E+01 
  48457.7643     0.81059E+01 
  48490.0265     0.80583E+01 
  48522.2886     0.80108E+01 
  48554.5508     0.79634E+01 
  48586.8130     0.79161E+01 
  48619.0751     0.78689E+01 
  48651.3373     0.78218E+01 
  48683.5994     0.77749E+01 
  48715.8616     0.77281E+01 
  48748.1238     0.76813E+01 
  48780.3859     0.76347E+01 
  48812.6481     0.75883E+01 
  48844.9102     0.75419E+01 
  48877.1724     0.74957E+01 
  48909.4346     0.74496E+01 
  48941.6967     0.74036E+01 
  48973.9589     0.73577E+01 
  49006.2210     0.73120E+01 
  49038.4832     0.72664E+01 
  49070.7454     0.72209E+01 
  49103.0075     0.71756E+01 
  49135.2697     0.71304E+01 
  49167.5318     0.70853E+01 
  49199.7940     0.70404E+01 
  49232.0562     0.69956E+01 
  49264.3183     0.69509E+01 
  49296.5805     0.69064E+01 
  49328.8426     0.68621E+01 
  49361.1048     0.68178E+01 
  49393.3670     0.67737E+01 
  49425.6291     0.67298E+01 
  49457.8913     0.66860E+01 
  49490.1534     0.66424E+01 
  49522.4156     0.65989E+01 
  49554.6778     0.65555E+01 
  49586.9399     0.65123E+01 
  49619.2021     0.64692E+01 
  49651.4642     0.64263E+01 
  49683.7264     0.63836E+01 
  49715.9886     0.63410E+01 
  49748.2507     0.62986E+01 
  49780.5129     0.62563E+01 
  49812.7750     0.62141E+01 
  49845.0372     0.61722E+01 
  49877.2994     0.61304E+01 
  49909.5615     0.60887E+01 
  49941.8237     0.60472E+01 
  49974.0858     0.60059E+01 
  50006.3480     0.59647E+01 
  50038.6102     0.59237E+01 
  50070.8723     0.58828E+01 
  50103.1345     0.58421E+01 
  50135.3966     0.58016E+01 
  50167.6588     0.57612E+01 
  50199.9210     0.57210E+01 
  50232.1831     0.56810E+01 
  50264.4453     0.56411E+01 
  50296.7074     0.56014E+01 
  50328.9696     0.55619E+01 
  50361.2318     0.55225E+01 
  50393.4939     0.54833E+01 
  50425.7561     0.54443E+01 
  50458.0182     0.54054E+01 
  50490.2804     0.53667E+01 
  50522.5426     0.53282E+01 
  50554.8047     0.52898E+01 
  50587.0669     0.52516E+01 
  50619.3290     0.52136E+01 
  50651.5912     0.51758E+01 
  50683.8534     0.51381E+01 
  50716.1155     0.51006E+01 
  50748.3777     0.50633E+01 
  50780.6398     0.50261E+01 
  50812.9020     0.49891E+01 
  50845.1642     0.49523E+01 
  50877.4263     0.49157E+01 
  50909.6885     0.48792E+01 
  50941.9506     0.48429E+01 
  50974.2128     0.48068E+01 
  51006.4750     0.47708E+01 
  51038.7371     0.47351E+01 
  51070.9993     0.46995E+01 
  51103.2614     0.46640E+01 
  51135.5236     0.46288E+01 
  51167.7858     0.45937E+01 
  51200.0479     0.45588E+01 
  51232.3101     0.45241E+01 
  51264.5722     0.44895E+01 
  51296.8344     0.44551E+01 
  51329.0966     0.44209E+01 
  51361.3587     0.43869E+01 
  51393.6209     0.43530E+01 
  51425.8830     0.43193E+01 
  51458.1452     0.42858E+01 
  51490.4074     0.42525E+01 
  51522.6695     0.42193E+01 
  51554.9317     0.41864E+01 
  51587.1938     0.41536E+01 
  51619.4560     0.41209E+01 
  51651.7182     0.40885E+01 
  51683.9803     0.40562E+01 
  51716.2425     0.40240E+01 
  51748.5046     0.39921E+01 
  51780.7668     0.39603E+01 
  51813.0290     0.39287E+01 
  51845.2911     0.38973E+01 
  51877.5533     0.38661E+01 
  51909.8154     0.38350E+01 
  51942.0776     0.38041E+01 
  51974.3398     0.37734E+01 
  52006.6019     0.37428E+01 
  52038.8641     0.37124E+01 
  52071.1262     0.36822E+01 
  52103.3884     0.36522E+01 
  52135.6506     0.36223E+01 
  52167.9127     0.35926E+01 
  52200.1749     0.35631E+01 
  52232.4370     0.35337E+01 
  52264.6992     0.35045E+01 
  52296.9614     0.34755E+01 
  52329.2235     0.34467E+01 
  52361.4857     0.34180E+01 
  52393.7478     0.33895E+01 
  52426.0100     0.33611E+01 
  52458.2722     0.33329E+01 
  52490.5343     0.33049E+01 
  52522.7965     0.32771E+01 
  52555.0586     0.32494E+01 
  52587.3208     0.32219E+01 
  52619.5830     0.31946E+01 
  52651.8451     0.31674E+01 
  52684.1073     0.31404E+01 
  52716.3694     0.31135E+01 
  52748.6316     0.30869E+01 
  52780.8938     0.30603E+01 
  52813.1559     0.30340E+01 
  52845.4181     0.30078E+01 
  52877.6802     0.29818E+01 
  52909.9424     0.29559E+01 
  52942.2046     0.29302E+01 
  52974.4667     0.29047E+01 
  53006.7289     0.28793E+01 
  53038.9910     0.28541E+01 
  53071.2532     0.28290E+01 
  53103.5154     0.28041E+01 
  53135.7775     0.27794E+01 
  53168.0397     0.27548E+01 
  53200.3018     0.27304E+01 
  53232.5640     0.27061E+01 
  53264.8262     0.26820E+01 
  53297.0883     0.26580E+01 
  53329.3505     0.26342E+01 
  53361.6126     0.26106E+01 
  53393.8748     0.25871E+01 
  53426.1370     0.25638E+01 
  53458.3991     0.25406E+01 
  53490.6613     0.25176E+01 
  53522.9234     0.24947E+01 
  53555.1856     0.24720E+01 
  53587.4478     0.24494E+01 
  53619.7099     0.24270E+01 
  53651.9721     0.24047E+01 
  53684.2342     0.23826E+01 
  53716.4964     0.23606E+01 
  53748.7586     0.23388E+01 
  53781.0207     0.23171E+01 
  53813.2829     0.22956E+01 
  53845.5450     0.22742E+01 
  53877.8072     0.22530E+01 
  53910.0694     0.22319E+01 
  53942.3315     0.22110E+01 
  53974.5937     0.21902E+01 
  54006.8558     0.21695E+01 
  54039.1180     0.21490E+01 
  54071.3802     0.21287E+01 
  54103.6423     0.21084E+01 
  54135.9045     0.20884E+01 
  54168.1666     0.20684E+01 
  54200.4288     0.20486E+01 
  54232.6910     0.20289E+01 
  54264.9531     0.20094E+01 
  54297.2153     0.19900E+01 
  54329.4774     0.19708E+01 
  54361.7396     0.19517E+01 
  54394.0018     0.19327E+01 
  54426.2639     0.19139E+01 
  54458.5261     0.18952E+01 
  54490.7882     0.18766E+01 
  54523.0504     0.18582E+01 
  54555.3126     0.18398E+01 
  54587.5747     0.18217E+01 
  54619.8369     0.18036E+01 
  54652.0990     0.17857E+01 
  54684.3612     0.17680E+01 
  54716.6234     0.17503E+01 
  54748.8855     0.17328E+01 
  54781.1477     0.17154E+01 
  54813.4098     0.16981E+01 
  54845.6720     0.16810E+01 
  54877.9342     0.16640E+01 
  54910.1963     0.16471E+01 
  54942.4585     0.16304E+01 
  54974.7206     0.16138E+01 
  55006.9828     0.15972E+01 
  55039.2450     0.15809E+01 
  55071.5071     0.15646E+01 
  55103.7693     0.15485E+01 
  55136.0314     0.15325E+01 
  55168.2936     0.15166E+01 
  55200.5558     0.15008E+01 
  55232.8179     0.14851E+01 
  55265.0801     0.14696E+01 
  55297.3422     0.14542E+01 
  55329.6044     0.14389E+01 
  55361.8666     0.14237E+01 
  55394.1287     0.14086E+01 
  55426.3909     0.13937E+01 
  55458.6530     0.13789E+01 
  55490.9152     0.13641E+01 
  55523.1774     0.13495E+01 
  55555.4395     0.13350E+01 
  55587.7017     0.13207E+01 
  55619.9638     0.13064E+01 
  55652.2260     0.12922E+01 
  55684.4882     0.12782E+01 
  55716.7503     0.12643E+01 
  55749.0125     0.12504E+01 
  55781.2746     0.12367E+01 
  55813.5368     0.12231E+01 
  55845.7990     0.12096E+01 
  55878.0611     0.11962E+01 
  55910.3233     0.11829E+01 
  55942.5854     0.11697E+01 
  55974.8476     0.11567E+01 
  56007.1098     0.11437E+01 
  56039.3719     0.11308E+01 
  56071.6341     0.11181E+01 
  56103.8962     0.11054E+01 
  56136.1584     0.10928E+01 
  56168.4206     0.10804E+01 
  56200.6827     0.10680E+01 
  56232.9449     0.10558E+01 
  56265.2070     0.10436E+01 
  56297.4692     0.10315E+01 
  56329.7314     0.10196E+01 
  56361.9935     0.10077E+01 
  56394.2557     0.99596E+00 
  56426.5178     0.98429E+00 
  56458.7800     0.97271E+00 
  56491.0422     0.96123E+00 
  56523.3043     0.94985E+00 
  56555.5665     0.93856E+00 
  56587.8286     0.92736E+00 
  56620.0908     0.91626E+00 
  56652.3530     0.90525E+00 
  56684.6151     0.89433E+00 
  56716.8773     0.88350E+00 
  56749.1394     0.87277E+00 
  56781.4016     0.86212E+00 
  56813.6638     0.85156E+00 
  56845.9259     0.84110E+00 
  56878.1881     0.83072E+00 
  56910.4502     0.82043E+00 
  56942.7124     0.81022E+00 
  56974.9746     0.80010E+00 
  57007.2367     0.79007E+00 
  57039.4989     0.78013E+00 
  57071.7610     0.77027E+00 
  57104.0232     0.76049E+00 
  57136.2854     0.75080E+00 
  57168.5475     0.74119E+00 
  57200.8097     0.73167E+00 
  57233.0718     0.72223E+00 
  57265.3340     0.71287E+00 
  57297.5962     0.70359E+00 
  57329.8583     0.69439E+00 
  57362.1205     0.68527E+00 
  57394.3826     0.67624E+00 
  57426.6448     0.66728E+00 
  57458.9070     0.65840E+00 
  57491.1691     0.64960E+00 
  57523.4313     0.64087E+00 
  57555.6934     0.63223E+00 
  57587.9556     0.62366E+00 
  57620.2178     0.61517E+00 
  57652.4799     0.60675E+00 
  57684.7421     0.59841E+00 
  57717.0042     0.59015E+00 
  57749.2664     0.58195E+00 
  57781.5286     0.57384E+00 
  57813.7907     0.56579E+00 
  57846.0529     0.55782E+00 
  57878.3150     0.54992E+00 
  57910.5772     0.54210E+00 
  57942.8394     0.53434E+00 
  57975.1015     0.52666E+00 
  58007.3637     0.51904E+00 
  58039.6258     0.51150E+00 
  58071.8880     0.50403E+00 
  58104.1502     0.49663E+00 
  58136.4123     0.48929E+00 
  58168.6745     0.48203E+00 
  58200.9366     0.47483E+00 
  58233.1988     0.46770E+00 
  58265.4610     0.46064E+00 
  58297.7231     0.45364E+00 
  58329.9853     0.44671E+00 
  58362.2474     0.43985E+00 
  58394.5096     0.43305E+00 
  58426.7718     0.42632E+00 
  58459.0339     0.41965E+00 
  58491.2961     0.41305E+00 
  58523.5582     0.40651E+00 
  58555.8204     0.40003E+00 
  58588.0826     0.39362E+00 
  58620.3447     0.38727E+00 
  58652.6069     0.38098E+00 
  58684.8690     0.37476E+00 
  58717.1312     0.36860E+00 
  58749.3934     0.36249E+00 
  58781.6555     0.35645E+00 
  58813.9177     0.35047E+00 
  58846.1798     0.34455E+00 
  58878.4420     0.33869E+00 
  58910.7042     0.33289E+00 
  58942.9663     0.32715E+00 
  58975.2285     0.32147E+00 
  59007.4906     0.31585E+00 
  59039.7528     0.31028E+00 
  59072.0150     0.30477E+00 
  59104.2771     0.29932E+00 
  59136.5393     0.29393E+00 
  59168.8014     0.28860E+00 
  59201.0636     0.28332E+00 
  59233.3258     0.27809E+00 
  59265.5879     0.27293E+00 
  59297.8501     0.26782E+00 
  59330.1122     0.26276E+00 
  59362.3744     0.25776E+00 
  59394.6366     0.25282E+00 
  59426.8987     0.24793E+00 
  59459.1609     0.24309E+00 
  59491.4230     0.23831E+00 
  59523.6852     0.23358E+00 
  59555.9474     0.22891E+00 
  59588.2095     0.22428E+00 
  59620.4717     0.21972E+00 
  59652.7338     0.21520E+00 
  59684.9960     0.21074E+00 
  59717.2582     0.20633E+00 
  59749.5203     0.20197E+00 
  59781.7825     0.19766E+00 
  59814.0446     0.19341E+00 
  59846.3068     0.18920E+00 
  59878.5690     0.18505E+00 
  59910.8311     0.18095E+00 
  59943.0933     0.17690E+00 
  59975.3554     0.17290E+00 
  60007.6176     0.16895E+00 
  60039.8798     0.16505E+00 
  60072.1419     0.16120E+00 
  60104.4041     0.15740E+00 
  60136.6662     0.15365E+00 
  60168.9284     0.14995E+00 
  60201.1906     0.14630E+00 
  60233.4527     0.14269E+00 
  60265.7149     0.13914E+00 
  60297.9770     0.13563E+00 
  60330.2392     0.13218E+00 
  60362.5014     0.12877E+00 
  60394.7635     0.12541E+00 
  60427.0257     0.12210E+00 
  60459.2878     0.11884E+00 
  60491.5500     0.11562E+00 
  60523.8122     0.11246E+00 
  60556.0743     0.10934E+00 
  60588.3365     0.10626E+00 
  60620.5986     0.10324E+00 
  60652.8608     0.10026E+00 
  60685.1230     0.97335E-01 
  60717.3851     0.94453E-01 
  60749.6473     0.91618E-01 
  60781.9094     0.88830E-01 
  60814.1716     0.86090E-01 
  60846.4338     0.83396E-01 
  60878.6959     0.80750E-01 
  60910.9581     0.78150E-01 
  60943.2202     0.75597E-01 
  60975.4824     0.73091E-01 
  61007.7446     0.70632E-01 
  61040.0067     0.68219E-01 
  61072.2689     0.65853E-01 
  61104.5310     0.63534E-01 
  61136.7932     0.61262E-01 
  61169.0554     0.59036E-01 
  61201.3175     0.56858E-01 
  61233.5797     0.54726E-01 
  61265.8418     0.52640E-01 
  61298.1040     0.50602E-01 
  61330.3662     0.48610E-01 
  61362.6283     0.46665E-01 
  61394.8905     0.44767E-01 
  61427.1526     0.42916E-01 
  61459.4148     0.41113E-01 
  61491.6770     0.39356E-01 
  61523.9391     0.37646E-01 
  61556.2013     0.35984E-01 
  61588.4634     0.34369E-01 
  61620.7256     0.32801E-01 
  61652.9878     0.31281E-01 
  61685.2499     0.29809E-01 
  61717.5121     0.28385E-01 
  61749.7742     0.27008E-01 
  61782.0364     0.25679E-01 
  61814.2986     0.24399E-01 
  61846.5607     0.23167E-01 
  61878.8229     0.21984E-01 
  61911.0850     0.20849E-01 
  61943.3472     0.19763E-01 
  61975.6094     0.18726E-01 
  62007.8715     0.17739E-01 
  62040.1337     0.16801E-01 
  62072.3958     0.15913E-01 
  62104.6580     0.15074E-01 
  62136.9202     0.14286E-01 
  62169.1823     0.13548E-01 
  62201.4445     0.12861E-01 
  62233.7066     0.12224E-01 
  62265.9688     0.11639E-01 
  62298.2310     0.11105E-01 
  62330.4931     0.10623E-01 
  62362.7553     0.10194E-01 
  62395.0174     0.98160E-02 
  62427.2796     0.94912E-02 
  62459.5418     0.92195E-02 
  62491.8039     0.90011E-02 
  62524.0661     0.88365E-02 
  62556.3282     0.87260E-02 
  62588.5904     0.86700E-02 
  62620.8526     0.86690E-02 
  62653.1147     0.87232E-02 
  62685.3769     0.88332E-02 
  62717.6390     0.89993E-02 
  62749.9012     0.92221E-02 
  62782.1634     0.95019E-02 
  62814.4255     0.98392E-02 
  62846.6877     0.10235E-01 
  62878.9498     0.10689E-01 
  62911.2120     0.11202E-01 
  62943.4742     0.11774E-01 
  62975.7363     0.12407E-01 
  63007.9985     0.13100E-01 
  63040.2606     0.13855E-01 
  63072.5228     0.14671E-01 
  63104.7850     0.15550E-01 
  63137.0471     0.16492E-01 
  63169.3093     0.17497E-01 
  63201.5714     0.18567E-01 
  63233.8336     0.19702E-01 
  63266.0958     0.20903E-01 
  63298.3579     0.22170E-01 
  63330.6201     0.23504E-01 
  63362.8822     0.24906E-01 
  63395.1444     0.26377E-01 
  63427.4066     0.27917E-01 
  63459.6687     0.29528E-01 
  63491.9309     0.31209E-01 
  63524.1930     0.32962E-01 
  63556.4552     0.34789E-01 
  63588.7174     0.36688E-01 
  63620.9795     0.38662E-01 
  63653.2417     0.40712E-01 
  63685.5038     0.42838E-01 
  63717.7660     0.45042E-01 
  63750.0282     0.47323E-01 
  63782.2903     0.49685E-01 
  63814.5525     0.52126E-01 
  63846.8146     0.54649E-01 
  63879.0768     0.57255E-01 
  63911.3390     0.59945E-01 
  63943.6011     0.62719E-01 
  63975.8633     0.65579E-01 
  64008.1254     0.68527E-01 
  64040.3876     0.71563E-01 
  64072.6498     0.74689E-01 
  64104.9119     0.77905E-01 
  64137.1741     0.81214E-01 
  64169.4362     0.84617E-01 
  64201.6984     0.88115E-01 
  64233.9606     0.91709E-01 
  64266.2227     0.95401E-01 
  64298.4849     0.99193E-01 
  64330.7470     0.10309E+00 
  64363.0092     0.10708E+00 
  64395.2714     0.11118E+00 
  64427.5335     0.11538E+00 
  64459.7957     0.11970E+00 
  64492.0578     0.12412E+00 
  64524.3200     0.12865E+00 
  64556.5822     0.13329E+00 
  64588.8443     0.13805E+00 
  64621.1065     0.14293E+00 
  64653.3686     0.14792E+00 
  64685.6308     0.15303E+00 
  64717.8930     0.15827E+00 
  64750.1551     0.16363E+00 
  64782.4173     0.16911E+00 
  64814.6794     0.17472E+00 
  64846.9416     0.18047E+00 
  64879.2038     0.18635E+00 
  64911.4659     0.19236E+00 
  64943.7281     0.19851E+00 
  64975.9902     0.20479E+00 
  65008.2524     0.21122E+00 
  65040.5146     0.21780E+00 
  65072.7767     0.22452E+00 
  65105.0389     0.23139E+00 
  65137.3010     0.23842E+00 
  65169.5632     0.24560E+00 
  65201.8254     0.25293E+00 
  65234.0875     0.26043E+00 
  65266.3497     0.26809E+00 
  65298.6118     0.27592E+00 
  65330.8740     0.28392E+00 
  65363.1362     0.29209E+00 
  65395.3983     0.30043E+00 
  65427.6605     0.30896E+00 
  65459.9226     0.31767E+00 
  65492.1848     0.32656E+00 
  65524.4470     0.33564E+00 
  65556.7091     0.34492E+00 
  65588.9713     0.35439E+00 
  65621.2334     0.36406E+00 
  65653.4956     0.37394E+00 
  65685.7578     0.38403E+00 
  65718.0199     0.39432E+00 
  65750.2821     0.40483E+00 
  65782.5442     0.41556E+00 
  65814.8064     0.42652E+00 
  65847.0686     0.43770E+00 
  65879.3307     0.44912E+00 
  65911.5929     0.46078E+00 
  65943.8550     0.47267E+00 
  65976.1172     0.48482E+00 
  66008.3794     0.49721E+00 
  66040.6415     0.50986E+00 
  66072.9037     0.52277E+00 
  66105.1658     0.53595E+00 
  66137.4280     0.54940E+00 
  66169.6902     0.56313E+00 
  66201.9523     0.57714E+00 
  66234.2145     0.59144E+00 
  66266.4766     0.60603E+00 
  66298.7388     0.62092E+00 
  66331.0010     0.63612E+00 
  66363.2631     0.65162E+00 
  66395.5253     0.66745E+00 
  66427.7874     0.68360E+00 
  66460.0496     0.70008E+00 
  66492.3118     0.71690E+00 
  66524.5739     0.73406E+00 
  66556.8361     0.75157E+00 
  66589.0982     0.76944E+00 
  66621.3604     0.78767E+00 
  66653.6226     0.80628E+00 
  66685.8847     0.82526E+00 
  66718.1469     0.84464E+00 
  66750.4090     0.86440E+00 
  66782.6712     0.88457E+00 
  66814.9334     0.90515E+00 
  66847.1955     0.92615E+00 
  66879.4577     0.94758E+00 
  66911.7198     0.96944E+00 
  66943.9820     0.99175E+00 
  66976.2442     0.10145E+01 
  67008.5063     0.10377E+01 
  67040.7685     0.10614E+01 
  67073.0306     0.10856E+01 
  67105.2928     0.11103E+01 
  67137.5550     0.11354E+01 
  67169.8171     0.11611E+01 
  67202.0793     0.11873E+01 
  67234.3414     0.12141E+01 
  67266.6036     0.12413E+01 
  67298.8658     0.12692E+01 
  67331.1279     0.12976E+01 
  67363.3901     0.13265E+01 
  67395.6522     0.13561E+01 
  67427.9144     0.13862E+01 
  67460.1766     0.14170E+01 
  67492.4387     0.14484E+01 
  67524.7009     0.14804E+01 
  67556.9630     0.15131E+01 
  67589.2252     0.15464E+01 
  67621.4874     0.15804E+01 
  67653.7495     0.16151E+01 
  67686.0117     0.16505E+01 
  67718.2738     0.16866E+01 
  67750.5360     0.17234E+01 
  67782.7982     0.17610E+01 
  67815.0603     0.17993E+01 
  67847.3225     0.18384E+01 
  67879.5846     0.18783E+01 
  67911.8468     0.19190E+01 
  67944.1090     0.19605E+01 
  67976.3711     0.20028E+01 
  68008.6333     0.20460E+01 
  68040.8954     0.20901E+01 
  68073.1576     0.21350E+01 
  68105.4198     0.21808E+01 
  68137.6819     0.22276E+01 
  68169.9441     0.22753E+01 
  68202.2062     0.23239E+01 
  68234.4684     0.23735E+01 
  68266.7306     0.24241E+01 
  68298.9927     0.24757E+01 
  68331.2549     0.25283E+01 
  68363.5170     0.25820E+01 
  68395.7792     0.26367E+01 
  68428.0414     0.26925E+01 
  68460.3035     0.27495E+01 
  68492.5657     0.28075E+01 
  68524.8278     0.28667E+01 
  68557.0900     0.29271E+01 
  68589.3522     0.29886E+01 
  68621.6143     0.30514E+01 
  68653.8765     0.31154E+01 
  68686.1386     0.31806E+01 
  68718.4008     0.32472E+01 
  68750.6630     0.33150E+01 
  68782.9251     0.33842E+01 
  68815.1873     0.34547E+01 
  68847.4494     0.35266E+01 
  68879.7116     0.35998E+01 
  68911.9738     0.36745E+01 
  68944.2359     0.37507E+01 
  68976.4981     0.38283E+01 
  69008.7602     0.39074E+01 
  69041.0224     0.39881E+01 
  69073.2846     0.40703E+01 
  69105.5467     0.41541E+01 
  69137.8089     0.42395E+01 
  69170.0710     0.43265E+01 
  69202.3332     0.44152E+01 
  69234.5954     0.45055E+01 
  69266.8575     0.45976E+01 
  69299.1197     0.46915E+01 
  69331.3818     0.47871E+01 
  69363.6440     0.48845E+01 
  69395.9062     0.49838E+01 
  69428.1683     0.50849E+01 
  69460.4305     0.51880E+01 
  69492.6926     0.52929E+01 
  69524.9548     0.53999E+01 
  69557.2170     0.55088E+01 
  69589.4791     0.56197E+01 
  69621.7413     0.57328E+01 
  69654.0034     0.58479E+01 
  69686.2656     0.59651E+01 
  69718.5278     0.60845E+01 
  69750.7899     0.62061E+01 
  69783.0521     0.63299E+01 
  69815.3142     0.64559E+01 
  69847.5764     0.65843E+01 
  69879.8386     0.67150E+01 
  69912.1007     0.68481E+01 
  69944.3629     0.69836E+01 
  69976.6250     0.71215E+01 
  70008.8872     0.72619E+01 
  70041.1494     0.74048E+01 
  70073.4115     0.75503E+01 
  70105.6737     0.76983E+01 
  70137.9358     0.78490E+01 
  70170.1980     0.80024E+01 
  70202.4602     0.81584E+01 
  70234.7223     0.83173E+01 
  70266.9845     0.84788E+01 
  70299.2466     0.86433E+01 
  70331.5088     0.88106E+01 
  70363.7710     0.89807E+01 
  70396.0331     0.91539E+01 
  70428.2953     0.93300E+01 
  70460.5574     0.95092E+01 
  70492.8196     0.96914E+01 
  70525.0818     0.98767E+01 
  70557.3439     0.10065E+02 
  70589.6061     0.10257E+02 
  70621.8682     0.10452E+02 
  70654.1304     0.10650E+02 
  70686.3926     0.10851E+02 
  70718.6547     0.11056E+02 
  70750.9169     0.11265E+02 
  70783.1790     0.11476E+02 
  70815.4412     0.11692E+02 
  70847.7034     0.11910E+02 
  70879.9655     0.12133E+02 
  70912.2277     0.12359E+02 
  70944.4898     0.12588E+02 
  70976.7520     0.12822E+02 
  71009.0142     0.13059E+02 
  71041.2763     0.13300E+02 
  71073.5385     0.13545E+02 
  71105.8006     0.13793E+02 
  71138.0628     0.14046E+02 
  71170.3250     0.14302E+02 
  71202.5871     0.14563E+02 
  71234.8493     0.14828E+02 
  71267.1114     0.15097E+02 
  71299.3736     0.15370E+02 
  71331.6358     0.15647E+02 
  71363.8979     0.15928E+02 
  71396.1601     0.16214E+02 
  71428.4222     0.16504E+02 
  71460.6844     0.16799E+02 
  71492.9466     0.17098E+02 
  71525.2087     0.17401E+02 
  71557.4709     0.17709E+02 
  71589.7330     0.18021E+02 
  71621.9952     0.18339E+02 
  71654.2574     0.18660E+02 
  71686.5195     0.18987E+02 
  71718.7817     0.19318E+02 
  71751.0438     0.19654E+02 
  71783.3060     0.19995E+02 
  71815.5682     0.20341E+02 
  71847.8303     0.20692E+02 
  71880.0925     0.21047E+02 
  71912.3546     0.21408E+02 
  71944.6168     0.21774E+02 
  71976.8790     0.22145E+02 
  72009.1411     0.22521E+02 
  72041.4033     0.22902E+02 
  72073.6654     0.23289E+02 
  72105.9276     0.23680E+02 
  72138.1898     0.24077E+02 
  72170.4519     0.24480E+02 
  72202.7141     0.24888E+02 
  72234.9762     0.25301E+02 
  72267.2384     0.25720E+02 
  72299.5006     0.26144E+02 
  72331.7627     0.26574E+02 
  72364.0249     0.27009E+02 
  72396.2870     0.27450E+02 
  72428.5492     0.27897E+02 
  72460.8114     0.28350E+02 
  72493.0735     0.28808E+02 
  72525.3357     0.29272E+02 
  72557.5978     0.29742E+02 
  72589.8600     0.30217E+02 
