  32262.1600     0.80172E-08 
  32294.4222     0.81083E-08 
  32326.6843     0.82001E-08 
  32358.9465     0.82925E-08 
  32391.2086     0.83856E-08 
  32423.4708     0.84793E-08 
  32455.7330     0.85738E-08 
  32487.9951     0.86689E-08 
  32520.2573     0.87646E-08 
  32552.5194     0.88611E-08 
  32584.7816     0.89582E-08 
  32617.0438     0.90560E-08 
  32649.3059     0.91544E-08 
  32681.5681     0.92535E-08 
  32713.8302     0.93533E-08 
  32746.0924     0.94537E-08 
  32778.3546     0.95548E-08 
  32810.6167     0.96565E-08 
  32842.8789     0.97589E-08 
  32875.1410     0.98620E-08 
  32907.4032     0.99657E-08 
  32939.6654     0.10070E-07 
  32971.9275     0.10175E-07 
  33004.1897     0.10281E-07 
  33036.4518     0.10387E-07 
  33068.7140     0.10494E-07 
  33100.9762     0.10602E-07 
  33133.2383     0.10710E-07 
  33165.5005     0.10819E-07 
  33197.7626     0.10928E-07 
  33230.0248     0.11039E-07 
  33262.2870     0.11149E-07 
  33294.5491     0.11261E-07 
  33326.8113     0.11373E-07 
  33359.0734     0.11486E-07 
  33391.3356     0.11599E-07 
  33423.5978     0.11713E-07 
  33455.8599     0.11827E-07 
  33488.1221     0.11943E-07 
  33520.3842     0.12058E-07 
  33552.6464     0.12175E-07 
  33584.9086     0.12292E-07 
  33617.1707     0.12409E-07 
  33649.4329     0.12528E-07 
  33681.6950     0.12646E-07 
  33713.9572     0.12766E-07 
  33746.2194     0.12886E-07 
  33778.4815     0.13006E-07 
  33810.7437     0.13127E-07 
  33843.0058     0.13249E-07 
  33875.2680     0.13371E-07 
  33907.5302     0.13494E-07 
  33939.7923     0.13618E-07 
  33972.0545     0.13742E-07 
  34004.3166     0.13866E-07 
  34036.5788     0.13991E-07 
  34068.8410     0.14117E-07 
  34101.1031     0.14243E-07 
  34133.3653     0.14370E-07 
  34165.6274     0.14497E-07 
  34197.8896     0.14625E-07 
  34230.1518     0.14753E-07 
  34262.4139     0.14882E-07 
  34294.6761     0.15012E-07 
  34326.9382     0.15141E-07 
  34359.2004     0.15272E-07 
  34391.4626     0.15403E-07 
  34423.7247     0.15534E-07 
  34455.9869     0.15666E-07 
  34488.2490     0.15798E-07 
  34520.5112     0.15931E-07 
  34552.7734     0.16064E-07 
  34585.0355     0.16198E-07 
  34617.2977     0.16332E-07 
  34649.5598     0.16467E-07 
  34681.8220     0.16602E-07 
  34714.0842     0.16737E-07 
  34746.3463     0.16873E-07 
  34778.6085     0.17010E-07 
  34810.8706     0.17146E-07 
  34843.1328     0.17284E-07 
  34875.3950     0.17421E-07 
  34907.6571     0.17559E-07 
  34939.9193     0.17698E-07 
  34972.1814     0.17837E-07 
  35004.4436     0.17976E-07 
  35036.7058     0.18115E-07 
  35068.9679     0.18255E-07 
  35101.2301     0.18396E-07 
  35133.4922     0.18536E-07 
  35165.7544     0.18677E-07 
  35198.0166     0.18819E-07 
  35230.2787     0.18960E-07 
  35262.5409     0.19102E-07 
  35294.8030     0.19245E-07 
  35327.0652     0.19387E-07 
  35359.3274     0.19530E-07 
  35391.5895     0.19673E-07 
  35423.8517     0.19817E-07 
  35456.1138     0.19961E-07 
  35488.3760     0.20105E-07 
  35520.6382     0.20249E-07 
  35552.9003     0.20394E-07 
  35585.1625     0.20538E-07 
  35617.4246     0.20684E-07 
  35649.6868     0.20829E-07 
  35681.9490     0.20974E-07 
  35714.2111     0.21120E-07 
  35746.4733     0.21266E-07 
  35778.7354     0.21412E-07 
  35810.9976     0.21559E-07 
  35843.2598     0.21705E-07 
  35875.5219     0.21852E-07 
  35907.7841     0.21999E-07 
  35940.0462     0.22146E-07 
  35972.3084     0.22293E-07 
  36004.5706     0.22440E-07 
  36036.8327     0.22587E-07 
  36069.0949     0.22735E-07 
  36101.3570     0.22883E-07 
  36133.6192     0.23030E-07 
  36165.8814     0.23178E-07 
  36198.1435     0.23326E-07 
  36230.4057     0.23474E-07 
  36262.6678     0.23622E-07 
  36294.9300     0.23771E-07 
  36327.1922     0.23919E-07 
  36359.4543     0.24067E-07 
  36391.7165     0.24215E-07 
  36423.9786     0.24364E-07 
  36456.2408     0.24512E-07 
  36488.5030     0.24660E-07 
  36520.7651     0.24809E-07 
  36553.0273     0.24957E-07 
  36585.2894     0.25105E-07 
  36617.5516     0.25253E-07 
  36649.8138     0.25402E-07 
  36682.0759     0.25550E-07 
  36714.3381     0.25698E-07 
  36746.6002     0.25846E-07 
  36778.8624     0.25994E-07 
  36811.1246     0.26142E-07 
  36843.3867     0.26290E-07 
  36875.6489     0.26437E-07 
  36907.9110     0.26585E-07 
  36940.1732     0.26732E-07 
  36972.4354     0.26879E-07 
  37004.6975     0.27027E-07 
  37036.9597     0.27174E-07 
  37069.2218     0.27320E-07 
  37101.4840     0.27467E-07 
  37133.7462     0.27613E-07 
  37166.0083     0.27760E-07 
  37198.2705     0.27906E-07 
  37230.5326     0.28052E-07 
  37262.7948     0.28197E-07 
  37295.0570     0.28343E-07 
  37327.3191     0.28488E-07 
  37359.5813     0.28633E-07 
  37391.8434     0.28777E-07 
  37424.1056     0.28922E-07 
  37456.3678     0.29066E-07 
  37488.6299     0.29209E-07 
  37520.8921     0.29353E-07 
  37553.1542     0.29496E-07 
  37585.4164     0.29639E-07 
  37617.6786     0.29781E-07 
  37649.9407     0.29924E-07 
  37682.2029     0.30066E-07 
  37714.4650     0.30207E-07 
  37746.7272     0.30348E-07 
  37778.9894     0.30489E-07 
  37811.2515     0.30629E-07 
  37843.5137     0.30769E-07 
  37875.7758     0.30909E-07 
  37908.0380     0.31048E-07 
  37940.3002     0.31187E-07 
  37972.5623     0.31325E-07 
  38004.8245     0.31463E-07 
  38037.0866     0.31600E-07 
  38069.3488     0.31737E-07 
  38101.6110     0.31874E-07 
  38133.8731     0.32010E-07 
  38166.1353     0.32145E-07 
  38198.3974     0.32280E-07 
  38230.6596     0.32414E-07 
  38262.9218     0.32548E-07 
  38295.1839     0.32682E-07 
  38327.4461     0.32815E-07 
  38359.7082     0.32947E-07 
  38391.9704     0.33079E-07 
  38424.2326     0.33210E-07 
  38456.4947     0.33341E-07 
  38488.7569     0.33471E-07 
  38521.0190     0.33601E-07 
  38553.2812     0.33730E-07 
  38585.5434     0.33858E-07 
  38617.8055     0.33986E-07 
  38650.0677     0.34113E-07 
  38682.3298     0.34239E-07 
  38714.5920     0.34365E-07 
  38746.8542     0.34490E-07 
  38779.1163     0.34615E-07 
  38811.3785     0.34738E-07 
  38843.6406     0.34862E-07 
  38875.9028     0.34984E-07 
  38908.1650     0.35106E-07 
  38940.4271     0.35227E-07 
  38972.6893     0.35347E-07 
  39004.9514     0.35467E-07 
  39037.2136     0.35586E-07 
  39069.4758     0.35704E-07 
  39101.7379     0.35822E-07 
  39134.0001     0.35938E-07 
  39166.2622     0.36054E-07 
  39198.5244     0.36170E-07 
  39230.7866     0.36284E-07 
  39263.0487     0.36398E-07 
  39295.3109     0.36511E-07 
  39327.5730     0.36623E-07 
  39359.8352     0.36734E-07 
  39392.0974     0.36845E-07 
  39424.3595     0.36954E-07 
  39456.6217     0.37063E-07 
  39488.8838     0.37171E-07 
  39521.1460     0.37278E-07 
  39553.4082     0.37385E-07 
  39585.6703     0.37490E-07 
  39617.9325     0.37595E-07 
  39650.1946     0.37699E-07 
  39682.4568     0.37802E-07 
  39714.7190     0.37904E-07 
  39746.9811     0.38005E-07 
  39779.2433     0.38105E-07 
  39811.5054     0.38205E-07 
  39843.7676     0.38303E-07 
  39876.0298     0.38401E-07 
  39908.2919     0.38497E-07 
  39940.5541     0.38593E-07 
  39972.8162     0.38688E-07 
  40005.0784     0.38782E-07 
  40037.3406     0.38875E-07 
  40069.6027     0.38967E-07 
  40101.8649     0.39058E-07 
  40134.1270     0.39148E-07 
  40166.3892     0.39237E-07 
  40198.6514     0.39325E-07 
  40230.9135     0.39413E-07 
  40263.1757     0.39499E-07 
  40295.4378     0.39584E-07 
  40327.7000     0.39668E-07 
  40359.9622     0.39752E-07 
  40392.2243     0.39834E-07 
  40424.4865     0.39915E-07 
  40456.7486     0.39995E-07 
  40489.0108     0.40075E-07 
  40521.2730     0.40153E-07 
  40553.5351     0.40230E-07 
  40585.7973     0.40306E-07 
  40618.0594     0.40382E-07 
  40650.3216     0.40456E-07 
  40682.5838     0.40529E-07 
  40714.8459     0.40601E-07 
  40747.1081     0.40672E-07 
  40779.3702     0.40742E-07 
  40811.6324     0.40811E-07 
  40843.8946     0.40879E-07 
  40876.1567     0.40946E-07 
  40908.4189     0.41011E-07 
  40940.6810     0.41076E-07 
  40972.9432     0.41140E-07 
  41005.2054     0.41202E-07 
  41037.4675     0.41264E-07 
  41069.7297     0.41324E-07 
  41101.9918     0.41383E-07 
  41134.2540     0.41442E-07 
  41166.5162     0.41499E-07 
  41198.7783     0.41555E-07 
  41231.0405     0.41610E-07 
  41263.3026     0.41664E-07 
  41295.5648     0.41716E-07 
  41327.8270     0.41768E-07 
  41360.0891     0.41819E-07 
  41392.3513     0.41868E-07 
  41424.6134     0.41916E-07 
  41456.8756     0.41964E-07 
  41489.1378     0.42010E-07 
  41521.3999     0.42055E-07 
  41553.6621     0.42099E-07 
  41585.9242     0.42142E-07 
  41618.1864     0.42183E-07 
  41650.4486     0.42224E-07 
  41682.7107     0.42263E-07 
  41714.9729     0.42302E-07 
  41747.2350     0.42339E-07 
  41779.4972     0.42375E-07 
  41811.7594     0.42410E-07 
  41844.0215     0.42444E-07 
  41876.2837     0.42476E-07 
  41908.5458     0.42508E-07 
  41940.8080     0.42538E-07 
  41973.0702     0.42568E-07 
  42005.3323     0.42596E-07 
  42037.5945     0.42623E-07 
  42069.8566     0.42649E-07 
  42102.1188     0.42674E-07 
  42134.3810     0.42698E-07 
  42166.6431     0.42720E-07 
  42198.9053     0.42742E-07 
  42231.1674     0.42762E-07 
  42263.4296     0.42781E-07 
  42295.6918     0.42799E-07 
  42327.9539     0.42816E-07 
  42360.2161     0.42832E-07 
  42392.4782     0.42847E-07 
  42424.7404     0.42860E-07 
  42457.0026     0.42873E-07 
  42489.2647     0.42884E-07 
  42521.5269     0.42894E-07 
  42553.7890     0.42903E-07 
  42586.0512     0.42911E-07 
  42618.3134     0.42918E-07 
  42650.5755     0.42924E-07 
  42682.8377     0.42929E-07 
  42715.0998     0.42932E-07 
  42747.3620     0.42935E-07 
  42779.6242     0.42936E-07 
  42811.8863     0.42936E-07 
  42844.1485     0.42935E-07 
  42876.4106     0.42933E-07 
  42908.6728     0.42930E-07 
  42940.9350     0.42926E-07 
  42973.1971     0.42920E-07 
  43005.4593     0.42914E-07 
  43037.7214     0.42907E-07 
  43069.9836     0.42898E-07 
  43102.2458     0.42888E-07 
  43134.5079     0.42878E-07 
  43166.7701     0.42866E-07 
  43199.0322     0.42853E-07 
  43231.2944     0.42839E-07 
  43263.5566     0.42824E-07 
  43295.8187     0.42807E-07 
  43328.0809     0.42790E-07 
  43360.3430     0.42772E-07 
  43392.6052     0.42753E-07 
  43424.8674     0.42732E-07 
  43457.1295     0.42711E-07 
  43489.3917     0.42688E-07 
  43521.6538     0.42665E-07 
  43553.9160     0.42640E-07 
  43586.1782     0.42614E-07 
  43618.4403     0.42588E-07 
  43650.7025     0.42560E-07 
  43682.9646     0.42531E-07 
  43715.2268     0.42501E-07 
  43747.4890     0.42471E-07 
  43779.7511     0.42439E-07 
  43812.0133     0.42406E-07 
  43844.2754     0.42372E-07 
  43876.5376     0.42337E-07 
  43908.7998     0.42301E-07 
  43941.0619     0.42265E-07 
  43973.3241     0.42227E-07 
  44005.5862     0.42188E-07 
  44037.8484     0.42148E-07 
  44070.1106     0.42107E-07 
  44102.3727     0.42065E-07 
  44134.6349     0.42023E-07 
  44166.8970     0.41979E-07 
  44199.1592     0.41934E-07 
  44231.4214     0.41889E-07 
  44263.6835     0.41842E-07 
  44295.9457     0.41794E-07 
  44328.2078     0.41746E-07 
  44360.4700     0.41696E-07 
  44392.7322     0.41646E-07 
  44424.9943     0.41595E-07 
  44457.2565     0.41543E-07 
  44489.5186     0.41489E-07 
  44521.7808     0.41435E-07 
  44554.0430     0.41380E-07 
  44586.3051     0.41325E-07 
  44618.5673     0.41268E-07 
  44650.8294     0.41210E-07 
  44683.0916     0.41152E-07 
  44715.3538     0.41092E-07 
  44747.6159     0.41032E-07 
  44779.8781     0.40971E-07 
  44812.1402     0.40909E-07 
  44844.4024     0.40846E-07 
  44876.6646     0.40782E-07 
  44908.9267     0.40718E-07 
  44941.1889     0.40652E-07 
  44973.4510     0.40586E-07 
  45005.7132     0.40519E-07 
  45037.9754     0.40451E-07 
  45070.2375     0.40382E-07 
  45102.4997     0.40313E-07 
  45134.7618     0.40242E-07 
  45167.0240     0.40171E-07 
  45199.2862     0.40099E-07 
  45231.5483     0.40027E-07 
  45263.8105     0.39953E-07 
  45296.0726     0.39879E-07 
  45328.3348     0.39804E-07 
  45360.5970     0.39728E-07 
  45392.8591     0.39651E-07 
  45425.1213     0.39574E-07 
  45457.3834     0.39496E-07 
  45489.6456     0.39417E-07 
  45521.9078     0.39338E-07 
  45554.1699     0.39257E-07 
  45586.4321     0.39176E-07 
  45618.6942     0.39095E-07 
  45650.9564     0.39012E-07 
  45683.2186     0.38929E-07 
  45715.4807     0.38845E-07 
  45747.7429     0.38761E-07 
  45780.0050     0.38676E-07 
  45812.2672     0.38590E-07 
  45844.5294     0.38503E-07 
  45876.7915     0.38416E-07 
  45909.0537     0.38328E-07 
  45941.3158     0.38240E-07 
  45973.5780     0.38151E-07 
  46005.8402     0.38061E-07 
  46038.1023     0.37971E-07 
  46070.3645     0.37880E-07 
  46102.6266     0.37788E-07 
  46134.8888     0.37696E-07 
  46167.1510     0.37603E-07 
  46199.4131     0.37510E-07 
  46231.6753     0.37416E-07 
  46263.9374     0.37321E-07 
  46296.1996     0.37226E-07 
  46328.4618     0.37130E-07 
  46360.7239     0.37034E-07 
  46392.9861     0.36937E-07 
  46425.2482     0.36840E-07 
  46457.5104     0.36742E-07 
  46489.7726     0.36643E-07 
  46522.0347     0.36544E-07 
  46554.2969     0.36445E-07 
  46586.5590     0.36345E-07 
  46618.8212     0.36244E-07 
  46651.0834     0.36143E-07 
  46683.3455     0.36041E-07 
  46715.6077     0.35939E-07 
  46747.8698     0.35837E-07 
  46780.1320     0.35734E-07 
  46812.3942     0.35630E-07 
  46844.6563     0.35527E-07 
  46876.9185     0.35422E-07 
  46909.1806     0.35317E-07 
  46941.4428     0.35212E-07 
  46973.7050     0.35106E-07 
  47005.9671     0.35000E-07 
  47038.2293     0.34894E-07 
  47070.4914     0.34787E-07 
  47102.7536     0.34679E-07 
  47135.0158     0.34572E-07 
  47167.2779     0.34463E-07 
  47199.5401     0.34355E-07 
  47231.8022     0.34246E-07 
  47264.0644     0.34137E-07 
  47296.3266     0.34027E-07 
  47328.5887     0.33917E-07 
  47360.8509     0.33807E-07 
  47393.1130     0.33696E-07 
  47425.3752     0.33585E-07 
  47457.6374     0.33473E-07 
  47489.8995     0.33362E-07 
  47522.1617     0.33249E-07 
  47554.4238     0.33137E-07 
  47586.6860     0.33024E-07 
  47618.9482     0.32911E-07 
  47651.2103     0.32798E-07 
  47683.4725     0.32684E-07 
  47715.7346     0.32571E-07 
  47747.9968     0.32456E-07 
  47780.2590     0.32342E-07 
  47812.5211     0.32227E-07 
  47844.7833     0.32112E-07 
  47877.0454     0.31997E-07 
  47909.3076     0.31882E-07 
  47941.5698     0.31766E-07 
  47973.8319     0.31650E-07 
  48006.0941     0.31534E-07 
  48038.3562     0.31418E-07 
  48070.6184     0.31301E-07 
  48102.8806     0.31184E-07 
  48135.1427     0.31067E-07 
  48167.4049     0.30950E-07 
  48199.6670     0.30833E-07 
  48231.9292     0.30715E-07 
  48264.1914     0.30597E-07 
  48296.4535     0.30479E-07 
  48328.7157     0.30361E-07 
  48360.9778     0.30243E-07 
  48393.2400     0.30125E-07 
  48425.5022     0.30006E-07 
  48457.7643     0.29887E-07 
  48490.0265     0.29769E-07 
  48522.2886     0.29650E-07 
  48554.5508     0.29531E-07 
  48586.8130     0.29411E-07 
  48619.0751     0.29292E-07 
  48651.3373     0.29173E-07 
  48683.5994     0.29053E-07 
  48715.8616     0.28933E-07 
  48748.1238     0.28814E-07 
  48780.3859     0.28694E-07 
  48812.6481     0.28574E-07 
  48844.9102     0.28454E-07 
  48877.1724     0.28334E-07 
  48909.4346     0.28214E-07 
  48941.6967     0.28094E-07 
  48973.9589     0.27974E-07 
  49006.2210     0.27853E-07 
  49038.4832     0.27733E-07 
  49070.7454     0.27613E-07 
  49103.0075     0.27492E-07 
  49135.2697     0.27372E-07 
  49167.5318     0.27251E-07 
  49199.7940     0.27131E-07 
  49232.0562     0.27011E-07 
  49264.3183     0.26890E-07 
  49296.5805     0.26770E-07 
  49328.8426     0.26649E-07 
  49361.1048     0.26529E-07 
  49393.3670     0.26408E-07 
  49425.6291     0.26288E-07 
  49457.8913     0.26168E-07 
  49490.1534     0.26047E-07 
  49522.4156     0.25927E-07 
  49554.6778     0.25807E-07 
  49586.9399     0.25686E-07 
  49619.2021     0.25566E-07 
  49651.4642     0.25446E-07 
  49683.7264     0.25326E-07 
  49715.9886     0.25206E-07 
  49748.2507     0.25086E-07 
  49780.5129     0.24966E-07 
  49812.7750     0.24846E-07 
  49845.0372     0.24726E-07 
  49877.2994     0.24607E-07 
  49909.5615     0.24487E-07 
  49941.8237     0.24368E-07 
  49974.0858     0.24248E-07 
  50006.3480     0.24129E-07 
  50038.6102     0.24010E-07 
  50070.8723     0.23891E-07 
  50103.1345     0.23772E-07 
  50135.3966     0.23653E-07 
  50167.6588     0.23534E-07 
  50199.9210     0.23416E-07 
  50232.1831     0.23297E-07 
  50264.4453     0.23179E-07 
  50296.7074     0.23061E-07 
  50328.9696     0.22943E-07 
  50361.2318     0.22825E-07 
  50393.4939     0.22707E-07 
  50425.7561     0.22590E-07 
  50458.0182     0.22472E-07 
  50490.2804     0.22355E-07 
  50522.5426     0.22238E-07 
  50554.8047     0.22121E-07 
  50587.0669     0.22004E-07 
  50619.3290     0.21888E-07 
  50651.5912     0.21771E-07 
  50683.8534     0.21655E-07 
  50716.1155     0.21539E-07 
  50748.3777     0.21423E-07 
  50780.6398     0.21308E-07 
  50812.9020     0.21192E-07 
  50845.1642     0.21077E-07 
  50877.4263     0.20962E-07 
  50909.6885     0.20847E-07 
  50941.9506     0.20732E-07 
  50974.2128     0.20618E-07 
  51006.4750     0.20504E-07 
  51038.7371     0.20390E-07 
  51070.9993     0.20276E-07 
  51103.2614     0.20162E-07 
  51135.5236     0.20049E-07 
  51167.7858     0.19936E-07 
  51200.0479     0.19823E-07 
  51232.3101     0.19711E-07 
  51264.5722     0.19598E-07 
  51296.8344     0.19486E-07 
  51329.0966     0.19374E-07 
  51361.3587     0.19263E-07 
  51393.6209     0.19151E-07 
  51425.8830     0.19040E-07 
  51458.1452     0.18929E-07 
  51490.4074     0.18819E-07 
  51522.6695     0.18708E-07 
  51554.9317     0.18598E-07 
  51587.1938     0.18489E-07 
  51619.4560     0.18379E-07 
  51651.7182     0.18270E-07 
  51683.9803     0.18161E-07 
  51716.2425     0.18052E-07 
  51748.5046     0.17944E-07 
  51780.7668     0.17835E-07 
  51813.0290     0.17727E-07 
  51845.2911     0.17620E-07 
  51877.5533     0.17513E-07 
  51909.8154     0.17406E-07 
  51942.0776     0.17299E-07 
  51974.3398     0.17192E-07 
  52006.6019     0.17086E-07 
  52038.8641     0.16980E-07 
  52071.1262     0.16875E-07 
  52103.3884     0.16770E-07 
  52135.6506     0.16665E-07 
  52167.9127     0.16560E-07 
  52200.1749     0.16456E-07 
  52232.4370     0.16352E-07 
  52264.6992     0.16248E-07 
  52296.9614     0.16145E-07 
  52329.2235     0.16042E-07 
  52361.4857     0.15939E-07 
  52393.7478     0.15836E-07 
  52426.0100     0.15734E-07 
  52458.2722     0.15632E-07 
  52490.5343     0.15531E-07 
  52522.7965     0.15430E-07 
  52555.0586     0.15329E-07 
  52587.3208     0.15228E-07 
  52619.5830     0.15128E-07 
  52651.8451     0.15028E-07 
  52684.1073     0.14929E-07 
  52716.3694     0.14830E-07 
  52748.6316     0.14731E-07 
  52780.8938     0.14632E-07 
  52813.1559     0.14534E-07 
  52845.4181     0.14436E-07 
  52877.6802     0.14339E-07 
  52909.9424     0.14242E-07 
  52942.2046     0.14145E-07 
  52974.4667     0.14048E-07 
  53006.7289     0.13952E-07 
  53038.9910     0.13857E-07 
  53071.2532     0.13761E-07 
  53103.5154     0.13666E-07 
  53135.7775     0.13571E-07 
  53168.0397     0.13477E-07 
  53200.3018     0.13383E-07 
  53232.5640     0.13289E-07 
  53264.8262     0.13196E-07 
  53297.0883     0.13103E-07 
  53329.3505     0.13010E-07 
  53361.6126     0.12918E-07 
  53393.8748     0.12826E-07 
  53426.1370     0.12734E-07 
  53458.3991     0.12643E-07 
  53490.6613     0.12552E-07 
  53522.9234     0.12462E-07 
  53555.1856     0.12372E-07 
  53587.4478     0.12282E-07 
  53619.7099     0.12192E-07 
  53651.9721     0.12103E-07 
  53684.2342     0.12014E-07 
  53716.4964     0.11926E-07 
  53748.7586     0.11838E-07 
  53781.0207     0.11750E-07 
  53813.2829     0.11663E-07 
  53845.5450     0.11576E-07 
  53877.8072     0.11490E-07 
  53910.0694     0.11404E-07 
  53942.3315     0.11318E-07 
  53974.5937     0.11232E-07 
  54006.8558     0.11147E-07 
  54039.1180     0.11062E-07 
  54071.3802     0.10978E-07 
  54103.6423     0.10894E-07 
  54135.9045     0.10810E-07 
  54168.1666     0.10727E-07 
  54200.4288     0.10644E-07 
  54232.6910     0.10562E-07 
  54264.9531     0.10479E-07 
  54297.2153     0.10398E-07 
  54329.4774     0.10316E-07 
  54361.7396     0.10235E-07 
  54394.0018     0.10154E-07 
  54426.2639     0.10074E-07 
  54458.5261     0.99940E-08 
  54490.7882     0.99143E-08 
  54523.0504     0.98351E-08 
  54555.3126     0.97562E-08 
  54587.5747     0.96777E-08 
  54619.8369     0.95995E-08 
  54652.0990     0.95217E-08 
  54684.3612     0.94443E-08 
  54716.6234     0.93672E-08 
  54748.8855     0.92905E-08 
  54781.1477     0.92141E-08 
  54813.4098     0.91382E-08 
  54845.6720     0.90626E-08 
  54877.9342     0.89873E-08 
  54910.1963     0.89124E-08 
  54942.4585     0.88379E-08 
  54974.7206     0.87637E-08 
  55006.9828     0.86900E-08 
  55039.2450     0.86165E-08 
  55071.5071     0.85435E-08 
  55103.7693     0.84708E-08 
  55136.0314     0.83984E-08 
  55168.2936     0.83264E-08 
  55200.5558     0.82548E-08 
  55232.8179     0.81835E-08 
  55265.0801     0.81126E-08 
  55297.3422     0.80421E-08 
  55329.6044     0.79719E-08 
  55361.8666     0.79021E-08 
  55394.1287     0.78326E-08 
  55426.3909     0.77635E-08 
  55458.6530     0.76948E-08 
  55490.9152     0.76264E-08 
  55523.1774     0.75583E-08 
  55555.4395     0.74907E-08 
  55587.7017     0.74233E-08 
  55619.9638     0.73564E-08 
  55652.2260     0.72898E-08 
  55684.4882     0.72235E-08 
  55716.7503     0.71576E-08 
  55749.0125     0.70920E-08 
  55781.2746     0.70268E-08 
  55813.5368     0.69620E-08 
  55845.7990     0.68975E-08 
  55878.0611     0.68333E-08 
  55910.3233     0.67695E-08 
  55942.5854     0.67061E-08 
  55974.8476     0.66430E-08 
  56007.1098     0.65802E-08 
  56039.3719     0.65178E-08 
  56071.6341     0.64558E-08 
  56103.8962     0.63941E-08 
  56136.1584     0.63327E-08 
  56168.4206     0.62717E-08 
  56200.6827     0.62110E-08 
  56232.9449     0.61506E-08 
  56265.2070     0.60906E-08 
  56297.4692     0.60310E-08 
  56329.7314     0.59717E-08 
  56361.9935     0.59127E-08 
  56394.2557     0.58541E-08 
  56426.5178     0.57958E-08 
  56458.7800     0.57378E-08 
  56491.0422     0.56802E-08 
  56523.3043     0.56229E-08 
  56555.5665     0.55660E-08 
  56587.8286     0.55094E-08 
  56620.0908     0.54531E-08 
  56652.3530     0.53971E-08 
  56684.6151     0.53415E-08 
  56716.8773     0.52862E-08 
  56749.1394     0.52313E-08 
  56781.4016     0.51767E-08 
  56813.6638     0.51224E-08 
  56845.9259     0.50684E-08 
  56878.1881     0.50148E-08 
  56910.4502     0.49615E-08 
  56942.7124     0.49085E-08 
  56974.9746     0.48558E-08 
  57007.2367     0.48035E-08 
  57039.4989     0.47515E-08 
  57071.7610     0.46998E-08 
  57104.0232     0.46484E-08 
  57136.2854     0.45974E-08 
  57168.5475     0.45467E-08 
  57200.8097     0.44963E-08 
  57233.0718     0.44462E-08 
  57265.3340     0.43964E-08 
  57297.5962     0.43470E-08 
  57329.8583     0.42978E-08 
  57362.1205     0.42490E-08 
  57394.3826     0.42005E-08 
  57426.6448     0.41523E-08 
  57458.9070     0.41044E-08 
  57491.1691     0.40569E-08 
  57523.4313     0.40096E-08 
  57555.6934     0.39627E-08 
  57587.9556     0.39161E-08 
  57620.2178     0.38697E-08 
  57652.4799     0.38237E-08 
  57684.7421     0.37780E-08 
  57717.0042     0.37326E-08 
  57749.2664     0.36875E-08 
  57781.5286     0.36427E-08 
  57813.7907     0.35982E-08 
  57846.0529     0.35540E-08 
  57878.3150     0.35102E-08 
  57910.5772     0.34666E-08 
  57942.8394     0.34233E-08 
  57975.1015     0.33803E-08 
  58007.3637     0.33376E-08 
  58039.6258     0.32953E-08 
  58071.8880     0.32532E-08 
  58104.1502     0.32114E-08 
  58136.4123     0.31699E-08 
  58168.6745     0.31287E-08 
  58200.9366     0.30878E-08 
  58233.1988     0.30472E-08 
  58265.4610     0.30069E-08 
  58297.7231     0.29669E-08 
  58329.9853     0.29271E-08 
  58362.2474     0.28877E-08 
  58394.5096     0.28485E-08 
  58426.7718     0.28097E-08 
  58459.0339     0.27711E-08 
  58491.2961     0.27328E-08 
  58523.5582     0.26948E-08 
  58555.8204     0.26571E-08 
  58588.0826     0.26197E-08 
  58620.3447     0.25826E-08 
  58652.6069     0.25457E-08 
  58684.8690     0.25092E-08 
  58717.1312     0.24729E-08 
  58749.3934     0.24369E-08 
  58781.6555     0.24012E-08 
  58813.9177     0.23657E-08 
  58846.1798     0.23306E-08 
  58878.4420     0.22957E-08 
  58910.7042     0.22611E-08 
  58942.9663     0.22268E-08 
  58975.2285     0.21928E-08 
  59007.4906     0.21591E-08 
  59039.7528     0.21256E-08 
  59072.0150     0.20924E-08 
  59104.2771     0.20595E-08 
  59136.5393     0.20268E-08 
  59168.8014     0.19945E-08 
  59201.0636     0.19624E-08 
  59233.3258     0.19306E-08 
  59265.5879     0.18991E-08 
  59297.8501     0.18678E-08 
  59330.1122     0.18368E-08 
  59362.3744     0.18061E-08 
  59394.6366     0.17757E-08 
  59426.8987     0.17455E-08 
  59459.1609     0.17156E-08 
  59491.4230     0.16860E-08 
  59523.6852     0.16567E-08 
  59555.9474     0.16276E-08 
  59588.2095     0.15988E-08 
  59620.4717     0.15703E-08 
  59652.7338     0.15420E-08 
  59684.9960     0.15141E-08 
  59717.2582     0.14864E-08 
  59749.5203     0.14589E-08 
  59781.7825     0.14318E-08 
  59814.0446     0.14049E-08 
  59846.3068     0.13783E-08 
  59878.5690     0.13519E-08 
  59910.8311     0.13259E-08 
  59943.0933     0.13001E-08 
  59975.3554     0.12745E-08 
  60007.6176     0.12493E-08 
  60039.8798     0.12243E-08 
  60072.1419     0.11996E-08 
  60104.4041     0.11752E-08 
  60136.6662     0.11510E-08 
  60168.9284     0.11271E-08 
  60201.1906     0.11035E-08 
  60233.4527     0.10801E-08 
  60265.7149     0.10571E-08 
  60297.9770     0.10343E-08 
  60330.2392     0.10118E-08 
  60362.5014     0.98952E-09 
  60394.7635     0.96756E-09 
  60427.0257     0.94586E-09 
  60459.2878     0.92445E-09 
  60491.5500     0.90331E-09 
  60523.8122     0.88246E-09 
  60556.0743     0.86188E-09 
  60588.3365     0.84157E-09 
  60620.5986     0.82155E-09 
  60652.8608     0.80181E-09 
  60685.1230     0.78236E-09 
  60717.3851     0.76318E-09 
  60749.6473     0.74429E-09 
  60781.9094     0.72568E-09 
  60814.1716     0.70736E-09 
  60846.4338     0.68932E-09 
  60878.6959     0.67157E-09 
  60910.9581     0.65411E-09 
  60943.2202     0.63693E-09 
  60975.4824     0.62005E-09 
  61007.7446     0.60346E-09 
  61040.0067     0.58717E-09 
  61072.2689     0.57116E-09 
  61104.5310     0.55545E-09 
  61136.7932     0.54004E-09 
  61169.0554     0.52493E-09 
  61201.3175     0.51012E-09 
  61233.5797     0.49561E-09 
  61265.8418     0.48140E-09 
  61298.1040     0.46750E-09 
  61330.3662     0.45390E-09 
  61362.6283     0.44062E-09 
  61394.8905     0.42764E-09 
  61427.1526     0.41497E-09 
  61459.4148     0.40262E-09 
  61491.6770     0.39059E-09 
  61523.9391     0.37887E-09 
  61556.2013     0.36747E-09 
  61588.4634     0.35640E-09 
  61620.7256     0.34565E-09 
  61652.9878     0.33522E-09 
  61685.2499     0.32513E-09 
  61717.5121     0.31537E-09 
  61749.7742     0.30594E-09 
  61782.0364     0.29685E-09 
  61814.2986     0.28810E-09 
  61846.5607     0.27969E-09 
  61878.8229     0.27163E-09 
  61911.0850     0.26392E-09 
  61943.3472     0.25655E-09 
  61975.6094     0.24954E-09 
  62007.8715     0.24289E-09 
  62040.1337     0.23660E-09 
  62072.3958     0.23067E-09 
  62104.6580     0.22511E-09 
  62136.9202     0.21992E-09 
  62169.1823     0.21511E-09 
  62201.4445     0.21067E-09 
  62233.7066     0.20662E-09 
  62265.9688     0.20295E-09 
  62298.2310     0.19967E-09 
  62330.4931     0.19678E-09 
  62362.7553     0.19429E-09 
  62395.0174     0.19220E-09 
  62427.2796     0.19052E-09 
  62459.5418     0.18925E-09 
  62491.8039     0.18839E-09 
  62524.0661     0.18795E-09 
  62556.3282     0.18794E-09 
  62588.5904     0.18836E-09 
  62620.8526     0.18921E-09 
  62653.1147     0.19050E-09 
  62685.3769     0.19223E-09 
  62717.6390     0.19441E-09 
  62749.9012     0.19705E-09 
  62782.1634     0.20014E-09 
  62814.4255     0.20371E-09 
  62846.6877     0.20774E-09 
  62878.9498     0.21225E-09 
  62911.2120     0.21725E-09 
  62943.4742     0.22273E-09 
  62975.7363     0.22871E-09 
  63007.9985     0.23519E-09 
  63040.2606     0.24219E-09 
  63072.5228     0.24969E-09 
  63104.7850     0.25772E-09 
  63137.0471     0.26627E-09 
  63169.3093     0.27537E-09 
  63201.5714     0.28500E-09 
  63233.8336     0.29519E-09 
  63266.0958     0.30593E-09 
  63298.3579     0.31724E-09 
  63330.6201     0.32912E-09 
  63362.8822     0.34158E-09 
  63395.1444     0.35463E-09 
  63427.4066     0.36828E-09 
  63459.6687     0.38253E-09 
  63491.9309     0.39740E-09 
  63524.1930     0.41289E-09 
  63556.4552     0.42902E-09 
  63588.7174     0.44578E-09 
  63620.9795     0.46319E-09 
  63653.2417     0.48127E-09 
  63685.5038     0.50001E-09 
  63717.7660     0.51943E-09 
  63750.0282     0.53954E-09 
  63782.2903     0.56035E-09 
  63814.5525     0.58187E-09 
  63846.8146     0.60410E-09 
  63879.0768     0.62707E-09 
  63911.3390     0.65078E-09 
  63943.6011     0.67524E-09 
  63975.8633     0.70046E-09 
  64008.1254     0.72646E-09 
  64040.3876     0.75324E-09 
  64072.6498     0.78083E-09 
  64104.9119     0.80922E-09 
  64137.1741     0.83844E-09 
  64169.4362     0.86849E-09 
  64201.6984     0.89938E-09 
  64233.9606     0.93114E-09 
  64266.2227     0.96377E-09 
  64298.4849     0.99729E-09 
  64330.7470     0.10317E-08 
  64363.0092     0.10670E-08 
  64395.2714     0.11033E-08 
  64427.5335     0.11405E-08 
  64459.7957     0.11787E-08 
  64492.0578     0.12178E-08 
  64524.3200     0.12579E-08 
  64556.5822     0.12991E-08 
  64588.8443     0.13412E-08 
  64621.1065     0.13844E-08 
  64653.3686     0.14286E-08 
  64685.6308     0.14739E-08 
  64717.8930     0.15203E-08 
  64750.1551     0.15677E-08 
  64782.4173     0.16163E-08 
  64814.6794     0.16660E-08 
  64846.9416     0.17169E-08 
  64879.2038     0.17689E-08 
  64911.4659     0.18221E-08 
  64943.7281     0.18766E-08 
  64975.9902     0.19322E-08 
  65008.2524     0.19891E-08 
  65040.5146     0.20473E-08 
  65072.7767     0.21067E-08 
  65105.0389     0.21674E-08 
  65137.3010     0.22295E-08 
  65169.5632     0.22929E-08 
  65201.8254     0.23576E-08 
  65234.0875     0.24238E-08 
  65266.3497     0.24913E-08 
  65298.6118     0.25603E-08 
  65330.8740     0.26307E-08 
  65363.1362     0.27026E-08 
  65395.3983     0.27760E-08 
  65427.6605     0.28509E-08 
  65459.9226     0.29273E-08 
  65492.1848     0.30053E-08 
  65524.4470     0.30849E-08 
  65556.7091     0.31660E-08 
  65588.9713     0.32489E-08 
  65621.2334     0.33333E-08 
  65653.4956     0.34195E-08 
  65685.7578     0.35073E-08 
  65718.0199     0.35969E-08 
  65750.2821     0.36883E-08 
  65782.5442     0.37814E-08 
  65814.8064     0.38764E-08 
  65847.0686     0.39732E-08 
  65879.3307     0.40719E-08 
  65911.5929     0.41724E-08 
  65943.8550     0.42749E-08 
  65976.1172     0.43793E-08 
  66008.3794     0.44858E-08 
  66040.6415     0.45942E-08 
  66072.9037     0.47047E-08 
  66105.1658     0.48172E-08 
  66137.4280     0.49318E-08 
  66169.6902     0.50486E-08 
  66201.9523     0.51675E-08 
  66234.2145     0.52886E-08 
  66266.4766     0.54120E-08 
  66298.7388     0.55376E-08 
  66331.0010     0.56655E-08 
  66363.2631     0.57957E-08 
  66395.5253     0.59282E-08 
  66427.7874     0.60632E-08 
  66460.0496     0.62006E-08 
  66492.3118     0.63404E-08 
  66524.5739     0.64827E-08 
  66556.8361     0.66276E-08 
  66589.0982     0.67750E-08 
  66621.3604     0.69250E-08 
  66653.6226     0.70776E-08 
  66685.8847     0.72329E-08 
  66718.1469     0.73910E-08 
  66750.4090     0.75517E-08 
  66782.6712     0.77153E-08 
  66814.9334     0.78817E-08 
  66847.1955     0.80509E-08 
  66879.4577     0.82230E-08 
  66911.7198     0.83981E-08 
  66943.9820     0.85761E-08 
  66976.2442     0.87572E-08 
  67008.5063     0.89413E-08 
  67040.7685     0.91285E-08 
  67073.0306     0.93189E-08 
  67105.2928     0.95124E-08 
  67137.5550     0.97092E-08 
  67169.8171     0.99092E-08 
  67202.0793     0.10113E-07 
  67234.3414     0.10319E-07 
  67266.6036     0.10529E-07 
  67298.8658     0.10743E-07 
  67331.1279     0.10960E-07 
  67363.3901     0.11180E-07 
  67395.6522     0.11404E-07 
  67427.9144     0.11632E-07 
  67460.1766     0.11864E-07 
  67492.4387     0.12099E-07 
  67524.7009     0.12337E-07 
  67556.9630     0.12580E-07 
  67589.2252     0.12827E-07 
  67621.4874     0.13077E-07 
  67653.7495     0.13331E-07 
  67686.0117     0.13590E-07 
  67718.2738     0.13852E-07 
  67750.5360     0.14119E-07 
  67782.7982     0.14389E-07 
  67815.0603     0.14664E-07 
  67847.3225     0.14943E-07 
  67879.5846     0.15226E-07 
  67911.8468     0.15514E-07 
  67944.1090     0.15806E-07 
  67976.3711     0.16103E-07 
  68008.6333     0.16404E-07 
  68040.8954     0.16709E-07 
  68073.1576     0.17020E-07 
  68105.4198     0.17334E-07 
  68137.6819     0.17654E-07 
  68169.9441     0.17978E-07 
  68202.2062     0.18307E-07 
  68234.4684     0.18641E-07 
  68266.7306     0.18980E-07 
  68298.9927     0.19324E-07 
  68331.2549     0.19673E-07 
  68363.5170     0.20027E-07 
  68395.7792     0.20386E-07 
  68428.0414     0.20751E-07 
  68460.3035     0.21120E-07 
  68492.5657     0.21495E-07 
  68524.8278     0.21875E-07 
  68557.0900     0.22261E-07 
  68589.3522     0.22652E-07 
  68621.6143     0.23049E-07 
  68653.8765     0.23451E-07 
  68686.1386     0.23859E-07 
  68718.4008     0.24273E-07 
  68750.6630     0.24693E-07 
  68782.9251     0.25118E-07 
  68815.1873     0.25549E-07 
  68847.4494     0.25986E-07 
  68879.7116     0.26429E-07 
  68911.9738     0.26879E-07 
  68944.2359     0.27334E-07 
  68976.4981     0.27795E-07 
  69008.7602     0.28263E-07 
  69041.0224     0.28737E-07 
  69073.2846     0.29217E-07 
  69105.5467     0.29704E-07 
  69137.8089     0.30198E-07 
  69170.0710     0.30697E-07 
  69202.3332     0.31204E-07 
  69234.5954     0.31717E-07 
  69266.8575     0.32237E-07 
  69299.1197     0.32763E-07 
  69331.3818     0.33297E-07 
  69363.6440     0.33837E-07 
  69395.9062     0.34384E-07 
  69428.1683     0.34939E-07 
  69460.4305     0.35500E-07 
  69492.6926     0.36069E-07 
  69524.9548     0.36645E-07 
  69557.2170     0.37228E-07 
  69589.4791     0.37818E-07 
  69621.7413     0.38416E-07 
  69654.0034     0.39021E-07 
  69686.2656     0.39634E-07 
  69718.5278     0.40254E-07 
  69750.7899     0.40882E-07 
  69783.0521     0.41518E-07 
  69815.3142     0.42161E-07 
  69847.5764     0.42812E-07 
  69879.8386     0.43471E-07 
  69912.1007     0.44138E-07 
  69944.3629     0.44813E-07 
  69976.6250     0.45496E-07 
  70008.8872     0.46187E-07 
  70041.1494     0.46887E-07 
  70073.4115     0.47594E-07 
  70105.6737     0.48310E-07 
  70137.9358     0.49034E-07 
  70170.1980     0.49767E-07 
  70202.4602     0.50508E-07 
  70234.7223     0.51258E-07 
  70266.9845     0.52016E-07 
  70299.2466     0.52783E-07 
  70331.5088     0.53558E-07 
  70363.7710     0.54342E-07 
  70396.0331     0.55135E-07 
  70428.2953     0.55937E-07 
  70460.5574     0.56748E-07 
  70492.8196     0.57568E-07 
  70525.0818     0.58397E-07 
  70557.3439     0.59235E-07 
  70589.6061     0.60082E-07 
  70621.8682     0.60938E-07 
  70654.1304     0.61804E-07 
  70686.3926     0.62679E-07 
  70718.6547     0.63563E-07 
  70750.9169     0.64457E-07 
  70783.1790     0.65360E-07 
  70815.4412     0.66272E-07 
  70847.7034     0.67195E-07 
  70879.9655     0.68126E-07 
  70912.2277     0.69068E-07 
  70944.4898     0.70019E-07 
  70976.7520     0.70980E-07 
  71009.0142     0.71951E-07 
  71041.2763     0.72931E-07 
  71073.5385     0.73922E-07 
  71105.8006     0.74922E-07 
  71138.0628     0.75933E-07 
  71170.3250     0.76953E-07 
  71202.5871     0.77984E-07 
  71234.8493     0.79025E-07 
  71267.1114     0.80076E-07 
  71299.3736     0.81137E-07 
  71331.6358     0.82208E-07 
  71363.8979     0.83290E-07 
  71396.1601     0.84382E-07 
  71428.4222     0.85484E-07 
  71460.6844     0.86597E-07 
  71492.9466     0.87721E-07 
  71525.2087     0.88854E-07 
  71557.4709     0.89999E-07 
  71589.7330     0.91154E-07 
  71621.9952     0.92319E-07 
  71654.2574     0.93495E-07 
  71686.5195     0.94682E-07 
  71718.7817     0.95879E-07 
  71751.0438     0.97088E-07 
  71783.3060     0.98307E-07 
  71815.5682     0.99536E-07 
  71847.8303     0.10078E-06 
  71880.0925     0.10203E-06 
  71912.3546     0.10329E-06 
  71944.6168     0.10456E-06 
  71976.8790     0.10585E-06 
  72009.1411     0.10714E-06 
  72041.4033     0.10845E-06 
  72073.6654     0.10977E-06 
  72105.9276     0.11109E-06 
  72138.1898     0.11243E-06 
  72170.4519     0.11378E-06 
  72202.7141     0.11514E-06 
  72234.9762     0.11652E-06 
  72267.2384     0.11790E-06 
  72299.5006     0.11929E-06 
  72331.7627     0.12070E-06 
  72364.0249     0.12212E-06 
  72396.2870     0.12355E-06 
  72428.5492     0.12498E-06 
  72460.8114     0.12643E-06 
  72493.0735     0.12790E-06 
  72525.3357     0.12937E-06 
  72557.5978     0.13085E-06 
  72589.8600     0.13235E-06 
