  32262.1600     0.22494E-03 
  32294.4222     0.22759E-03 
  32326.6843     0.23026E-03 
  32358.9465     0.23294E-03 
  32391.2086     0.23565E-03 
  32423.4708     0.23838E-03 
  32455.7330     0.24113E-03 
  32487.9951     0.24390E-03 
  32520.2573     0.24668E-03 
  32552.5194     0.24949E-03 
  32584.7816     0.25232E-03 
  32617.0438     0.25517E-03 
  32649.3059     0.25804E-03 
  32681.5681     0.26093E-03 
  32713.8302     0.26384E-03 
  32746.0924     0.26677E-03 
  32778.3546     0.26972E-03 
  32810.6167     0.27269E-03 
  32842.8789     0.27568E-03 
  32875.1410     0.27869E-03 
  32907.4032     0.28172E-03 
  32939.6654     0.28477E-03 
  32971.9275     0.28784E-03 
  33004.1897     0.29093E-03 
  33036.4518     0.29404E-03 
  33068.7140     0.29717E-03 
  33100.9762     0.30032E-03 
  33133.2383     0.30349E-03 
  33165.5005     0.30668E-03 
  33197.7626     0.30988E-03 
  33230.0248     0.31311E-03 
  33262.2870     0.31636E-03 
  33294.5491     0.31962E-03 
  33326.8113     0.32291E-03 
  33359.0734     0.32621E-03 
  33391.3356     0.32953E-03 
  33423.5978     0.33288E-03 
  33455.8599     0.33624E-03 
  33488.1221     0.33962E-03 
  33520.3842     0.34301E-03 
  33552.6464     0.34643E-03 
  33584.9086     0.34987E-03 
  33617.1707     0.35332E-03 
  33649.4329     0.35679E-03 
  33681.6950     0.36028E-03 
  33713.9572     0.36379E-03 
  33746.2194     0.36731E-03 
  33778.4815     0.37086E-03 
  33810.7437     0.37442E-03 
  33843.0058     0.37800E-03 
  33875.2680     0.38159E-03 
  33907.5302     0.38521E-03 
  33939.7923     0.38884E-03 
  33972.0545     0.39249E-03 
  34004.3166     0.39615E-03 
  34036.5788     0.39983E-03 
  34068.8410     0.40353E-03 
  34101.1031     0.40724E-03 
  34133.3653     0.41098E-03 
  34165.6274     0.41472E-03 
  34197.8896     0.41849E-03 
  34230.1518     0.42227E-03 
  34262.4139     0.42606E-03 
  34294.6761     0.42987E-03 
  34326.9382     0.43370E-03 
  34359.2004     0.43754E-03 
  34391.4626     0.44139E-03 
  34423.7247     0.44527E-03 
  34455.9869     0.44915E-03 
  34488.2490     0.45305E-03 
  34520.5112     0.45697E-03 
  34552.7734     0.46090E-03 
  34585.0355     0.46484E-03 
  34617.2977     0.46880E-03 
  34649.5598     0.47277E-03 
  34681.8220     0.47675E-03 
  34714.0842     0.48075E-03 
  34746.3463     0.48476E-03 
  34778.6085     0.48878E-03 
  34810.8706     0.49282E-03 
  34843.1328     0.49687E-03 
  34875.3950     0.50093E-03 
  34907.6571     0.50500E-03 
  34939.9193     0.50909E-03 
  34972.1814     0.51319E-03 
  35004.4436     0.51730E-03 
  35036.7058     0.52142E-03 
  35068.9679     0.52555E-03 
  35101.2301     0.52969E-03 
  35133.4922     0.53384E-03 
  35165.7544     0.53800E-03 
  35198.0166     0.54217E-03 
  35230.2787     0.54636E-03 
  35262.5409     0.55055E-03 
  35294.8030     0.55475E-03 
  35327.0652     0.55896E-03 
  35359.3274     0.56318E-03 
  35391.5895     0.56741E-03 
  35423.8517     0.57165E-03 
  35456.1138     0.57589E-03 
  35488.3760     0.58015E-03 
  35520.6382     0.58441E-03 
  35552.9003     0.58868E-03 
  35585.1625     0.59295E-03 
  35617.4246     0.59723E-03 
  35649.6868     0.60152E-03 
  35681.9490     0.60582E-03 
  35714.2111     0.61012E-03 
  35746.4733     0.61443E-03 
  35778.7354     0.61874E-03 
  35810.9976     0.62306E-03 
  35843.2598     0.62739E-03 
  35875.5219     0.63172E-03 
  35907.7841     0.63605E-03 
  35940.0462     0.64039E-03 
  35972.3084     0.64473E-03 
  36004.5706     0.64908E-03 
  36036.8327     0.65343E-03 
  36069.0949     0.65779E-03 
  36101.3570     0.66214E-03 
  36133.6192     0.66650E-03 
  36165.8814     0.67086E-03 
  36198.1435     0.67523E-03 
  36230.4057     0.67959E-03 
  36262.6678     0.68396E-03 
  36294.9300     0.68833E-03 
  36327.1922     0.69270E-03 
  36359.4543     0.69707E-03 
  36391.7165     0.70144E-03 
  36423.9786     0.70581E-03 
  36456.2408     0.71019E-03 
  36488.5030     0.71456E-03 
  36520.7651     0.71893E-03 
  36553.0273     0.72330E-03 
  36585.2894     0.72766E-03 
  36617.5516     0.73203E-03 
  36649.8138     0.73640E-03 
  36682.0759     0.74076E-03 
  36714.3381     0.74512E-03 
  36746.6002     0.74948E-03 
  36778.8624     0.75383E-03 
  36811.1246     0.75818E-03 
  36843.3867     0.76253E-03 
  36875.6489     0.76687E-03 
  36907.9110     0.77121E-03 
  36940.1732     0.77555E-03 
  36972.4354     0.77988E-03 
  37004.6975     0.78421E-03 
  37036.9597     0.78853E-03 
  37069.2218     0.79284E-03 
  37101.4840     0.79715E-03 
  37133.7462     0.80145E-03 
  37166.0083     0.80575E-03 
  37198.2705     0.81003E-03 
  37230.5326     0.81432E-03 
  37262.7948     0.81859E-03 
  37295.0570     0.82286E-03 
  37327.3191     0.82711E-03 
  37359.5813     0.83136E-03 
  37391.8434     0.83560E-03 
  37424.1056     0.83984E-03 
  37456.3678     0.84406E-03 
  37488.6299     0.84827E-03 
  37520.8921     0.85248E-03 
  37553.1542     0.85667E-03 
  37585.4164     0.86085E-03 
  37617.6786     0.86502E-03 
  37649.9407     0.86918E-03 
  37682.2029     0.87333E-03 
  37714.4650     0.87747E-03 
  37746.7272     0.88160E-03 
  37778.9894     0.88571E-03 
  37811.2515     0.88981E-03 
  37843.5137     0.89390E-03 
  37875.7758     0.89798E-03 
  37908.0380     0.90204E-03 
  37940.3002     0.90609E-03 
  37972.5623     0.91012E-03 
  38004.8245     0.91414E-03 
  38037.0866     0.91815E-03 
  38069.3488     0.92214E-03 
  38101.6110     0.92612E-03 
  38133.8731     0.93008E-03 
  38166.1353     0.93402E-03 
  38198.3974     0.93795E-03 
  38230.6596     0.94186E-03 
  38262.9218     0.94576E-03 
  38295.1839     0.94964E-03 
  38327.4461     0.95350E-03 
  38359.7082     0.95734E-03 
  38391.9704     0.96117E-03 
  38424.2326     0.96498E-03 
  38456.4947     0.96877E-03 
  38488.7569     0.97254E-03 
  38521.0190     0.97630E-03 
  38553.2812     0.98003E-03 
  38585.5434     0.98375E-03 
  38617.8055     0.98744E-03 
  38650.0677     0.99112E-03 
  38682.3298     0.99478E-03 
  38714.5920     0.99841E-03 
  38746.8542     0.10020E-02 
  38779.1163     0.10056E-02 
  38811.3785     0.10092E-02 
  38843.6406     0.10128E-02 
  38875.9028     0.10163E-02 
  38908.1650     0.10198E-02 
  38940.4271     0.10233E-02 
  38972.6893     0.10267E-02 
  39004.9514     0.10302E-02 
  39037.2136     0.10336E-02 
  39069.4758     0.10370E-02 
  39101.7379     0.10404E-02 
  39134.0001     0.10437E-02 
  39166.2622     0.10471E-02 
  39198.5244     0.10504E-02 
  39230.7866     0.10536E-02 
  39263.0487     0.10569E-02 
  39295.3109     0.10601E-02 
  39327.5730     0.10633E-02 
  39359.8352     0.10665E-02 
  39392.0974     0.10697E-02 
  39424.3595     0.10728E-02 
  39456.6217     0.10759E-02 
  39488.8838     0.10790E-02 
  39521.1460     0.10820E-02 
  39553.4082     0.10850E-02 
  39585.6703     0.10880E-02 
  39617.9325     0.10910E-02 
  39650.1946     0.10939E-02 
  39682.4568     0.10969E-02 
  39714.7190     0.10998E-02 
  39746.9811     0.11026E-02 
  39779.2433     0.11055E-02 
  39811.5054     0.11083E-02 
  39843.7676     0.11110E-02 
  39876.0298     0.11138E-02 
  39908.2919     0.11165E-02 
  39940.5541     0.11192E-02 
  39972.8162     0.11219E-02 
  40005.0784     0.11245E-02 
  40037.3406     0.11271E-02 
  40069.6027     0.11297E-02 
  40101.8649     0.11322E-02 
  40134.1270     0.11348E-02 
  40166.3892     0.11372E-02 
  40198.6514     0.11397E-02 
  40230.9135     0.11421E-02 
  40263.1757     0.11445E-02 
  40295.4378     0.11469E-02 
  40327.7000     0.11492E-02 
  40359.9622     0.11515E-02 
  40392.2243     0.11538E-02 
  40424.4865     0.11561E-02 
  40456.7486     0.11583E-02 
  40489.0108     0.11605E-02 
  40521.2730     0.11626E-02 
  40553.5351     0.11647E-02 
  40585.7973     0.11668E-02 
  40618.0594     0.11689E-02 
  40650.3216     0.11709E-02 
  40682.5838     0.11729E-02 
  40714.8459     0.11749E-02 
  40747.1081     0.11768E-02 
  40779.3702     0.11787E-02 
  40811.6324     0.11806E-02 
  40843.8946     0.11824E-02 
  40876.1567     0.11842E-02 
  40908.4189     0.11860E-02 
  40940.6810     0.11877E-02 
  40972.9432     0.11894E-02 
  41005.2054     0.11911E-02 
  41037.4675     0.11927E-02 
  41069.7297     0.11943E-02 
  41101.9918     0.11959E-02 
  41134.2540     0.11974E-02 
  41166.5162     0.11989E-02 
  41198.7783     0.12004E-02 
  41231.0405     0.12018E-02 
  41263.3026     0.12032E-02 
  41295.5648     0.12046E-02 
  41327.8270     0.12060E-02 
  41360.0891     0.12073E-02 
  41392.3513     0.12085E-02 
  41424.6134     0.12098E-02 
  41456.8756     0.12110E-02 
  41489.1378     0.12121E-02 
  41521.3999     0.12133E-02 
  41553.6621     0.12144E-02 
  41585.9242     0.12155E-02 
  41618.1864     0.12165E-02 
  41650.4486     0.12175E-02 
  41682.7107     0.12185E-02 
  41714.9729     0.12194E-02 
  41747.2350     0.12203E-02 
  41779.4972     0.12212E-02 
  41811.7594     0.12220E-02 
  41844.0215     0.12228E-02 
  41876.2837     0.12236E-02 
  41908.5458     0.12243E-02 
  41940.8080     0.12250E-02 
  41973.0702     0.12256E-02 
  42005.3323     0.12263E-02 
  42037.5945     0.12269E-02 
  42069.8566     0.12274E-02 
  42102.1188     0.12280E-02 
  42134.3810     0.12284E-02 
  42166.6431     0.12289E-02 
  42198.9053     0.12293E-02 
  42231.1674     0.12297E-02 
  42263.4296     0.12301E-02 
  42295.6918     0.12304E-02 
  42327.9539     0.12307E-02 
  42360.2161     0.12310E-02 
  42392.4782     0.12312E-02 
  42424.7404     0.12314E-02 
  42457.0026     0.12315E-02 
  42489.2647     0.12316E-02 
  42521.5269     0.12317E-02 
  42553.7890     0.12318E-02 
  42586.0512     0.12318E-02 
  42618.3134     0.12318E-02 
  42650.5755     0.12318E-02 
  42682.8377     0.12317E-02 
  42715.0998     0.12316E-02 
  42747.3620     0.12314E-02 
  42779.6242     0.12312E-02 
  42811.8863     0.12310E-02 
  42844.1485     0.12308E-02 
  42876.4106     0.12305E-02 
  42908.6728     0.12302E-02 
  42940.9350     0.12299E-02 
  42973.1971     0.12295E-02 
  43005.4593     0.12291E-02 
  43037.7214     0.12287E-02 
  43069.9836     0.12282E-02 
  43102.2458     0.12277E-02 
  43134.5079     0.12272E-02 
  43166.7701     0.12266E-02 
  43199.0322     0.12260E-02 
  43231.2944     0.12254E-02 
  43263.5566     0.12247E-02 
  43295.8187     0.12240E-02 
  43328.0809     0.12233E-02 
  43360.3430     0.12225E-02 
  43392.6052     0.12218E-02 
  43424.8674     0.12209E-02 
  43457.1295     0.12201E-02 
  43489.3917     0.12192E-02 
  43521.6538     0.12183E-02 
  43553.9160     0.12174E-02 
  43586.1782     0.12164E-02 
  43618.4403     0.12154E-02 
  43650.7025     0.12144E-02 
  43682.9646     0.12133E-02 
  43715.2268     0.12122E-02 
  43747.4890     0.12111E-02 
  43779.7511     0.12100E-02 
  43812.0133     0.12088E-02 
  43844.2754     0.12076E-02 
  43876.5376     0.12063E-02 
  43908.7998     0.12051E-02 
  43941.0619     0.12038E-02 
  43973.3241     0.12024E-02 
  44005.5862     0.12011E-02 
  44037.8484     0.11997E-02 
  44070.1106     0.11983E-02 
  44102.3727     0.11969E-02 
  44134.6349     0.11954E-02 
  44166.8970     0.11939E-02 
  44199.1592     0.11924E-02 
  44231.4214     0.11908E-02 
  44263.6835     0.11893E-02 
  44295.9457     0.11877E-02 
  44328.2078     0.11860E-02 
  44360.4700     0.11844E-02 
  44392.7322     0.11827E-02 
  44424.9943     0.11810E-02 
  44457.2565     0.11792E-02 
  44489.5186     0.11775E-02 
  44521.7808     0.11757E-02 
  44554.0430     0.11739E-02 
  44586.3051     0.11720E-02 
  44618.5673     0.11702E-02 
  44650.8294     0.11683E-02 
  44683.0916     0.11664E-02 
  44715.3538     0.11644E-02 
  44747.6159     0.11624E-02 
  44779.8781     0.11605E-02 
  44812.1402     0.11584E-02 
  44844.4024     0.11564E-02 
  44876.6646     0.11543E-02 
  44908.9267     0.11522E-02 
  44941.1889     0.11501E-02 
  44973.4510     0.11480E-02 
  45005.7132     0.11458E-02 
  45037.9754     0.11437E-02 
  45070.2375     0.11415E-02 
  45102.4997     0.11392E-02 
  45134.7618     0.11370E-02 
  45167.0240     0.11347E-02 
  45199.2862     0.11324E-02 
  45231.5483     0.11301E-02 
  45263.8105     0.11278E-02 
  45296.0726     0.11254E-02 
  45328.3348     0.11230E-02 
  45360.5970     0.11206E-02 
  45392.8591     0.11182E-02 
  45425.1213     0.11158E-02 
  45457.3834     0.11133E-02 
  45489.6456     0.11108E-02 
  45521.9078     0.11083E-02 
  45554.1699     0.11058E-02 
  45586.4321     0.11032E-02 
  45618.6942     0.11007E-02 
  45650.9564     0.10981E-02 
  45683.2186     0.10955E-02 
  45715.4807     0.10929E-02 
  45747.7429     0.10902E-02 
  45780.0050     0.10876E-02 
  45812.2672     0.10849E-02 
  45844.5294     0.10822E-02 
  45876.7915     0.10795E-02 
  45909.0537     0.10768E-02 
  45941.3158     0.10740E-02 
  45973.5780     0.10712E-02 
  46005.8402     0.10685E-02 
  46038.1023     0.10657E-02 
  46070.3645     0.10629E-02 
  46102.6266     0.10600E-02 
  46134.8888     0.10572E-02 
  46167.1510     0.10543E-02 
  46199.4131     0.10514E-02 
  46231.6753     0.10485E-02 
  46263.9374     0.10456E-02 
  46296.1996     0.10427E-02 
  46328.4618     0.10397E-02 
  46360.7239     0.10368E-02 
  46392.9861     0.10338E-02 
  46425.2482     0.10308E-02 
  46457.5104     0.10278E-02 
  46489.7726     0.10248E-02 
  46522.0347     0.10218E-02 
  46554.2969     0.10187E-02 
  46586.5590     0.10157E-02 
  46618.8212     0.10126E-02 
  46651.0834     0.10095E-02 
  46683.3455     0.10064E-02 
  46715.6077     0.10033E-02 
  46747.8698     0.10002E-02 
  46780.1320     0.99709E-03 
  46812.3942     0.99394E-03 
  46844.6563     0.99079E-03 
  46876.9185     0.98762E-03 
  46909.1806     0.98444E-03 
  46941.4428     0.98125E-03 
  46973.7050     0.97805E-03 
  47005.9671     0.97484E-03 
  47038.2293     0.97162E-03 
  47070.4914     0.96839E-03 
  47102.7536     0.96515E-03 
  47135.0158     0.96190E-03 
  47167.2779     0.95863E-03 
  47199.5401     0.95536E-03 
  47231.8022     0.95208E-03 
  47264.0644     0.94879E-03 
  47296.3266     0.94549E-03 
  47328.5887     0.94218E-03 
  47360.8509     0.93887E-03 
  47393.1130     0.93554E-03 
  47425.3752     0.93221E-03 
  47457.6374     0.92887E-03 
  47489.8995     0.92552E-03 
  47522.1617     0.92217E-03 
  47554.4238     0.91880E-03 
  47586.6860     0.91543E-03 
  47618.9482     0.91205E-03 
  47651.2103     0.90867E-03 
  47683.4725     0.90528E-03 
  47715.7346     0.90188E-03 
  47747.9968     0.89848E-03 
  47780.2590     0.89507E-03 
  47812.5211     0.89165E-03 
  47844.7833     0.88823E-03 
  47877.0454     0.88480E-03 
  47909.3076     0.88137E-03 
  47941.5698     0.87793E-03 
  47973.8319     0.87449E-03 
  48006.0941     0.87104E-03 
  48038.3562     0.86759E-03 
  48070.6184     0.86413E-03 
  48102.8806     0.86067E-03 
  48135.1427     0.85721E-03 
  48167.4049     0.85374E-03 
  48199.6670     0.85026E-03 
  48231.9292     0.84679E-03 
  48264.1914     0.84331E-03 
  48296.4535     0.83983E-03 
  48328.7157     0.83634E-03 
  48360.9778     0.83285E-03 
  48393.2400     0.82936E-03 
  48425.5022     0.82587E-03 
  48457.7643     0.82237E-03 
  48490.0265     0.81887E-03 
  48522.2886     0.81538E-03 
  48554.5508     0.81187E-03 
  48586.8130     0.80837E-03 
  48619.0751     0.80486E-03 
  48651.3373     0.80136E-03 
  48683.5994     0.79785E-03 
  48715.8616     0.79434E-03 
  48748.1238     0.79083E-03 
  48780.3859     0.78732E-03 
  48812.6481     0.78381E-03 
  48844.9102     0.78030E-03 
  48877.1724     0.77679E-03 
  48909.4346     0.77328E-03 
  48941.6967     0.76977E-03 
  48973.9589     0.76626E-03 
  49006.2210     0.76275E-03 
  49038.4832     0.75924E-03 
  49070.7454     0.75573E-03 
  49103.0075     0.75222E-03 
  49135.2697     0.74871E-03 
  49167.5318     0.74521E-03 
  49199.7940     0.74170E-03 
  49232.0562     0.73820E-03 
  49264.3183     0.73470E-03 
  49296.5805     0.73120E-03 
  49328.8426     0.72770E-03 
  49361.1048     0.72420E-03 
  49393.3670     0.72071E-03 
  49425.6291     0.71722E-03 
  49457.8913     0.71373E-03 
  49490.1534     0.71024E-03 
  49522.4156     0.70676E-03 
  49554.6778     0.70327E-03 
  49586.9399     0.69980E-03 
  49619.2021     0.69632E-03 
  49651.4642     0.69285E-03 
  49683.7264     0.68938E-03 
  49715.9886     0.68591E-03 
  49748.2507     0.68245E-03 
  49780.5129     0.67899E-03 
  49812.7750     0.67554E-03 
  49845.0372     0.67209E-03 
  49877.2994     0.66864E-03 
  49909.5615     0.66520E-03 
  49941.8237     0.66176E-03 
  49974.0858     0.65833E-03 
  50006.3480     0.65490E-03 
  50038.6102     0.65148E-03 
  50070.8723     0.64806E-03 
  50103.1345     0.64465E-03 
  50135.3966     0.64124E-03 
  50167.6588     0.63783E-03 
  50199.9210     0.63443E-03 
  50232.1831     0.63104E-03 
  50264.4453     0.62765E-03 
  50296.7074     0.62427E-03 
  50328.9696     0.62089E-03 
  50361.2318     0.61752E-03 
  50393.4939     0.61416E-03 
  50425.7561     0.61080E-03 
  50458.0182     0.60744E-03 
  50490.2804     0.60410E-03 
  50522.5426     0.60076E-03 
  50554.8047     0.59742E-03 
  50587.0669     0.59409E-03 
  50619.3290     0.59077E-03 
  50651.5912     0.58746E-03 
  50683.8534     0.58415E-03 
  50716.1155     0.58085E-03 
  50748.3777     0.57755E-03 
  50780.6398     0.57427E-03 
  50812.9020     0.57099E-03 
  50845.1642     0.56771E-03 
  50877.4263     0.56445E-03 
  50909.6885     0.56119E-03 
  50941.9506     0.55794E-03 
  50974.2128     0.55470E-03 
  51006.4750     0.55146E-03 
  51038.7371     0.54823E-03 
  51070.9993     0.54501E-03 
  51103.2614     0.54180E-03 
  51135.5236     0.53860E-03 
  51167.7858     0.53540E-03 
  51200.0479     0.53221E-03 
  51232.3101     0.52903E-03 
  51264.5722     0.52586E-03 
  51296.8344     0.52270E-03 
  51329.0966     0.51954E-03 
  51361.3587     0.51639E-03 
  51393.6209     0.51326E-03 
  51425.8830     0.51013E-03 
  51458.1452     0.50700E-03 
  51490.4074     0.50389E-03 
  51522.6695     0.50079E-03 
  51554.9317     0.49769E-03 
  51587.1938     0.49461E-03 
  51619.4560     0.49153E-03 
  51651.7182     0.48846E-03 
  51683.9803     0.48540E-03 
  51716.2425     0.48235E-03 
  51748.5046     0.47931E-03 
  51780.7668     0.47628E-03 
  51813.0290     0.47326E-03 
  51845.2911     0.47025E-03 
  51877.5533     0.46724E-03 
  51909.8154     0.46425E-03 
  51942.0776     0.46126E-03 
  51974.3398     0.45829E-03 
  52006.6019     0.45532E-03 
  52038.8641     0.45237E-03 
  52071.1262     0.44942E-03 
  52103.3884     0.44648E-03 
  52135.6506     0.44356E-03 
  52167.9127     0.44064E-03 
  52200.1749     0.43773E-03 
  52232.4370     0.43484E-03 
  52264.6992     0.43195E-03 
  52296.9614     0.42907E-03 
  52329.2235     0.42620E-03 
  52361.4857     0.42335E-03 
  52393.7478     0.42050E-03 
  52426.0100     0.41766E-03 
  52458.2722     0.41484E-03 
  52490.5343     0.41202E-03 
  52522.7965     0.40921E-03 
  52555.0586     0.40642E-03 
  52587.3208     0.40363E-03 
  52619.5830     0.40086E-03 
  52651.8451     0.39809E-03 
  52684.1073     0.39534E-03 
  52716.3694     0.39259E-03 
  52748.6316     0.38986E-03 
  52780.8938     0.38713E-03 
  52813.1559     0.38442E-03 
  52845.4181     0.38172E-03 
  52877.6802     0.37903E-03 
  52909.9424     0.37634E-03 
  52942.2046     0.37367E-03 
  52974.4667     0.37101E-03 
  53006.7289     0.36836E-03 
  53038.9910     0.36572E-03 
  53071.2532     0.36310E-03 
  53103.5154     0.36048E-03 
  53135.7775     0.35787E-03 
  53168.0397     0.35527E-03 
  53200.3018     0.35269E-03 
  53232.5640     0.35011E-03 
  53264.8262     0.34755E-03 
  53297.0883     0.34500E-03 
  53329.3505     0.34245E-03 
  53361.6126     0.33992E-03 
  53393.8748     0.33740E-03 
  53426.1370     0.33489E-03 
  53458.3991     0.33239E-03 
  53490.6613     0.32990E-03 
  53522.9234     0.32742E-03 
  53555.1856     0.32496E-03 
  53587.4478     0.32250E-03 
  53619.7099     0.32006E-03 
  53651.9721     0.31762E-03 
  53684.2342     0.31520E-03 
  53716.4964     0.31279E-03 
  53748.7586     0.31038E-03 
  53781.0207     0.30799E-03 
  53813.2829     0.30561E-03 
  53845.5450     0.30324E-03 
  53877.8072     0.30089E-03 
  53910.0694     0.29854E-03 
  53942.3315     0.29620E-03 
  53974.5937     0.29388E-03 
  54006.8558     0.29156E-03 
  54039.1180     0.28926E-03 
  54071.3802     0.28696E-03 
  54103.6423     0.28468E-03 
  54135.9045     0.28241E-03 
  54168.1666     0.28015E-03 
  54200.4288     0.27790E-03 
  54232.6910     0.27566E-03 
  54264.9531     0.27344E-03 
  54297.2153     0.27122E-03 
  54329.4774     0.26901E-03 
  54361.7396     0.26682E-03 
  54394.0018     0.26463E-03 
  54426.2639     0.26246E-03 
  54458.5261     0.26030E-03 
  54490.7882     0.25814E-03 
  54523.0504     0.25600E-03 
  54555.3126     0.25387E-03 
  54587.5747     0.25175E-03 
  54619.8369     0.24964E-03 
  54652.0990     0.24754E-03 
  54684.3612     0.24546E-03 
  54716.6234     0.24338E-03 
  54748.8855     0.24131E-03 
  54781.1477     0.23926E-03 
  54813.4098     0.23721E-03 
  54845.6720     0.23518E-03 
  54877.9342     0.23316E-03 
  54910.1963     0.23114E-03 
  54942.4585     0.22914E-03 
  54974.7206     0.22715E-03 
  55006.9828     0.22517E-03 
  55039.2450     0.22320E-03 
  55071.5071     0.22124E-03 
  55103.7693     0.21929E-03 
  55136.0314     0.21735E-03 
  55168.2936     0.21542E-03 
  55200.5558     0.21350E-03 
  55232.8179     0.21160E-03 
  55265.0801     0.20970E-03 
  55297.3422     0.20781E-03 
  55329.6044     0.20594E-03 
  55361.8666     0.20407E-03 
  55394.1287     0.20221E-03 
  55426.3909     0.20037E-03 
  55458.6530     0.19853E-03 
  55490.9152     0.19671E-03 
  55523.1774     0.19489E-03 
  55555.4395     0.19309E-03 
  55587.7017     0.19130E-03 
  55619.9638     0.18951E-03 
  55652.2260     0.18774E-03 
  55684.4882     0.18598E-03 
  55716.7503     0.18422E-03 
  55749.0125     0.18248E-03 
  55781.2746     0.18075E-03 
  55813.5368     0.17902E-03 
  55845.7990     0.17731E-03 
  55878.0611     0.17561E-03 
  55910.3233     0.17391E-03 
  55942.5854     0.17223E-03 
  55974.8476     0.17056E-03 
  56007.1098     0.16889E-03 
  56039.3719     0.16724E-03 
  56071.6341     0.16560E-03 
  56103.8962     0.16396E-03 
  56136.1584     0.16234E-03 
  56168.4206     0.16073E-03 
  56200.6827     0.15912E-03 
  56232.9449     0.15753E-03 
  56265.2070     0.15594E-03 
  56297.4692     0.15437E-03 
  56329.7314     0.15280E-03 
  56361.9935     0.15124E-03 
  56394.2557     0.14970E-03 
  56426.5178     0.14816E-03 
  56458.7800     0.14663E-03 
  56491.0422     0.14512E-03 
  56523.3043     0.14361E-03 
  56555.5665     0.14211E-03 
  56587.8286     0.14062E-03 
  56620.0908     0.13914E-03 
  56652.3530     0.13767E-03 
  56684.6151     0.13621E-03 
  56716.8773     0.13475E-03 
  56749.1394     0.13331E-03 
  56781.4016     0.13188E-03 
  56813.6638     0.13045E-03 
  56845.9259     0.12904E-03 
  56878.1881     0.12763E-03 
  56910.4502     0.12623E-03 
  56942.7124     0.12485E-03 
  56974.9746     0.12347E-03 
  57007.2367     0.12210E-03 
  57039.4989     0.12074E-03 
  57071.7610     0.11938E-03 
  57104.0232     0.11804E-03 
  57136.2854     0.11671E-03 
  57168.5475     0.11538E-03 
  57200.8097     0.11407E-03 
  57233.0718     0.11276E-03 
  57265.3340     0.11146E-03 
  57297.5962     0.11017E-03 
  57329.8583     0.10889E-03 
  57362.1205     0.10762E-03 
  57394.3826     0.10636E-03 
  57426.6448     0.10510E-03 
  57458.9070     0.10385E-03 
  57491.1691     0.10262E-03 
  57523.4313     0.10139E-03 
  57555.6934     0.10017E-03 
  57587.9556     0.98955E-04 
  57620.2178     0.97752E-04 
  57652.4799     0.96557E-04 
  57684.7421     0.95371E-04 
  57717.0042     0.94193E-04 
  57749.2664     0.93023E-04 
  57781.5286     0.91862E-04 
  57813.7907     0.90709E-04 
  57846.0529     0.89564E-04 
  57878.3150     0.88428E-04 
  57910.5772     0.87299E-04 
  57942.8394     0.86180E-04 
  57975.1015     0.85068E-04 
  58007.3637     0.83964E-04 
  58039.6258     0.82869E-04 
  58071.8880     0.81782E-04 
  58104.1502     0.80702E-04 
  58136.4123     0.79631E-04 
  58168.6745     0.78568E-04 
  58200.9366     0.77513E-04 
  58233.1988     0.76466E-04 
  58265.4610     0.75427E-04 
  58297.7231     0.74396E-04 
  58329.9853     0.73373E-04 
  58362.2474     0.72357E-04 
  58394.5096     0.71350E-04 
  58426.7718     0.70350E-04 
  58459.0339     0.69358E-04 
  58491.2961     0.68374E-04 
  58523.5582     0.67398E-04 
  58555.8204     0.66429E-04 
  58588.0826     0.65469E-04 
  58620.3447     0.64515E-04 
  58652.6069     0.63570E-04 
  58684.8690     0.62632E-04 
  58717.1312     0.61702E-04 
  58749.3934     0.60780E-04 
  58781.6555     0.59865E-04 
  58813.9177     0.58957E-04 
  58846.1798     0.58057E-04 
  58878.4420     0.57165E-04 
  58910.7042     0.56280E-04 
  58942.9663     0.55403E-04 
  58975.2285     0.54533E-04 
  59007.4906     0.53671E-04 
  59039.7528     0.52816E-04 
  59072.0150     0.51969E-04 
  59104.2771     0.51128E-04 
  59136.5393     0.50296E-04 
  59168.8014     0.49470E-04 
  59201.0636     0.48652E-04 
  59233.3258     0.47842E-04 
  59265.5879     0.47038E-04 
  59297.8501     0.46242E-04 
  59330.1122     0.45454E-04 
  59362.3744     0.44672E-04 
  59394.6366     0.43898E-04 
  59426.8987     0.43131E-04 
  59459.1609     0.42371E-04 
  59491.4230     0.41619E-04 
  59523.6852     0.40873E-04 
  59555.9474     0.40135E-04 
  59588.2095     0.39404E-04 
  59620.4717     0.38680E-04 
  59652.7338     0.37964E-04 
  59684.9960     0.37254E-04 
  59717.2582     0.36552E-04 
  59749.5203     0.35857E-04 
  59781.7825     0.35169E-04 
  59814.0446     0.34488E-04 
  59846.3068     0.33814E-04 
  59878.5690     0.33147E-04 
  59910.8311     0.32488E-04 
  59943.0933     0.31835E-04 
  59975.3554     0.31190E-04 
  60007.6176     0.30551E-04 
  60039.8798     0.29920E-04 
  60072.1419     0.29296E-04 
  60104.4041     0.28679E-04 
  60136.6662     0.28069E-04 
  60168.9284     0.27466E-04 
  60201.1906     0.26870E-04 
  60233.4527     0.26282E-04 
  60265.7149     0.25700E-04 
  60297.9770     0.25125E-04 
  60330.2392     0.24558E-04 
  60362.5014     0.23998E-04 
  60394.7635     0.23444E-04 
  60427.0257     0.22898E-04 
  60459.2878     0.22359E-04 
  60491.5500     0.21827E-04 
  60523.8122     0.21303E-04 
  60556.0743     0.20785E-04 
  60588.3365     0.20274E-04 
  60620.5986     0.19771E-04 
  60652.8608     0.19275E-04 
  60685.1230     0.18786E-04 
  60717.3851     0.18304E-04 
  60749.6473     0.17830E-04 
  60781.9094     0.17363E-04 
  60814.1716     0.16903E-04 
  60846.4338     0.16450E-04 
  60878.6959     0.16004E-04 
  60910.9581     0.15566E-04 
  60943.2202     0.15135E-04 
  60975.4824     0.14712E-04 
  61007.7446     0.14296E-04 
  61040.0067     0.13887E-04 
  61072.2689     0.13486E-04 
  61104.5310     0.13092E-04 
  61136.7932     0.12706E-04 
  61169.0554     0.12327E-04 
  61201.3175     0.11956E-04 
  61233.5797     0.11592E-04 
  61265.8418     0.11236E-04 
  61298.1040     0.10888E-04 
  61330.3662     0.10547E-04 
  61362.6283     0.10214E-04 
  61394.8905     0.98885E-05 
  61427.1526     0.95710E-05 
  61459.4148     0.92614E-05 
  61491.6770     0.89597E-05 
  61523.9391     0.86658E-05 
  61556.2013     0.83800E-05 
  61588.4634     0.81021E-05 
  61620.7256     0.78324E-05 
  61652.9878     0.75707E-05 
  61685.2499     0.73172E-05 
  61717.5121     0.70720E-05 
  61749.7742     0.68350E-05 
  61782.0364     0.66064E-05 
  61814.2986     0.63862E-05 
  61846.5607     0.61744E-05 
  61878.8229     0.59712E-05 
  61911.0850     0.57766E-05 
  61943.3472     0.55906E-05 
  61975.6094     0.54133E-05 
  62007.8715     0.52449E-05 
  62040.1337     0.50853E-05 
  62072.3958     0.49346E-05 
  62104.6580     0.47930E-05 
  62136.9202     0.46605E-05 
  62169.1823     0.45371E-05 
  62201.4445     0.44231E-05 
  62233.7066     0.43183E-05 
  62265.9688     0.42230E-05 
  62298.2310     0.41373E-05 
  62330.4931     0.40611E-05 
  62362.7553     0.39947E-05 
  62395.0174     0.39381E-05 
  62427.2796     0.38914E-05 
  62459.5418     0.38547E-05 
  62491.8039     0.38282E-05 
  62524.0661     0.38118E-05 
  62556.3282     0.38058E-05 
  62588.5904     0.38103E-05 
  62620.8526     0.38253E-05 
  62653.1147     0.38510E-05 
  62685.3769     0.38875E-05 
  62717.6390     0.39349E-05 
  62749.9012     0.39934E-05 
  62782.1634     0.40630E-05 
  62814.4255     0.41440E-05 
  62846.6877     0.42364E-05 
  62878.9498     0.43405E-05 
  62911.2120     0.44562E-05 
  62943.4742     0.45838E-05 
  62975.7363     0.47235E-05 
  63007.9985     0.48753E-05 
  63040.2606     0.50395E-05 
  63072.5228     0.52161E-05 
  63104.7850     0.54054E-05 
  63137.0471     0.56075E-05 
  63169.3093     0.58227E-05 
  63201.5714     0.60509E-05 
  63233.8336     0.62925E-05 
  63266.0958     0.65477E-05 
  63298.3579     0.68165E-05 
  63330.6201     0.70992E-05 
  63362.8822     0.73960E-05 
  63395.1444     0.77071E-05 
  63427.4066     0.80326E-05 
  63459.6687     0.83729E-05 
  63491.9309     0.87280E-05 
  63524.1930     0.90982E-05 
  63556.4552     0.94838E-05 
  63588.7174     0.98849E-05 
  63620.9795     0.10302E-04 
  63653.2417     0.10735E-04 
  63685.5038     0.11184E-04 
  63717.7660     0.11649E-04 
  63750.0282     0.12132E-04 
  63782.2903     0.12631E-04 
  63814.5525     0.13147E-04 
  63846.8146     0.13681E-04 
  63879.0768     0.14233E-04 
  63911.3390     0.14803E-04 
  63943.6011     0.15391E-04 
  63975.8633     0.15997E-04 
  64008.1254     0.16623E-04 
  64040.3876     0.17267E-04 
  64072.6498     0.17931E-04 
  64104.9119     0.18615E-04 
  64137.1741     0.19319E-04 
  64169.4362     0.20043E-04 
  64201.6984     0.20788E-04 
  64233.9606     0.21554E-04 
  64266.2227     0.22341E-04 
  64298.4849     0.23150E-04 
  64330.7470     0.23981E-04 
  64363.0092     0.24834E-04 
  64395.2714     0.25710E-04 
  64427.5335     0.26609E-04 
  64459.7957     0.27532E-04 
  64492.0578     0.28478E-04 
  64524.3200     0.29449E-04 
  64556.5822     0.30444E-04 
  64588.8443     0.31464E-04 
  64621.1065     0.32509E-04 
  64653.3686     0.33581E-04 
  64685.6308     0.34678E-04 
  64717.8930     0.35803E-04 
  64750.1551     0.36954E-04 
  64782.4173     0.38133E-04 
  64814.6794     0.39339E-04 
  64846.9416     0.40575E-04 
  64879.2038     0.41839E-04 
  64911.4659     0.43132E-04 
  64943.7281     0.44455E-04 
  64975.9902     0.45809E-04 
  65008.2524     0.47193E-04 
  65040.5146     0.48609E-04 
  65072.7767     0.50056E-04 
  65105.0389     0.51536E-04 
  65137.3010     0.53048E-04 
  65169.5632     0.54594E-04 
  65201.8254     0.56174E-04 
  65234.0875     0.57788E-04 
  65266.3497     0.59437E-04 
  65298.6118     0.61122E-04 
  65330.8740     0.62843E-04 
  65363.1362     0.64601E-04 
  65395.3983     0.66396E-04 
  65427.6605     0.68229E-04 
  65459.9226     0.70101E-04 
  65492.1848     0.72012E-04 
  65524.4470     0.73962E-04 
  65556.7091     0.75953E-04 
  65588.9713     0.77985E-04 
  65621.2334     0.80059E-04 
  65653.4956     0.82176E-04 
  65685.7578     0.84335E-04 
  65718.0199     0.86538E-04 
  65750.2821     0.88786E-04 
  65782.5442     0.91079E-04 
  65814.8064     0.93418E-04 
  65847.0686     0.95803E-04 
  65879.3307     0.98236E-04 
  65911.5929     0.10072E-03 
  65943.8550     0.10325E-03 
  65976.1172     0.10583E-03 
  66008.3794     0.10846E-03 
  66040.6415     0.11114E-03 
  66072.9037     0.11387E-03 
  66105.1658     0.11666E-03 
  66137.4280     0.11950E-03 
  66169.6902     0.12239E-03 
  66201.9523     0.12534E-03 
  66234.2145     0.12835E-03 
  66266.4766     0.13141E-03 
  66298.7388     0.13453E-03 
  66331.0010     0.13771E-03 
  66363.2631     0.14095E-03 
  66395.5253     0.14425E-03 
  66427.7874     0.14762E-03 
  66460.0496     0.15104E-03 
  66492.3118     0.15453E-03 
  66524.5739     0.15808E-03 
  66556.8361     0.16170E-03 
  66589.0982     0.16538E-03 
  66621.3604     0.16914E-03 
  66653.6226     0.17296E-03 
  66685.8847     0.17685E-03 
  66718.1469     0.18081E-03 
  66750.4090     0.18484E-03 
  66782.6712     0.18894E-03 
  66814.9334     0.19312E-03 
  66847.1955     0.19738E-03 
  66879.4577     0.20171E-03 
  66911.7198     0.20611E-03 
  66943.9820     0.21060E-03 
  66976.2442     0.21516E-03 
  67008.5063     0.21980E-03 
  67040.7685     0.22453E-03 
  67073.0306     0.22934E-03 
  67105.2928     0.23423E-03 
  67137.5550     0.23921E-03 
  67169.8171     0.24427E-03 
  67202.0793     0.24942E-03 
  67234.3414     0.25466E-03 
  67266.6036     0.25999E-03 
  67298.8658     0.26541E-03 
  67331.1279     0.27092E-03 
  67363.3901     0.27653E-03 
  67395.6522     0.28223E-03 
  67427.9144     0.28803E-03 
  67460.1766     0.29393E-03 
  67492.4387     0.29992E-03 
  67524.7009     0.30602E-03 
  67556.9630     0.31221E-03 
  67589.2252     0.31852E-03 
  67621.4874     0.32492E-03 
  67653.7495     0.33143E-03 
  67686.0117     0.33805E-03 
  67718.2738     0.34478E-03 
  67750.5360     0.35161E-03 
  67782.7982     0.35856E-03 
  67815.0603     0.36563E-03 
  67847.3225     0.37280E-03 
  67879.5846     0.38009E-03 
  67911.8468     0.38750E-03 
  67944.1090     0.39503E-03 
  67976.3711     0.40268E-03 
  68008.6333     0.41046E-03 
  68040.8954     0.41835E-03 
  68073.1576     0.42637E-03 
  68105.4198     0.43452E-03 
  68137.6819     0.44279E-03 
  68169.9441     0.45120E-03 
  68202.2062     0.45974E-03 
  68234.4684     0.46841E-03 
  68266.7306     0.47721E-03 
  68298.9927     0.48615E-03 
  68331.2549     0.49523E-03 
  68363.5170     0.50445E-03 
  68395.7792     0.51381E-03 
  68428.0414     0.52331E-03 
  68460.3035     0.53296E-03 
  68492.5657     0.54275E-03 
  68524.8278     0.55270E-03 
  68557.0900     0.56279E-03 
  68589.3522     0.57303E-03 
  68621.6143     0.58343E-03 
  68653.8765     0.59398E-03 
  68686.1386     0.60469E-03 
  68718.4008     0.61555E-03 
  68750.6630     0.62658E-03 
  68782.9251     0.63777E-03 
  68815.1873     0.64912E-03 
  68847.4494     0.66064E-03 
  68879.7116     0.67233E-03 
  68911.9738     0.68418E-03 
  68944.2359     0.69621E-03 
  68976.4981     0.70841E-03 
  69008.7602     0.72078E-03 
  69041.0224     0.73333E-03 
  69073.2846     0.74606E-03 
  69105.5467     0.75897E-03 
  69137.8089     0.77206E-03 
  69170.0710     0.78533E-03 
  69202.3332     0.79879E-03 
  69234.5954     0.81244E-03 
  69266.8575     0.82628E-03 
  69299.1197     0.84031E-03 
  69331.3818     0.85453E-03 
  69363.6440     0.86895E-03 
  69395.9062     0.88356E-03 
  69428.1683     0.89837E-03 
  69460.4305     0.91339E-03 
  69492.6926     0.92861E-03 
  69524.9548     0.94403E-03 
  69557.2170     0.95966E-03 
  69589.4791     0.97550E-03 
  69621.7413     0.99154E-03 
  69654.0034     0.10078E-02 
  69686.2656     0.10243E-02 
  69718.5278     0.10410E-02 
  69750.7899     0.10579E-02 
  69783.0521     0.10750E-02 
  69815.3142     0.10924E-02 
  69847.5764     0.11099E-02 
  69879.8386     0.11277E-02 
  69912.1007     0.11458E-02 
  69944.3629     0.11640E-02 
  69976.6250     0.11825E-02 
  70008.8872     0.12012E-02 
  70041.1494     0.12202E-02 
  70073.4115     0.12394E-02 
  70105.6737     0.12588E-02 
  70137.9358     0.12785E-02 
  70170.1980     0.12984E-02 
  70202.4602     0.13186E-02 
  70234.7223     0.13390E-02 
  70266.9845     0.13597E-02 
  70299.2466     0.13806E-02 
  70331.5088     0.14018E-02 
  70363.7710     0.14232E-02 
  70396.0331     0.14449E-02 
  70428.2953     0.14668E-02 
  70460.5574     0.14890E-02 
  70492.8196     0.15114E-02 
  70525.0818     0.15342E-02 
  70557.3439     0.15571E-02 
  70589.6061     0.15804E-02 
  70621.8682     0.16039E-02 
  70654.1304     0.16277E-02 
  70686.3926     0.16518E-02 
  70718.6547     0.16761E-02 
  70750.9169     0.17007E-02 
  70783.1790     0.17256E-02 
  70815.4412     0.17508E-02 
  70847.7034     0.17762E-02 
  70879.9655     0.18020E-02 
  70912.2277     0.18280E-02 
  70944.4898     0.18543E-02 
  70976.7520     0.18809E-02 
  71009.0142     0.19078E-02 
  71041.2763     0.19350E-02 
  71073.5385     0.19624E-02 
  71105.8006     0.19902E-02 
  71138.0628     0.20183E-02 
  71170.3250     0.20466E-02 
  71202.5871     0.20753E-02 
  71234.8493     0.21042E-02 
  71267.1114     0.21335E-02 
  71299.3736     0.21631E-02 
  71331.6358     0.21929E-02 
  71363.8979     0.22231E-02 
  71396.1601     0.22536E-02 
  71428.4222     0.22844E-02 
  71460.6844     0.23155E-02 
  71492.9466     0.23469E-02 
  71525.2087     0.23787E-02 
  71557.4709     0.24107E-02 
  71589.7330     0.24431E-02 
  71621.9952     0.24757E-02 
  71654.2574     0.25087E-02 
  71686.5195     0.25421E-02 
  71718.7817     0.25757E-02 
  71751.0438     0.26097E-02 
  71783.3060     0.26439E-02 
  71815.5682     0.26786E-02 
  71847.8303     0.27135E-02 
  71880.0925     0.27488E-02 
  71912.3546     0.27843E-02 
  71944.6168     0.28203E-02 
  71976.8790     0.28565E-02 
  72009.1411     0.28931E-02 
  72041.4033     0.29300E-02 
  72073.6654     0.29672E-02 
  72105.9276     0.30048E-02 
  72138.1898     0.30427E-02 
  72170.4519     0.30810E-02 
  72202.7141     0.31195E-02 
  72234.9762     0.31585E-02 
  72267.2384     0.31977E-02 
  72299.5006     0.32373E-02 
  72331.7627     0.32772E-02 
  72364.0249     0.33175E-02 
  72396.2870     0.33581E-02 
  72428.5492     0.33990E-02 
  72460.8114     0.34403E-02 
  72493.0735     0.34819E-02 
  72525.3357     0.35239E-02 
  72557.5978     0.35662E-02 
  72589.8600     0.36089E-02 
