  32262.1600     0.45966E-02 
  32294.4222     0.46439E-02 
  32326.6843     0.46915E-02 
  32358.9465     0.47395E-02 
  32391.2086     0.47877E-02 
  32423.4708     0.48363E-02 
  32455.7330     0.48852E-02 
  32487.9951     0.49344E-02 
  32520.2573     0.49839E-02 
  32552.5194     0.50337E-02 
  32584.7816     0.50839E-02 
  32617.0438     0.51344E-02 
  32649.3059     0.51852E-02 
  32681.5681     0.52363E-02 
  32713.8302     0.52877E-02 
  32746.0924     0.53395E-02 
  32778.3546     0.53915E-02 
  32810.6167     0.54439E-02 
  32842.8789     0.54966E-02 
  32875.1410     0.55496E-02 
  32907.4032     0.56030E-02 
  32939.6654     0.56566E-02 
  32971.9275     0.57106E-02 
  33004.1897     0.57649E-02 
  33036.4518     0.58195E-02 
  33068.7140     0.58744E-02 
  33100.9762     0.59296E-02 
  33133.2383     0.59851E-02 
  33165.5005     0.60410E-02 
  33197.7626     0.60971E-02 
  33230.0248     0.61536E-02 
  33262.2870     0.62104E-02 
  33294.5491     0.62675E-02 
  33326.8113     0.63249E-02 
  33359.0734     0.63826E-02 
  33391.3356     0.64406E-02 
  33423.5978     0.64989E-02 
  33455.8599     0.65575E-02 
  33488.1221     0.66164E-02 
  33520.3842     0.66757E-02 
  33552.6464     0.67352E-02 
  33584.9086     0.67950E-02 
  33617.1707     0.68552E-02 
  33649.4329     0.69156E-02 
  33681.6950     0.69763E-02 
  33713.9572     0.70373E-02 
  33746.2194     0.70986E-02 
  33778.4815     0.71602E-02 
  33810.7437     0.72221E-02 
  33843.0058     0.72843E-02 
  33875.2680     0.73468E-02 
  33907.5302     0.74096E-02 
  33939.7923     0.74726E-02 
  33972.0545     0.75360E-02 
  34004.3166     0.75996E-02 
  34036.5788     0.76635E-02 
  34068.8410     0.77277E-02 
  34101.1031     0.77921E-02 
  34133.3653     0.78569E-02 
  34165.6274     0.79219E-02 
  34197.8896     0.79872E-02 
  34230.1518     0.80527E-02 
  34262.4139     0.81186E-02 
  34294.6761     0.81847E-02 
  34326.9382     0.82510E-02 
  34359.2004     0.83177E-02 
  34391.4626     0.83846E-02 
  34423.7247     0.84517E-02 
  34455.9869     0.85191E-02 
  34488.2490     0.85868E-02 
  34520.5112     0.86547E-02 
  34552.7734     0.87229E-02 
  34585.0355     0.87913E-02 
  34617.2977     0.88600E-02 
  34649.5598     0.89290E-02 
  34681.8220     0.89981E-02 
  34714.0842     0.90675E-02 
  34746.3463     0.91372E-02 
  34778.6085     0.92071E-02 
  34810.8706     0.92772E-02 
  34843.1328     0.93475E-02 
  34875.3950     0.94181E-02 
  34907.6571     0.94889E-02 
  34939.9193     0.95600E-02 
  34972.1814     0.96312E-02 
  35004.4436     0.97027E-02 
  35036.7058     0.97744E-02 
  35068.9679     0.98463E-02 
  35101.2301     0.99185E-02 
  35133.4922     0.99908E-02 
  35165.7544     0.10063E-01 
  35198.0166     0.10136E-01 
  35230.2787     0.10209E-01 
  35262.5409     0.10282E-01 
  35294.8030     0.10356E-01 
  35327.0652     0.10429E-01 
  35359.3274     0.10503E-01 
  35391.5895     0.10577E-01 
  35423.8517     0.10651E-01 
  35456.1138     0.10725E-01 
  35488.3760     0.10800E-01 
  35520.6382     0.10874E-01 
  35552.9003     0.10949E-01 
  35585.1625     0.11024E-01 
  35617.4246     0.11099E-01 
  35649.6868     0.11174E-01 
  35681.9490     0.11250E-01 
  35714.2111     0.11325E-01 
  35746.4733     0.11401E-01 
  35778.7354     0.11477E-01 
  35810.9976     0.11553E-01 
  35843.2598     0.11629E-01 
  35875.5219     0.11706E-01 
  35907.7841     0.11782E-01 
  35940.0462     0.11859E-01 
  35972.3084     0.11936E-01 
  36004.5706     0.12013E-01 
  36036.8327     0.12090E-01 
  36069.0949     0.12167E-01 
  36101.3570     0.12244E-01 
  36133.6192     0.12321E-01 
  36165.8814     0.12399E-01 
  36198.1435     0.12476E-01 
  36230.4057     0.12554E-01 
  36262.6678     0.12632E-01 
  36294.9300     0.12710E-01 
  36327.1922     0.12787E-01 
  36359.4543     0.12866E-01 
  36391.7165     0.12944E-01 
  36423.9786     0.13022E-01 
  36456.2408     0.13100E-01 
  36488.5030     0.13178E-01 
  36520.7651     0.13257E-01 
  36553.0273     0.13335E-01 
  36585.2894     0.13414E-01 
  36617.5516     0.13492E-01 
  36649.8138     0.13571E-01 
  36682.0759     0.13650E-01 
  36714.3381     0.13729E-01 
  36746.6002     0.13807E-01 
  36778.8624     0.13886E-01 
  36811.1246     0.13965E-01 
  36843.3867     0.14044E-01 
  36875.6489     0.14123E-01 
  36907.9110     0.14202E-01 
  36940.1732     0.14281E-01 
  36972.4354     0.14359E-01 
  37004.6975     0.14438E-01 
  37036.9597     0.14517E-01 
  37069.2218     0.14596E-01 
  37101.4840     0.14675E-01 
  37133.7462     0.14754E-01 
  37166.0083     0.14833E-01 
  37198.2705     0.14912E-01 
  37230.5326     0.14991E-01 
  37262.7948     0.15070E-01 
  37295.0570     0.15149E-01 
  37327.3191     0.15227E-01 
  37359.5813     0.15306E-01 
  37391.8434     0.15385E-01 
  37424.1056     0.15464E-01 
  37456.3678     0.15542E-01 
  37488.6299     0.15621E-01 
  37520.8921     0.15699E-01 
  37553.1542     0.15778E-01 
  37585.4164     0.15856E-01 
  37617.6786     0.15934E-01 
  37649.9407     0.16013E-01 
  37682.2029     0.16091E-01 
  37714.4650     0.16169E-01 
  37746.7272     0.16247E-01 
  37778.9894     0.16325E-01 
  37811.2515     0.16403E-01 
  37843.5137     0.16480E-01 
  37875.7758     0.16558E-01 
  37908.0380     0.16635E-01 
  37940.3002     0.16713E-01 
  37972.5623     0.16790E-01 
  38004.8245     0.16867E-01 
  38037.0866     0.16944E-01 
  38069.3488     0.17021E-01 
  38101.6110     0.17097E-01 
  38133.8731     0.17174E-01 
  38166.1353     0.17250E-01 
  38198.3974     0.17327E-01 
  38230.6596     0.17403E-01 
  38262.9218     0.17479E-01 
  38295.1839     0.17554E-01 
  38327.4461     0.17630E-01 
  38359.7082     0.17705E-01 
  38391.9704     0.17781E-01 
  38424.2326     0.17856E-01 
  38456.4947     0.17931E-01 
  38488.7569     0.18005E-01 
  38521.0190     0.18080E-01 
  38553.2812     0.18154E-01 
  38585.5434     0.18228E-01 
  38617.8055     0.18302E-01 
  38650.0677     0.18376E-01 
  38682.3298     0.18449E-01 
  38714.5920     0.18522E-01 
  38746.8542     0.18595E-01 
  38779.1163     0.18668E-01 
  38811.3785     0.18741E-01 
  38843.6406     0.18813E-01 
  38875.9028     0.18885E-01 
  38908.1650     0.18957E-01 
  38940.4271     0.19029E-01 
  38972.6893     0.19100E-01 
  39004.9514     0.19171E-01 
  39037.2136     0.19242E-01 
  39069.4758     0.19312E-01 
  39101.7379     0.19383E-01 
  39134.0001     0.19453E-01 
  39166.2622     0.19522E-01 
  39198.5244     0.19592E-01 
  39230.7866     0.19661E-01 
  39263.0487     0.19730E-01 
  39295.3109     0.19798E-01 
  39327.5730     0.19866E-01 
  39359.8352     0.19934E-01 
  39392.0974     0.20002E-01 
  39424.3595     0.20069E-01 
  39456.6217     0.20136E-01 
  39488.8838     0.20203E-01 
  39521.1460     0.20269E-01 
  39553.4082     0.20335E-01 
  39585.6703     0.20401E-01 
  39617.9325     0.20466E-01 
  39650.1946     0.20531E-01 
  39682.4568     0.20596E-01 
  39714.7190     0.20660E-01 
  39746.9811     0.20724E-01 
  39779.2433     0.20788E-01 
  39811.5054     0.20851E-01 
  39843.7676     0.20914E-01 
  39876.0298     0.20976E-01 
  39908.2919     0.21039E-01 
  39940.5541     0.21100E-01 
  39972.8162     0.21162E-01 
  40005.0784     0.21223E-01 
  40037.3406     0.21283E-01 
  40069.6027     0.21344E-01 
  40101.8649     0.21403E-01 
  40134.1270     0.21463E-01 
  40166.3892     0.21522E-01 
  40198.6514     0.21581E-01 
  40230.9135     0.21639E-01 
  40263.1757     0.21697E-01 
  40295.4378     0.21754E-01 
  40327.7000     0.21811E-01 
  40359.9622     0.21868E-01 
  40392.2243     0.21924E-01 
  40424.4865     0.21979E-01 
  40456.7486     0.22035E-01 
  40489.0108     0.22089E-01 
  40521.2730     0.22144E-01 
  40553.5351     0.22198E-01 
  40585.7973     0.22251E-01 
  40618.0594     0.22304E-01 
  40650.3216     0.22357E-01 
  40682.5838     0.22409E-01 
  40714.8459     0.22461E-01 
  40747.1081     0.22512E-01 
  40779.3702     0.22563E-01 
  40811.6324     0.22613E-01 
  40843.8946     0.22663E-01 
  40876.1567     0.22713E-01 
  40908.4189     0.22762E-01 
  40940.6810     0.22810E-01 
  40972.9432     0.22858E-01 
  41005.2054     0.22905E-01 
  41037.4675     0.22952E-01 
  41069.7297     0.22999E-01 
  41101.9918     0.23045E-01 
  41134.2540     0.23090E-01 
  41166.5162     0.23136E-01 
  41198.7783     0.23180E-01 
  41231.0405     0.23224E-01 
  41263.3026     0.23268E-01 
  41295.5648     0.23311E-01 
  41327.8270     0.23353E-01 
  41360.0891     0.23395E-01 
  41392.3513     0.23437E-01 
  41424.6134     0.23478E-01 
  41456.8756     0.23518E-01 
  41489.1378     0.23558E-01 
  41521.3999     0.23597E-01 
  41553.6621     0.23636E-01 
  41585.9242     0.23675E-01 
  41618.1864     0.23713E-01 
  41650.4486     0.23750E-01 
  41682.7107     0.23787E-01 
  41714.9729     0.23823E-01 
  41747.2350     0.23859E-01 
  41779.4972     0.23894E-01 
  41811.7594     0.23929E-01 
  41844.0215     0.23963E-01 
  41876.2837     0.23996E-01 
  41908.5458     0.24029E-01 
  41940.8080     0.24062E-01 
  41973.0702     0.24094E-01 
  42005.3323     0.24125E-01 
  42037.5945     0.24156E-01 
  42069.8566     0.24186E-01 
  42102.1188     0.24216E-01 
  42134.3810     0.24245E-01 
  42166.6431     0.24274E-01 
  42198.9053     0.24302E-01 
  42231.1674     0.24329E-01 
  42263.4296     0.24356E-01 
  42295.6918     0.24383E-01 
  42327.9539     0.24408E-01 
  42360.2161     0.24434E-01 
  42392.4782     0.24458E-01 
  42424.7404     0.24483E-01 
  42457.0026     0.24506E-01 
  42489.2647     0.24529E-01 
  42521.5269     0.24551E-01 
  42553.7890     0.24573E-01 
  42586.0512     0.24595E-01 
  42618.3134     0.24615E-01 
  42650.5755     0.24635E-01 
  42682.8377     0.24655E-01 
  42715.0998     0.24674E-01 
  42747.3620     0.24692E-01 
  42779.6242     0.24710E-01 
  42811.8863     0.24728E-01 
  42844.1485     0.24744E-01 
  42876.4106     0.24760E-01 
  42908.6728     0.24776E-01 
  42940.9350     0.24791E-01 
  42973.1971     0.24805E-01 
  43005.4593     0.24819E-01 
  43037.7214     0.24832E-01 
  43069.9836     0.24845E-01 
  43102.2458     0.24857E-01 
  43134.5079     0.24869E-01 
  43166.7701     0.24880E-01 
  43199.0322     0.24890E-01 
  43231.2944     0.24900E-01 
  43263.5566     0.24909E-01 
  43295.8187     0.24917E-01 
  43328.0809     0.24925E-01 
  43360.3430     0.24933E-01 
  43392.6052     0.24940E-01 
  43424.8674     0.24946E-01 
  43457.1295     0.24952E-01 
  43489.3917     0.24957E-01 
  43521.6538     0.24961E-01 
  43553.9160     0.24965E-01 
  43586.1782     0.24969E-01 
  43618.4403     0.24972E-01 
  43650.7025     0.24974E-01 
  43682.9646     0.24976E-01 
  43715.2268     0.24977E-01 
  43747.4890     0.24977E-01 
  43779.7511     0.24977E-01 
  43812.0133     0.24977E-01 
  43844.2754     0.24975E-01 
  43876.5376     0.24974E-01 
  43908.7998     0.24971E-01 
  43941.0619     0.24968E-01 
  43973.3241     0.24965E-01 
  44005.5862     0.24961E-01 
  44037.8484     0.24956E-01 
  44070.1106     0.24951E-01 
  44102.3727     0.24945E-01 
  44134.6349     0.24939E-01 
  44166.8970     0.24932E-01 
  44199.1592     0.24925E-01 
  44231.4214     0.24917E-01 
  44263.6835     0.24908E-01 
  44295.9457     0.24899E-01 
  44328.2078     0.24889E-01 
  44360.4700     0.24879E-01 
  44392.7322     0.24868E-01 
  44424.9943     0.24857E-01 
  44457.2565     0.24845E-01 
  44489.5186     0.24833E-01 
  44521.7808     0.24820E-01 
  44554.0430     0.24806E-01 
  44586.3051     0.24792E-01 
  44618.5673     0.24778E-01 
  44650.8294     0.24762E-01 
  44683.0916     0.24747E-01 
  44715.3538     0.24730E-01 
  44747.6159     0.24714E-01 
  44779.8781     0.24696E-01 
  44812.1402     0.24678E-01 
  44844.4024     0.24660E-01 
  44876.6646     0.24641E-01 
  44908.9267     0.24622E-01 
  44941.1889     0.24602E-01 
  44973.4510     0.24581E-01 
  45005.7132     0.24560E-01 
  45037.9754     0.24539E-01 
  45070.2375     0.24516E-01 
  45102.4997     0.24494E-01 
  45134.7618     0.24471E-01 
  45167.0240     0.24447E-01 
  45199.2862     0.24423E-01 
  45231.5483     0.24398E-01 
  45263.8105     0.24373E-01 
  45296.0726     0.24348E-01 
  45328.3348     0.24321E-01 
  45360.5970     0.24295E-01 
  45392.8591     0.24268E-01 
  45425.1213     0.24240E-01 
  45457.3834     0.24212E-01 
  45489.6456     0.24183E-01 
  45521.9078     0.24154E-01 
  45554.1699     0.24124E-01 
  45586.4321     0.24094E-01 
  45618.6942     0.24064E-01 
  45650.9564     0.24033E-01 
  45683.2186     0.24001E-01 
  45715.4807     0.23969E-01 
  45747.7429     0.23936E-01 
  45780.0050     0.23903E-01 
  45812.2672     0.23870E-01 
  45844.5294     0.23836E-01 
  45876.7915     0.23802E-01 
  45909.0537     0.23767E-01 
  45941.3158     0.23732E-01 
  45973.5780     0.23696E-01 
  46005.8402     0.23660E-01 
  46038.1023     0.23623E-01 
  46070.3645     0.23586E-01 
  46102.6266     0.23548E-01 
  46134.8888     0.23510E-01 
  46167.1510     0.23472E-01 
  46199.4131     0.23433E-01 
  46231.6753     0.23394E-01 
  46263.9374     0.23354E-01 
  46296.1996     0.23314E-01 
  46328.4618     0.23273E-01 
  46360.7239     0.23232E-01 
  46392.9861     0.23191E-01 
  46425.2482     0.23149E-01 
  46457.5104     0.23107E-01 
  46489.7726     0.23064E-01 
  46522.0347     0.23021E-01 
  46554.2969     0.22978E-01 
  46586.5590     0.22934E-01 
  46618.8212     0.22890E-01 
  46651.0834     0.22845E-01 
  46683.3455     0.22800E-01 
  46715.6077     0.22755E-01 
  46747.8698     0.22709E-01 
  46780.1320     0.22663E-01 
  46812.3942     0.22616E-01 
  46844.6563     0.22569E-01 
  46876.9185     0.22522E-01 
  46909.1806     0.22474E-01 
  46941.4428     0.22426E-01 
  46973.7050     0.22378E-01 
  47005.9671     0.22329E-01 
  47038.2293     0.22280E-01 
  47070.4914     0.22230E-01 
  47102.7536     0.22180E-01 
  47135.0158     0.22130E-01 
  47167.2779     0.22080E-01 
  47199.5401     0.22029E-01 
  47231.8022     0.21977E-01 
  47264.0644     0.21926E-01 
  47296.3266     0.21874E-01 
  47328.5887     0.21822E-01 
  47360.8509     0.21769E-01 
  47393.1130     0.21716E-01 
  47425.3752     0.21663E-01 
  47457.6374     0.21610E-01 
  47489.8995     0.21556E-01 
  47522.1617     0.21502E-01 
  47554.4238     0.21447E-01 
  47586.6860     0.21392E-01 
  47618.9482     0.21337E-01 
  47651.2103     0.21282E-01 
  47683.4725     0.21226E-01 
  47715.7346     0.21171E-01 
  47747.9968     0.21114E-01 
  47780.2590     0.21058E-01 
  47812.5211     0.21001E-01 
  47844.7833     0.20944E-01 
  47877.0454     0.20887E-01 
  47909.3076     0.20829E-01 
  47941.5698     0.20771E-01 
  47973.8319     0.20713E-01 
  48006.0941     0.20655E-01 
  48038.3562     0.20596E-01 
  48070.6184     0.20537E-01 
  48102.8806     0.20478E-01 
  48135.1427     0.20419E-01 
  48167.4049     0.20359E-01 
  48199.6670     0.20299E-01 
  48231.9292     0.20239E-01 
  48264.1914     0.20179E-01 
  48296.4535     0.20118E-01 
  48328.7157     0.20058E-01 
  48360.9778     0.19996E-01 
  48393.2400     0.19935E-01 
  48425.5022     0.19874E-01 
  48457.7643     0.19812E-01 
  48490.0265     0.19750E-01 
  48522.2886     0.19688E-01 
  48554.5508     0.19626E-01 
  48586.8130     0.19563E-01 
  48619.0751     0.19501E-01 
  48651.3373     0.19438E-01 
  48683.5994     0.19375E-01 
  48715.8616     0.19312E-01 
  48748.1238     0.19248E-01 
  48780.3859     0.19184E-01 
  48812.6481     0.19121E-01 
  48844.9102     0.19057E-01 
  48877.1724     0.18993E-01 
  48909.4346     0.18928E-01 
  48941.6967     0.18864E-01 
  48973.9589     0.18799E-01 
  49006.2210     0.18734E-01 
  49038.4832     0.18669E-01 
  49070.7454     0.18604E-01 
  49103.0075     0.18539E-01 
  49135.2697     0.18474E-01 
  49167.5318     0.18408E-01 
  49199.7940     0.18342E-01 
  49232.0562     0.18277E-01 
  49264.3183     0.18211E-01 
  49296.5805     0.18145E-01 
  49328.8426     0.18078E-01 
  49361.1048     0.18012E-01 
  49393.3670     0.17946E-01 
  49425.6291     0.17879E-01 
  49457.8913     0.17813E-01 
  49490.1534     0.17746E-01 
  49522.4156     0.17679E-01 
  49554.6778     0.17612E-01 
  49586.9399     0.17545E-01 
  49619.2021     0.17478E-01 
  49651.4642     0.17410E-01 
  49683.7264     0.17343E-01 
  49715.9886     0.17275E-01 
  49748.2507     0.17208E-01 
  49780.5129     0.17140E-01 
  49812.7750     0.17073E-01 
  49845.0372     0.17005E-01 
  49877.2994     0.16937E-01 
  49909.5615     0.16869E-01 
  49941.8237     0.16801E-01 
  49974.0858     0.16733E-01 
  50006.3480     0.16665E-01 
  50038.6102     0.16597E-01 
  50070.8723     0.16528E-01 
  50103.1345     0.16460E-01 
  50135.3966     0.16392E-01 
  50167.6588     0.16323E-01 
  50199.9210     0.16255E-01 
  50232.1831     0.16186E-01 
  50264.4453     0.16118E-01 
  50296.7074     0.16049E-01 
  50328.9696     0.15981E-01 
  50361.2318     0.15912E-01 
  50393.4939     0.15843E-01 
  50425.7561     0.15775E-01 
  50458.0182     0.15706E-01 
  50490.2804     0.15637E-01 
  50522.5426     0.15568E-01 
  50554.8047     0.15500E-01 
  50587.0669     0.15431E-01 
  50619.3290     0.15362E-01 
  50651.5912     0.15293E-01 
  50683.8534     0.15224E-01 
  50716.1155     0.15156E-01 
  50748.3777     0.15087E-01 
  50780.6398     0.15018E-01 
  50812.9020     0.14949E-01 
  50845.1642     0.14881E-01 
  50877.4263     0.14812E-01 
  50909.6885     0.14743E-01 
  50941.9506     0.14674E-01 
  50974.2128     0.14606E-01 
  51006.4750     0.14537E-01 
  51038.7371     0.14468E-01 
  51070.9993     0.14400E-01 
  51103.2614     0.14331E-01 
  51135.5236     0.14262E-01 
  51167.7858     0.14194E-01 
  51200.0479     0.14125E-01 
  51232.3101     0.14057E-01 
  51264.5722     0.13988E-01 
  51296.8344     0.13920E-01 
  51329.0966     0.13851E-01 
  51361.3587     0.13783E-01 
  51393.6209     0.13715E-01 
  51425.8830     0.13647E-01 
  51458.1452     0.13579E-01 
  51490.4074     0.13510E-01 
  51522.6695     0.13442E-01 
  51554.9317     0.13374E-01 
  51587.1938     0.13306E-01 
  51619.4560     0.13239E-01 
  51651.7182     0.13171E-01 
  51683.9803     0.13103E-01 
  51716.2425     0.13035E-01 
  51748.5046     0.12968E-01 
  51780.7668     0.12900E-01 
  51813.0290     0.12833E-01 
  51845.2911     0.12766E-01 
  51877.5533     0.12698E-01 
  51909.8154     0.12631E-01 
  51942.0776     0.12564E-01 
  51974.3398     0.12497E-01 
  52006.6019     0.12430E-01 
  52038.8641     0.12363E-01 
  52071.1262     0.12296E-01 
  52103.3884     0.12230E-01 
  52135.6506     0.12163E-01 
  52167.9127     0.12097E-01 
  52200.1749     0.12030E-01 
  52232.4370     0.11964E-01 
  52264.6992     0.11898E-01 
  52296.9614     0.11832E-01 
  52329.2235     0.11766E-01 
  52361.4857     0.11700E-01 
  52393.7478     0.11634E-01 
  52426.0100     0.11569E-01 
  52458.2722     0.11503E-01 
  52490.5343     0.11438E-01 
  52522.7965     0.11373E-01 
  52555.0586     0.11308E-01 
  52587.3208     0.11243E-01 
  52619.5830     0.11178E-01 
  52651.8451     0.11113E-01 
  52684.1073     0.11048E-01 
  52716.3694     0.10984E-01 
  52748.6316     0.10919E-01 
  52780.8938     0.10855E-01 
  52813.1559     0.10791E-01 
  52845.4181     0.10727E-01 
  52877.6802     0.10663E-01 
  52909.9424     0.10599E-01 
  52942.2046     0.10536E-01 
  52974.4667     0.10472E-01 
  53006.7289     0.10409E-01 
  53038.9910     0.10346E-01 
  53071.2532     0.10283E-01 
  53103.5154     0.10220E-01 
  53135.7775     0.10157E-01 
  53168.0397     0.10094E-01 
  53200.3018     0.10032E-01 
  53232.5640     0.99697E-02 
  53264.8262     0.99076E-02 
  53297.0883     0.98456E-02 
  53329.3505     0.97837E-02 
  53361.6126     0.97220E-02 
  53393.8748     0.96605E-02 
  53426.1370     0.95991E-02 
  53458.3991     0.95379E-02 
  53490.6613     0.94768E-02 
  53522.9234     0.94159E-02 
  53555.1856     0.93552E-02 
  53587.4478     0.92946E-02 
  53619.7099     0.92341E-02 
  53651.9721     0.91739E-02 
  53684.2342     0.91138E-02 
  53716.4964     0.90539E-02 
  53748.7586     0.89941E-02 
  53781.0207     0.89345E-02 
  53813.2829     0.88751E-02 
  53845.5450     0.88158E-02 
  53877.8072     0.87567E-02 
  53910.0694     0.86978E-02 
  53942.3315     0.86391E-02 
  53974.5937     0.85805E-02 
  54006.8558     0.85221E-02 
  54039.1180     0.84639E-02 
  54071.3802     0.84059E-02 
  54103.6423     0.83480E-02 
  54135.9045     0.82904E-02 
  54168.1666     0.82328E-02 
  54200.4288     0.81755E-02 
  54232.6910     0.81184E-02 
  54264.9531     0.80614E-02 
  54297.2153     0.80046E-02 
  54329.4774     0.79480E-02 
  54361.7396     0.78916E-02 
  54394.0018     0.78354E-02 
  54426.2639     0.77793E-02 
  54458.5261     0.77235E-02 
  54490.7882     0.76678E-02 
  54523.0504     0.76123E-02 
  54555.3126     0.75570E-02 
  54587.5747     0.75019E-02 
  54619.8369     0.74470E-02 
  54652.0990     0.73923E-02 
  54684.3612     0.73377E-02 
  54716.6234     0.72834E-02 
  54748.8855     0.72292E-02 
  54781.1477     0.71752E-02 
  54813.4098     0.71215E-02 
  54845.6720     0.70679E-02 
  54877.9342     0.70145E-02 
  54910.1963     0.69613E-02 
  54942.4585     0.69083E-02 
  54974.7206     0.68555E-02 
  55006.9828     0.68028E-02 
  55039.2450     0.67504E-02 
  55071.5071     0.66982E-02 
  55103.7693     0.66462E-02 
  55136.0314     0.65943E-02 
  55168.2936     0.65427E-02 
  55200.5558     0.64913E-02 
  55232.8179     0.64400E-02 
  55265.0801     0.63890E-02 
  55297.3422     0.63382E-02 
  55329.6044     0.62875E-02 
  55361.8666     0.62371E-02 
  55394.1287     0.61868E-02 
  55426.3909     0.61368E-02 
  55458.6530     0.60870E-02 
  55490.9152     0.60373E-02 
  55523.1774     0.59879E-02 
  55555.4395     0.59386E-02 
  55587.7017     0.58896E-02 
  55619.9638     0.58408E-02 
  55652.2260     0.57921E-02 
  55684.4882     0.57437E-02 
  55716.7503     0.56955E-02 
  55749.0125     0.56474E-02 
  55781.2746     0.55996E-02 
  55813.5368     0.55520E-02 
  55845.7990     0.55046E-02 
  55878.0611     0.54574E-02 
  55910.3233     0.54104E-02 
  55942.5854     0.53636E-02 
  55974.8476     0.53170E-02 
  56007.1098     0.52706E-02 
  56039.3719     0.52244E-02 
  56071.6341     0.51784E-02 
  56103.8962     0.51326E-02 
  56136.1584     0.50870E-02 
  56168.4206     0.50417E-02 
  56200.6827     0.49965E-02 
  56232.9449     0.49516E-02 
  56265.2070     0.49068E-02 
  56297.4692     0.48623E-02 
  56329.7314     0.48179E-02 
  56361.9935     0.47738E-02 
  56394.2557     0.47298E-02 
  56426.5178     0.46861E-02 
  56458.7800     0.46426E-02 
  56491.0422     0.45993E-02 
  56523.3043     0.45562E-02 
  56555.5665     0.45133E-02 
  56587.8286     0.44706E-02 
  56620.0908     0.44281E-02 
  56652.3530     0.43858E-02 
  56684.6151     0.43437E-02 
  56716.8773     0.43018E-02 
  56749.1394     0.42602E-02 
  56781.4016     0.42187E-02 
  56813.6638     0.41775E-02 
  56845.9259     0.41364E-02 
  56878.1881     0.40956E-02 
  56910.4502     0.40549E-02 
  56942.7124     0.40145E-02 
  56974.9746     0.39743E-02 
  57007.2367     0.39343E-02 
  57039.4989     0.38945E-02 
  57071.7610     0.38549E-02 
  57104.0232     0.38155E-02 
  57136.2854     0.37763E-02 
  57168.5475     0.37373E-02 
  57200.8097     0.36985E-02 
  57233.0718     0.36599E-02 
  57265.3340     0.36216E-02 
  57297.5962     0.35834E-02 
  57329.8583     0.35455E-02 
  57362.1205     0.35077E-02 
  57394.3826     0.34702E-02 
  57426.6448     0.34329E-02 
  57458.9070     0.33957E-02 
  57491.1691     0.33588E-02 
  57523.4313     0.33221E-02 
  57555.6934     0.32856E-02 
  57587.9556     0.32493E-02 
  57620.2178     0.32132E-02 
  57652.4799     0.31773E-02 
  57684.7421     0.31416E-02 
  57717.0042     0.31061E-02 
  57749.2664     0.30708E-02 
  57781.5286     0.30358E-02 
  57813.7907     0.30009E-02 
  57846.0529     0.29663E-02 
  57878.3150     0.29318E-02 
  57910.5772     0.28976E-02 
  57942.8394     0.28635E-02 
  57975.1015     0.28297E-02 
  58007.3637     0.27961E-02 
  58039.6258     0.27626E-02 
  58071.8880     0.27294E-02 
  58104.1502     0.26964E-02 
  58136.4123     0.26636E-02 
  58168.6745     0.26310E-02 
  58200.9366     0.25986E-02 
  58233.1988     0.25664E-02 
  58265.4610     0.25345E-02 
  58297.7231     0.25027E-02 
  58329.9853     0.24711E-02 
  58362.2474     0.24398E-02 
  58394.5096     0.24086E-02 
  58426.7718     0.23777E-02 
  58459.0339     0.23469E-02 
  58491.2961     0.23164E-02 
  58523.5582     0.22861E-02 
  58555.8204     0.22560E-02 
  58588.0826     0.22261E-02 
  58620.3447     0.21964E-02 
  58652.6069     0.21669E-02 
  58684.8690     0.21376E-02 
  58717.1312     0.21085E-02 
  58749.3934     0.20796E-02 
  58781.6555     0.20510E-02 
  58813.9177     0.20225E-02 
  58846.1798     0.19943E-02 
  58878.4420     0.19662E-02 
  58910.7042     0.19384E-02 
  58942.9663     0.19108E-02 
  58975.2285     0.18834E-02 
  59007.4906     0.18562E-02 
  59039.7528     0.18292E-02 
  59072.0150     0.18024E-02 
  59104.2771     0.17758E-02 
  59136.5393     0.17494E-02 
  59168.8014     0.17233E-02 
  59201.0636     0.16974E-02 
  59233.3258     0.16716E-02 
  59265.5879     0.16461E-02 
  59297.8501     0.16208E-02 
  59330.1122     0.15957E-02 
  59362.3744     0.15709E-02 
  59394.6366     0.15462E-02 
  59426.8987     0.15218E-02 
  59459.1609     0.14975E-02 
  59491.4230     0.14735E-02 
  59523.6852     0.14497E-02 
  59555.9474     0.14261E-02 
  59588.2095     0.14028E-02 
  59620.4717     0.13796E-02 
  59652.7338     0.13567E-02 
  59684.9960     0.13340E-02 
  59717.2582     0.13115E-02 
  59749.5203     0.12892E-02 
  59781.7825     0.12672E-02 
  59814.0446     0.12453E-02 
  59846.3068     0.12237E-02 
  59878.5690     0.12023E-02 
  59910.8311     0.11812E-02 
  59943.0933     0.11602E-02 
  59975.3554     0.11395E-02 
  60007.6176     0.11190E-02 
  60039.8798     0.10988E-02 
  60072.1419     0.10787E-02 
  60104.4041     0.10589E-02 
  60136.6662     0.10394E-02 
  60168.9284     0.10200E-02 
  60201.1906     0.10009E-02 
  60233.4527     0.98202E-03 
  60265.7149     0.96337E-03 
  60297.9770     0.94496E-03 
  60330.2392     0.92678E-03 
  60362.5014     0.90884E-03 
  60394.7635     0.89113E-03 
  60427.0257     0.87367E-03 
  60459.2878     0.85644E-03 
  60491.5500     0.83946E-03 
  60523.8122     0.82271E-03 
  60556.0743     0.80622E-03 
  60588.3365     0.78996E-03 
  60620.5986     0.77396E-03 
  60652.8608     0.75820E-03 
  60685.1230     0.74269E-03 
  60717.3851     0.72743E-03 
  60749.6473     0.71242E-03 
  60781.9094     0.69767E-03 
  60814.1716     0.68317E-03 
  60846.4338     0.66893E-03 
  60878.6959     0.65495E-03 
  60910.9581     0.64123E-03 
  60943.2202     0.62777E-03 
  60975.4824     0.61458E-03 
  61007.7446     0.60165E-03 
  61040.0067     0.58898E-03 
  61072.2689     0.57659E-03 
  61104.5310     0.56447E-03 
  61136.7932     0.55262E-03 
  61169.0554     0.54104E-03 
  61201.3175     0.52975E-03 
  61233.5797     0.51873E-03 
  61265.8418     0.50799E-03 
  61298.1040     0.49754E-03 
  61330.3662     0.48737E-03 
  61362.6283     0.47749E-03 
  61394.8905     0.46790E-03 
  61427.1526     0.45861E-03 
  61459.4148     0.44960E-03 
  61491.6770     0.44090E-03 
  61523.9391     0.43249E-03 
  61556.2013     0.42439E-03 
  61588.4634     0.41660E-03 
  61620.7256     0.40911E-03 
  61652.9878     0.40193E-03 
  61685.2499     0.39506E-03 
  61717.5121     0.38851E-03 
  61749.7742     0.38228E-03 
  61782.0364     0.37637E-03 
  61814.2986     0.37079E-03 
  61846.5607     0.36553E-03 
  61878.8229     0.36060E-03 
  61911.0850     0.35601E-03 
  61943.3472     0.35176E-03 
  61975.6094     0.34784E-03 
  62007.8715     0.34427E-03 
  62040.1337     0.34104E-03 
  62072.3958     0.33817E-03 
  62104.6580     0.33565E-03 
  62136.9202     0.33349E-03 
  62169.1823     0.33168E-03 
  62201.4445     0.33025E-03 
  62233.7066     0.32918E-03 
  62265.9688     0.32848E-03 
  62298.2310     0.32816E-03 
  62330.4931     0.32822E-03 
  62362.7553     0.32866E-03 
  62395.0174     0.32949E-03 
  62427.2796     0.33071E-03 
  62459.5418     0.33233E-03 
  62491.8039     0.33435E-03 
  62524.0661     0.33678E-03 
  62556.3282     0.33961E-03 
  62588.5904     0.34286E-03 
  62620.8526     0.34652E-03 
  62653.1147     0.35061E-03 
  62685.3769     0.35513E-03 
  62717.6390     0.36007E-03 
  62749.9012     0.36546E-03 
  62782.1634     0.37129E-03 
  62814.4255     0.37756E-03 
  62846.6877     0.38429E-03 
  62878.9498     0.39147E-03 
  62911.2120     0.39912E-03 
  62943.4742     0.40723E-03 
  62975.7363     0.41582E-03 
  63007.9985     0.42488E-03 
  63040.2606     0.43443E-03 
  63072.5228     0.44447E-03 
  63104.7850     0.45501E-03 
  63137.0471     0.46604E-03 
  63169.3093     0.47759E-03 
  63201.5714     0.48964E-03 
  63233.8336     0.50222E-03 
  63266.0958     0.51532E-03 
  63298.3579     0.52895E-03 
  63330.6201     0.54312E-03 
  63362.8822     0.55784E-03 
  63395.1444     0.57310E-03 
  63427.4066     0.58892E-03 
  63459.6687     0.60531E-03 
  63491.9309     0.62227E-03 
  63524.1930     0.63980E-03 
  63556.4552     0.65792E-03 
  63588.7174     0.67663E-03 
  63620.9795     0.69594E-03 
  63653.2417     0.71586E-03 
  63685.5038     0.73638E-03 
  63717.7660     0.75753E-03 
  63750.0282     0.77931E-03 
  63782.2903     0.80172E-03 
  63814.5525     0.82478E-03 
  63846.8146     0.84849E-03 
  63879.0768     0.87286E-03 
  63911.3390     0.89789E-03 
  63943.6011     0.92360E-03 
  63975.8633     0.95000E-03 
  64008.1254     0.97708E-03 
  64040.3876     0.10049E-02 
  64072.6498     0.10334E-02 
  64104.9119     0.10626E-02 
  64137.1741     0.10925E-02 
  64169.4362     0.11232E-02 
  64201.6984     0.11546E-02 
  64233.9606     0.11868E-02 
  64266.2227     0.12197E-02 
  64298.4849     0.12534E-02 
  64330.7470     0.12879E-02 
  64363.0092     0.13232E-02 
  64395.2714     0.13593E-02 
  64427.5335     0.13962E-02 
  64459.7957     0.14339E-02 
  64492.0578     0.14724E-02 
  64524.3200     0.15118E-02 
  64556.5822     0.15520E-02 
  64588.8443     0.15931E-02 
  64621.1065     0.16351E-02 
  64653.3686     0.16779E-02 
  64685.6308     0.17216E-02 
  64717.8930     0.17663E-02 
  64750.1551     0.18118E-02 
  64782.4173     0.18583E-02 
  64814.6794     0.19057E-02 
  64846.9416     0.19541E-02 
  64879.2038     0.20034E-02 
  64911.4659     0.20537E-02 
  64943.7281     0.21050E-02 
  64975.9902     0.21572E-02 
  65008.2524     0.22105E-02 
  65040.5146     0.22648E-02 
  65072.7767     0.23201E-02 
  65105.0389     0.23765E-02 
  65137.3010     0.24339E-02 
  65169.5632     0.24924E-02 
  65201.8254     0.25519E-02 
  65234.0875     0.26126E-02 
  65266.3497     0.26743E-02 
  65298.6118     0.27372E-02 
  65330.8740     0.28012E-02 
  65363.1362     0.28663E-02 
  65395.3983     0.29326E-02 
  65427.6605     0.30001E-02 
  65459.9226     0.30688E-02 
  65492.1848     0.31386E-02 
  65524.4470     0.32097E-02 
  65556.7091     0.32820E-02 
  65588.9713     0.33555E-02 
  65621.2334     0.34303E-02 
  65653.4956     0.35064E-02 
  65685.7578     0.35837E-02 
  65718.0199     0.36623E-02 
  65750.2821     0.37423E-02 
  65782.5442     0.38236E-02 
  65814.8064     0.39062E-02 
  65847.0686     0.39902E-02 
  65879.3307     0.40755E-02 
  65911.5929     0.41622E-02 
  65943.8550     0.42504E-02 
  65976.1172     0.43399E-02 
  66008.3794     0.44309E-02 
  66040.6415     0.45234E-02 
  66072.9037     0.46173E-02 
  66105.1658     0.47127E-02 
  66137.4280     0.48096E-02 
  66169.6902     0.49080E-02 
  66201.9523     0.50079E-02 
  66234.2145     0.51094E-02 
  66266.4766     0.52124E-02 
  66298.7388     0.53171E-02 
  66331.0010     0.54233E-02 
  66363.2631     0.55312E-02 
  66395.5253     0.56406E-02 
  66427.7874     0.57518E-02 
  66460.0496     0.58646E-02 
  66492.3118     0.59791E-02 
  66524.5739     0.60953E-02 
  66556.8361     0.62132E-02 
  66589.0982     0.63328E-02 
  66621.3604     0.64542E-02 
  66653.6226     0.65774E-02 
  66685.8847     0.67024E-02 
  66718.1469     0.68292E-02 
  66750.4090     0.69578E-02 
  66782.6712     0.70883E-02 
  66814.9334     0.72206E-02 
  66847.1955     0.73549E-02 
  66879.4577     0.74910E-02 
  66911.7198     0.76291E-02 
  66943.9820     0.77691E-02 
  66976.2442     0.79110E-02 
  67008.5063     0.80550E-02 
  67040.7685     0.82010E-02 
  67073.0306     0.83489E-02 
  67105.2928     0.84990E-02 
  67137.5550     0.86510E-02 
  67169.8171     0.88052E-02 
  67202.0793     0.89615E-02 
  67234.3414     0.91199E-02 
  67266.6036     0.92804E-02 
  67298.8658     0.94431E-02 
  67331.1279     0.96080E-02 
  67363.3901     0.97751E-02 
  67395.6522     0.99444E-02 
  67427.9144     0.10116E-01 
  67460.1766     0.10290E-01 
  67492.4387     0.10466E-01 
  67524.7009     0.10644E-01 
  67556.9630     0.10825E-01 
  67589.2252     0.11008E-01 
  67621.4874     0.11194E-01 
  67653.7495     0.11382E-01 
  67686.0117     0.11572E-01 
  67718.2738     0.11765E-01 
  67750.5360     0.11960E-01 
  67782.7982     0.12158E-01 
  67815.0603     0.12358E-01 
  67847.3225     0.12560E-01 
  67879.5846     0.12766E-01 
  67911.8468     0.12973E-01 
  67944.1090     0.13184E-01 
  67976.3711     0.13397E-01 
  68008.6333     0.13613E-01 
  68040.8954     0.13831E-01 
  68073.1576     0.14052E-01 
  68105.4198     0.14276E-01 
  68137.6819     0.14502E-01 
  68169.9441     0.14731E-01 
  68202.2062     0.14963E-01 
  68234.4684     0.15198E-01 
  68266.7306     0.15435E-01 
  68298.9927     0.15676E-01 
  68331.2549     0.15919E-01 
  68363.5170     0.16165E-01 
  68395.7792     0.16414E-01 
  68428.0414     0.16666E-01 
  68460.3035     0.16921E-01 
  68492.5657     0.17179E-01 
  68524.8278     0.17440E-01 
  68557.0900     0.17704E-01 
  68589.3522     0.17971E-01 
  68621.6143     0.18241E-01 
  68653.8765     0.18514E-01 
  68686.1386     0.18790E-01 
  68718.4008     0.19070E-01 
  68750.6630     0.19352E-01 
  68782.9251     0.19638E-01 
  68815.1873     0.19927E-01 
  68847.4494     0.20219E-01 
  68879.7116     0.20514E-01 
  68911.9738     0.20813E-01 
  68944.2359     0.21115E-01 
  68976.4981     0.21420E-01 
  69008.7602     0.21729E-01 
  69041.0224     0.22041E-01 
  69073.2846     0.22356E-01 
  69105.5467     0.22675E-01 
  69137.8089     0.22997E-01 
  69170.0710     0.23323E-01 
  69202.3332     0.23652E-01 
  69234.5954     0.23985E-01 
  69266.8575     0.24321E-01 
  69299.1197     0.24661E-01 
  69331.3818     0.25004E-01 
  69363.6440     0.25351E-01 
  69395.9062     0.25702E-01 
  69428.1683     0.26056E-01 
  69460.4305     0.26414E-01 
  69492.6926     0.26776E-01 
  69524.9548     0.27141E-01 
  69557.2170     0.27510E-01 
  69589.4791     0.27883E-01 
  69621.7413     0.28259E-01 
  69654.0034     0.28639E-01 
  69686.2656     0.29024E-01 
  69718.5278     0.29412E-01 
  69750.7899     0.29803E-01 
  69783.0521     0.30199E-01 
  69815.3142     0.30599E-01 
  69847.5764     0.31002E-01 
  69879.8386     0.31410E-01 
  69912.1007     0.31821E-01 
  69944.3629     0.32237E-01 
  69976.6250     0.32656E-01 
  70008.8872     0.33080E-01 
  70041.1494     0.33507E-01 
  70073.4115     0.33939E-01 
  70105.6737     0.34375E-01 
  70137.9358     0.34815E-01 
  70170.1980     0.35259E-01 
  70202.4602     0.35707E-01 
  70234.7223     0.36159E-01 
  70266.9845     0.36616E-01 
  70299.2466     0.37077E-01 
  70331.5088     0.37542E-01 
  70363.7710     0.38011E-01 
  70396.0331     0.38484E-01 
  70428.2953     0.38962E-01 
  70460.5574     0.39444E-01 
  70492.8196     0.39931E-01 
  70525.0818     0.40422E-01 
  70557.3439     0.40917E-01 
  70589.6061     0.41416E-01 
  70621.8682     0.41920E-01 
  70654.1304     0.42429E-01 
  70686.3926     0.42942E-01 
  70718.6547     0.43459E-01 
  70750.9169     0.43981E-01 
  70783.1790     0.44507E-01 
  70815.4412     0.45038E-01 
  70847.7034     0.45573E-01 
  70879.9655     0.46113E-01 
  70912.2277     0.46657E-01 
  70944.4898     0.47206E-01 
  70976.7520     0.47759E-01 
  71009.0142     0.48318E-01 
  71041.2763     0.48880E-01 
  71073.5385     0.49448E-01 
  71105.8006     0.50020E-01 
  71138.0628     0.50596E-01 
  71170.3250     0.51178E-01 
  71202.5871     0.51764E-01 
  71234.8493     0.52354E-01 
  71267.1114     0.52950E-01 
  71299.3736     0.53550E-01 
  71331.6358     0.54155E-01 
  71363.8979     0.54765E-01 
  71396.1601     0.55379E-01 
  71428.4222     0.55998E-01 
  71460.6844     0.56622E-01 
  71492.9466     0.57251E-01 
  71525.2087     0.57884E-01 
  71557.4709     0.58523E-01 
  71589.7330     0.59166E-01 
  71621.9952     0.59814E-01 
  71654.2574     0.60467E-01 
  71686.5195     0.61124E-01 
  71718.7817     0.61787E-01 
  71751.0438     0.62455E-01 
  71783.3060     0.63127E-01 
  71815.5682     0.63804E-01 
  71847.8303     0.64486E-01 
  71880.0925     0.65173E-01 
  71912.3546     0.65865E-01 
  71944.6168     0.66562E-01 
  71976.8790     0.67264E-01 
  72009.1411     0.67970E-01 
  72041.4033     0.68682E-01 
  72073.6654     0.69398E-01 
  72105.9276     0.70120E-01 
  72138.1898     0.70846E-01 
  72170.4519     0.71577E-01 
  72202.7141     0.72314E-01 
  72234.9762     0.73055E-01 
  72267.2384     0.73801E-01 
  72299.5006     0.74552E-01 
  72331.7627     0.75308E-01 
  72364.0249     0.76069E-01 
  72396.2870     0.76835E-01 
  72428.5492     0.77606E-01 
  72460.8114     0.78382E-01 
  72493.0735     0.79162E-01 
  72525.3357     0.79948E-01 
  72557.5978     0.80739E-01 
  72589.8600     0.81535E-01 
