  32262.1600     0.83020E+02 
  32294.4222     0.83453E+02 
  32326.6843     0.83887E+02 
  32358.9465     0.84323E+02 
  32391.2086     0.84760E+02 
  32423.4708     0.85198E+02 
  32455.7330     0.85638E+02 
  32487.9951     0.86079E+02 
  32520.2573     0.86522E+02 
  32552.5194     0.86966E+02 
  32584.7816     0.87411E+02 
  32617.0438     0.87858E+02 
  32649.3059     0.88306E+02 
  32681.5681     0.88755E+02 
  32713.8302     0.89206E+02 
  32746.0924     0.89658E+02 
  32778.3546     0.90111E+02 
  32810.6167     0.90566E+02 
  32842.8789     0.91022E+02 
  32875.1410     0.91480E+02 
  32907.4032     0.91939E+02 
  32939.6654     0.92399E+02 
  32971.9275     0.92860E+02 
  33004.1897     0.93323E+02 
  33036.4518     0.93787E+02 
  33068.7140     0.94253E+02 
  33100.9762     0.94720E+02 
  33133.2383     0.95188E+02 
  33165.5005     0.95658E+02 
  33197.7626     0.96128E+02 
  33230.0248     0.96600E+02 
  33262.2870     0.97074E+02 
  33294.5491     0.97549E+02 
  33326.8113     0.98025E+02 
  33359.0734     0.98502E+02 
  33391.3356     0.98981E+02 
  33423.5978     0.99461E+02 
  33455.8599     0.99942E+02 
  33488.1221     0.10042E+03 
  33520.3842     0.10091E+03 
  33552.6464     0.10139E+03 
  33584.9086     0.10188E+03 
  33617.1707     0.10237E+03 
  33649.4329     0.10286E+03 
  33681.6950     0.10335E+03 
  33713.9572     0.10384E+03 
  33746.2194     0.10433E+03 
  33778.4815     0.10483E+03 
  33810.7437     0.10532E+03 
  33843.0058     0.10582E+03 
  33875.2680     0.10631E+03 
  33907.5302     0.10681E+03 
  33939.7923     0.10731E+03 
  33972.0545     0.10782E+03 
  34004.3166     0.10832E+03 
  34036.5788     0.10882E+03 
  34068.8410     0.10933E+03 
  34101.1031     0.10983E+03 
  34133.3653     0.11034E+03 
  34165.6274     0.11085E+03 
  34197.8896     0.11136E+03 
  34230.1518     0.11187E+03 
  34262.4139     0.11238E+03 
  34294.6761     0.11290E+03 
  34326.9382     0.11341E+03 
  34359.2004     0.11393E+03 
  34391.4626     0.11445E+03 
  34423.7247     0.11496E+03 
  34455.9869     0.11548E+03 
  34488.2490     0.11600E+03 
  34520.5112     0.11653E+03 
  34552.7734     0.11705E+03 
  34585.0355     0.11757E+03 
  34617.2977     0.11810E+03 
  34649.5598     0.11862E+03 
  34681.8220     0.11915E+03 
  34714.0842     0.11968E+03 
  34746.3463     0.12021E+03 
  34778.6085     0.12074E+03 
  34810.8706     0.12127E+03 
  34843.1328     0.12181E+03 
  34875.3950     0.12234E+03 
  34907.6571     0.12287E+03 
  34939.9193     0.12341E+03 
  34972.1814     0.12395E+03 
  35004.4436     0.12449E+03 
  35036.7058     0.12503E+03 
  35068.9679     0.12557E+03 
  35101.2301     0.12611E+03 
  35133.4922     0.12665E+03 
  35165.7544     0.12719E+03 
  35198.0166     0.12774E+03 
  35230.2787     0.12829E+03 
  35262.5409     0.12883E+03 
  35294.8030     0.12938E+03 
  35327.0652     0.12993E+03 
  35359.3274     0.13048E+03 
  35391.5895     0.13103E+03 
  35423.8517     0.13158E+03 
  35456.1138     0.13213E+03 
  35488.3760     0.13269E+03 
  35520.6382     0.13324E+03 
  35552.9003     0.13380E+03 
  35585.1625     0.13436E+03 
  35617.4246     0.13491E+03 
  35649.6868     0.13547E+03 
  35681.9490     0.13603E+03 
  35714.2111     0.13659E+03 
  35746.4733     0.13715E+03 
  35778.7354     0.13772E+03 
  35810.9976     0.13828E+03 
  35843.2598     0.13884E+03 
  35875.5219     0.13941E+03 
  35907.7841     0.13998E+03 
  35940.0462     0.14054E+03 
  35972.3084     0.14111E+03 
  36004.5706     0.14168E+03 
  36036.8327     0.14225E+03 
  36069.0949     0.14282E+03 
  36101.3570     0.14339E+03 
  36133.6192     0.14396E+03 
  36165.8814     0.14454E+03 
  36198.1435     0.14511E+03 
  36230.4057     0.14568E+03 
  36262.6678     0.14626E+03 
  36294.9300     0.14684E+03 
  36327.1922     0.14741E+03 
  36359.4543     0.14799E+03 
  36391.7165     0.14857E+03 
  36423.9786     0.14915E+03 
  36456.2408     0.14973E+03 
  36488.5030     0.15031E+03 
  36520.7651     0.15089E+03 
  36553.0273     0.15148E+03 
  36585.2894     0.15206E+03 
  36617.5516     0.15264E+03 
  36649.8138     0.15323E+03 
  36682.0759     0.15381E+03 
  36714.3381     0.15440E+03 
  36746.6002     0.15499E+03 
  36778.8624     0.15557E+03 
  36811.1246     0.15616E+03 
  36843.3867     0.15675E+03 
  36875.6489     0.15734E+03 
  36907.9110     0.15793E+03 
  36940.1732     0.15852E+03 
  36972.4354     0.15911E+03 
  37004.6975     0.15971E+03 
  37036.9597     0.16030E+03 
  37069.2218     0.16089E+03 
  37101.4840     0.16149E+03 
  37133.7462     0.16208E+03 
  37166.0083     0.16268E+03 
  37198.2705     0.16327E+03 
  37230.5326     0.16387E+03 
  37262.7948     0.16447E+03 
  37295.0570     0.16506E+03 
  37327.3191     0.16566E+03 
  37359.5813     0.16626E+03 
  37391.8434     0.16686E+03 
  37424.1056     0.16746E+03 
  37456.3678     0.16806E+03 
  37488.6299     0.16866E+03 
  37520.8921     0.16926E+03 
  37553.1542     0.16986E+03 
  37585.4164     0.17047E+03 
  37617.6786     0.17107E+03 
  37649.9407     0.17167E+03 
  37682.2029     0.17228E+03 
  37714.4650     0.17288E+03 
  37746.7272     0.17349E+03 
  37778.9894     0.17409E+03 
  37811.2515     0.17470E+03 
  37843.5137     0.17530E+03 
  37875.7758     0.17591E+03 
  37908.0380     0.17652E+03 
  37940.3002     0.17712E+03 
  37972.5623     0.17773E+03 
  38004.8245     0.17834E+03 
  38037.0866     0.17895E+03 
  38069.3488     0.17955E+03 
  38101.6110     0.18016E+03 
  38133.8731     0.18077E+03 
  38166.1353     0.18138E+03 
  38198.3974     0.18199E+03 
  38230.6596     0.18260E+03 
  38262.9218     0.18321E+03 
  38295.1839     0.18382E+03 
  38327.4461     0.18444E+03 
  38359.7082     0.18505E+03 
  38391.9704     0.18566E+03 
  38424.2326     0.18627E+03 
  38456.4947     0.18688E+03 
  38488.7569     0.18750E+03 
  38521.0190     0.18811E+03 
  38553.2812     0.18872E+03 
  38585.5434     0.18933E+03 
  38617.8055     0.18995E+03 
  38650.0677     0.19056E+03 
  38682.3298     0.19117E+03 
  38714.5920     0.19179E+03 
  38746.8542     0.19240E+03 
  38779.1163     0.19302E+03 
  38811.3785     0.19363E+03 
  38843.6406     0.19424E+03 
  38875.9028     0.19486E+03 
  38908.1650     0.19547E+03 
  38940.4271     0.19609E+03 
  38972.6893     0.19670E+03 
  39004.9514     0.19732E+03 
  39037.2136     0.19793E+03 
  39069.4758     0.19855E+03 
  39101.7379     0.19916E+03 
  39134.0001     0.19978E+03 
  39166.2622     0.20039E+03 
  39198.5244     0.20101E+03 
  39230.7866     0.20162E+03 
  39263.0487     0.20224E+03 
  39295.3109     0.20285E+03 
  39327.5730     0.20347E+03 
  39359.8352     0.20408E+03 
  39392.0974     0.20470E+03 
  39424.3595     0.20531E+03 
  39456.6217     0.20593E+03 
  39488.8838     0.20654E+03 
  39521.1460     0.20716E+03 
  39553.4082     0.20777E+03 
  39585.6703     0.20838E+03 
  39617.9325     0.20900E+03 
  39650.1946     0.20961E+03 
  39682.4568     0.21023E+03 
  39714.7190     0.21084E+03 
  39746.9811     0.21145E+03 
  39779.2433     0.21207E+03 
  39811.5054     0.21268E+03 
  39843.7676     0.21330E+03 
  39876.0298     0.21391E+03 
  39908.2919     0.21452E+03 
  39940.5541     0.21513E+03 
  39972.8162     0.21575E+03 
  40005.0784     0.21636E+03 
  40037.3406     0.21697E+03 
  40069.6027     0.21758E+03 
  40101.8649     0.21819E+03 
  40134.1270     0.21881E+03 
  40166.3892     0.21942E+03 
  40198.6514     0.22003E+03 
  40230.9135     0.22064E+03 
  40263.1757     0.22125E+03 
  40295.4378     0.22186E+03 
  40327.7000     0.22247E+03 
  40359.9622     0.22307E+03 
  40392.2243     0.22368E+03 
  40424.4865     0.22429E+03 
  40456.7486     0.22490E+03 
  40489.0108     0.22551E+03 
  40521.2730     0.22611E+03 
  40553.5351     0.22672E+03 
  40585.7973     0.22733E+03 
  40618.0594     0.22793E+03 
  40650.3216     0.22854E+03 
  40682.5838     0.22914E+03 
  40714.8459     0.22975E+03 
  40747.1081     0.23035E+03 
  40779.3702     0.23096E+03 
  40811.6324     0.23156E+03 
  40843.8946     0.23216E+03 
  40876.1567     0.23276E+03 
  40908.4189     0.23337E+03 
  40940.6810     0.23397E+03 
  40972.9432     0.23457E+03 
  41005.2054     0.23517E+03 
  41037.4675     0.23577E+03 
  41069.7297     0.23636E+03 
  41101.9918     0.23696E+03 
  41134.2540     0.23756E+03 
  41166.5162     0.23816E+03 
  41198.7783     0.23875E+03 
  41231.0405     0.23935E+03 
  41263.3026     0.23995E+03 
  41295.5648     0.24054E+03 
  41327.8270     0.24113E+03 
  41360.0891     0.24173E+03 
  41392.3513     0.24232E+03 
  41424.6134     0.24291E+03 
  41456.8756     0.24350E+03 
  41489.1378     0.24409E+03 
  41521.3999     0.24468E+03 
  41553.6621     0.24527E+03 
  41585.9242     0.24586E+03 
  41618.1864     0.24645E+03 
  41650.4486     0.24704E+03 
  41682.7107     0.24762E+03 
  41714.9729     0.24821E+03 
  41747.2350     0.24879E+03 
  41779.4972     0.24938E+03 
  41811.7594     0.24996E+03 
  41844.0215     0.25054E+03 
  41876.2837     0.25112E+03 
  41908.5458     0.25170E+03 
  41940.8080     0.25228E+03 
  41973.0702     0.25286E+03 
  42005.3323     0.25344E+03 
  42037.5945     0.25402E+03 
  42069.8566     0.25459E+03 
  42102.1188     0.25517E+03 
  42134.3810     0.25574E+03 
  42166.6431     0.25632E+03 
  42198.9053     0.25689E+03 
  42231.1674     0.25746E+03 
  42263.4296     0.25803E+03 
  42295.6918     0.25860E+03 
  42327.9539     0.25917E+03 
  42360.2161     0.25974E+03 
  42392.4782     0.26031E+03 
  42424.7404     0.26088E+03 
  42457.0026     0.26144E+03 
  42489.2647     0.26200E+03 
  42521.5269     0.26257E+03 
  42553.7890     0.26313E+03 
  42586.0512     0.26369E+03 
  42618.3134     0.26425E+03 
  42650.5755     0.26481E+03 
  42682.8377     0.26537E+03 
  42715.0998     0.26593E+03 
  42747.3620     0.26648E+03 
  42779.6242     0.26704E+03 
  42811.8863     0.26759E+03 
  42844.1485     0.26814E+03 
  42876.4106     0.26870E+03 
  42908.6728     0.26925E+03 
  42940.9350     0.26980E+03 
  42973.1971     0.27034E+03 
  43005.4593     0.27089E+03 
  43037.7214     0.27144E+03 
  43069.9836     0.27198E+03 
  43102.2458     0.27253E+03 
  43134.5079     0.27307E+03 
  43166.7701     0.27361E+03 
  43199.0322     0.27415E+03 
  43231.2944     0.27469E+03 
  43263.5566     0.27523E+03 
  43295.8187     0.27577E+03 
  43328.0809     0.27630E+03 
  43360.3430     0.27684E+03 
  43392.6052     0.27737E+03 
  43424.8674     0.27790E+03 
  43457.1295     0.27843E+03 
  43489.3917     0.27896E+03 
  43521.6538     0.27949E+03 
  43553.9160     0.28002E+03 
  43586.1782     0.28054E+03 
  43618.4403     0.28106E+03 
  43650.7025     0.28159E+03 
  43682.9646     0.28211E+03 
  43715.2268     0.28263E+03 
  43747.4890     0.28315E+03 
  43779.7511     0.28367E+03 
  43812.0133     0.28418E+03 
  43844.2754     0.28470E+03 
  43876.5376     0.28521E+03 
  43908.7998     0.28572E+03 
  43941.0619     0.28624E+03 
  43973.3241     0.28675E+03 
  44005.5862     0.28725E+03 
  44037.8484     0.28776E+03 
  44070.1106     0.28827E+03 
  44102.3727     0.28877E+03 
  44134.6349     0.28927E+03 
  44166.8970     0.28977E+03 
  44199.1592     0.29027E+03 
  44231.4214     0.29077E+03 
  44263.6835     0.29127E+03 
  44295.9457     0.29177E+03 
  44328.2078     0.29226E+03 
  44360.4700     0.29275E+03 
  44392.7322     0.29324E+03 
  44424.9943     0.29373E+03 
  44457.2565     0.29422E+03 
  44489.5186     0.29471E+03 
  44521.7808     0.29520E+03 
  44554.0430     0.29568E+03 
  44586.3051     0.29616E+03 
  44618.5673     0.29664E+03 
  44650.8294     0.29712E+03 
  44683.0916     0.29760E+03 
  44715.3538     0.29808E+03 
  44747.6159     0.29855E+03 
  44779.8781     0.29903E+03 
  44812.1402     0.29950E+03 
  44844.4024     0.29997E+03 
  44876.6646     0.30044E+03 
  44908.9267     0.30090E+03 
  44941.1889     0.30137E+03 
  44973.4510     0.30183E+03 
  45005.7132     0.30230E+03 
  45037.9754     0.30276E+03 
  45070.2375     0.30322E+03 
  45102.4997     0.30368E+03 
  45134.7618     0.30413E+03 
  45167.0240     0.30459E+03 
  45199.2862     0.30504E+03 
  45231.5483     0.30549E+03 
  45263.8105     0.30594E+03 
  45296.0726     0.30639E+03 
  45328.3348     0.30684E+03 
  45360.5970     0.30728E+03 
  45392.8591     0.30773E+03 
  45425.1213     0.30817E+03 
  45457.3834     0.30861E+03 
  45489.6456     0.30905E+03 
  45521.9078     0.30949E+03 
  45554.1699     0.30992E+03 
  45586.4321     0.31036E+03 
  45618.6942     0.31079E+03 
  45650.9564     0.31122E+03 
  45683.2186     0.31165E+03 
  45715.4807     0.31208E+03 
  45747.7429     0.31250E+03 
  45780.0050     0.31293E+03 
  45812.2672     0.31335E+03 
  45844.5294     0.31377E+03 
  45876.7915     0.31419E+03 
  45909.0537     0.31461E+03 
  45941.3158     0.31502E+03 
  45973.5780     0.31544E+03 
  46005.8402     0.31585E+03 
  46038.1023     0.31626E+03 
  46070.3645     0.31667E+03 
  46102.6266     0.31708E+03 
  46134.8888     0.31748E+03 
  46167.1510     0.31789E+03 
  46199.4131     0.31829E+03 
  46231.6753     0.31869E+03 
  46263.9374     0.31909E+03 
  46296.1996     0.31949E+03 
  46328.4618     0.31988E+03 
  46360.7239     0.32028E+03 
  46392.9861     0.32067E+03 
  46425.2482     0.32106E+03 
  46457.5104     0.32145E+03 
  46489.7726     0.32183E+03 
  46522.0347     0.32222E+03 
  46554.2969     0.32260E+03 
  46586.5590     0.32299E+03 
  46618.8212     0.32337E+03 
  46651.0834     0.32374E+03 
  46683.3455     0.32412E+03 
  46715.6077     0.32450E+03 
  46747.8698     0.32487E+03 
  46780.1320     0.32524E+03 
  46812.3942     0.32561E+03 
  46844.6563     0.32598E+03 
  46876.9185     0.32635E+03 
  46909.1806     0.32671E+03 
  46941.4428     0.32708E+03 
  46973.7050     0.32744E+03 
  47005.9671     0.32780E+03 
  47038.2293     0.32816E+03 
  47070.4914     0.32851E+03 
  47102.7536     0.32887E+03 
  47135.0158     0.32922E+03 
  47167.2779     0.32957E+03 
  47199.5401     0.32992E+03 
  47231.8022     0.33027E+03 
  47264.0644     0.33062E+03 
  47296.3266     0.33096E+03 
  47328.5887     0.33130E+03 
  47360.8509     0.33165E+03 
  47393.1130     0.33199E+03 
  47425.3752     0.33232E+03 
  47457.6374     0.33266E+03 
  47489.8995     0.33299E+03 
  47522.1617     0.33333E+03 
  47554.4238     0.33366E+03 
  47586.6860     0.33399E+03 
  47618.9482     0.33432E+03 
  47651.2103     0.33464E+03 
  47683.4725     0.33497E+03 
  47715.7346     0.33529E+03 
  47747.9968     0.33561E+03 
  47780.2590     0.33593E+03 
  47812.5211     0.33625E+03 
  47844.7833     0.33656E+03 
  47877.0454     0.33688E+03 
  47909.3076     0.33719E+03 
  47941.5698     0.33750E+03 
  47973.8319     0.33781E+03 
  48006.0941     0.33812E+03 
  48038.3562     0.33843E+03 
  48070.6184     0.33873E+03 
  48102.8806     0.33904E+03 
  48135.1427     0.33934E+03 
  48167.4049     0.33964E+03 
  48199.6670     0.33994E+03 
  48231.9292     0.34023E+03 
  48264.1914     0.34053E+03 
  48296.4535     0.34082E+03 
  48328.7157     0.34111E+03 
  48360.9778     0.34140E+03 
  48393.2400     0.34169E+03 
  48425.5022     0.34198E+03 
  48457.7643     0.34226E+03 
  48490.0265     0.34255E+03 
  48522.2886     0.34283E+03 
  48554.5508     0.34311E+03 
  48586.8130     0.34339E+03 
  48619.0751     0.34367E+03 
  48651.3373     0.34395E+03 
  48683.5994     0.34422E+03 
  48715.8616     0.34449E+03 
  48748.1238     0.34477E+03 
  48780.3859     0.34504E+03 
  48812.6481     0.34531E+03 
  48844.9102     0.34557E+03 
  48877.1724     0.34584E+03 
  48909.4346     0.34610E+03 
  48941.6967     0.34637E+03 
  48973.9589     0.34663E+03 
  49006.2210     0.34689E+03 
  49038.4832     0.34715E+03 
  49070.7454     0.34740E+03 
  49103.0075     0.34766E+03 
  49135.2697     0.34791E+03 
  49167.5318     0.34817E+03 
  49199.7940     0.34842E+03 
  49232.0562     0.34867E+03 
  49264.3183     0.34892E+03 
  49296.5805     0.34916E+03 
  49328.8426     0.34941E+03 
  49361.1048     0.34965E+03 
  49393.3670     0.34990E+03 
  49425.6291     0.35014E+03 
  49457.8913     0.35038E+03 
  49490.1534     0.35062E+03 
  49522.4156     0.35086E+03 
  49554.6778     0.35109E+03 
  49586.9399     0.35133E+03 
  49619.2021     0.35156E+03 
  49651.4642     0.35180E+03 
  49683.7264     0.35203E+03 
  49715.9886     0.35226E+03 
  49748.2507     0.35249E+03 
  49780.5129     0.35272E+03 
  49812.7750     0.35294E+03 
  49845.0372     0.35317E+03 
  49877.2994     0.35339E+03 
  49909.5615     0.35362E+03 
  49941.8237     0.35384E+03 
  49974.0858     0.35406E+03 
  50006.3480     0.35428E+03 
  50038.6102     0.35450E+03 
  50070.8723     0.35471E+03 
  50103.1345     0.35493E+03 
  50135.3966     0.35515E+03 
  50167.6588     0.35536E+03 
  50199.9210     0.35557E+03 
  50232.1831     0.35578E+03 
  50264.4453     0.35600E+03 
  50296.7074     0.35621E+03 
  50328.9696     0.35641E+03 
  50361.2318     0.35662E+03 
  50393.4939     0.35683E+03 
  50425.7561     0.35704E+03 
  50458.0182     0.35724E+03 
  50490.2804     0.35744E+03 
  50522.5426     0.35765E+03 
  50554.8047     0.35785E+03 
  50587.0669     0.35805E+03 
  50619.3290     0.35825E+03 
  50651.5912     0.35845E+03 
  50683.8534     0.35865E+03 
  50716.1155     0.35885E+03 
  50748.3777     0.35905E+03 
  50780.6398     0.35924E+03 
  50812.9020     0.35944E+03 
  50845.1642     0.35963E+03 
  50877.4263     0.35983E+03 
  50909.6885     0.36002E+03 
  50941.9506     0.36021E+03 
  50974.2128     0.36040E+03 
  51006.4750     0.36059E+03 
  51038.7371     0.36079E+03 
  51070.9993     0.36098E+03 
  51103.2614     0.36116E+03 
  51135.5236     0.36135E+03 
  51167.7858     0.36154E+03 
  51200.0479     0.36173E+03 
  51232.3101     0.36191E+03 
  51264.5722     0.36210E+03 
  51296.8344     0.36229E+03 
  51329.0966     0.36247E+03 
  51361.3587     0.36266E+03 
  51393.6209     0.36284E+03 
  51425.8830     0.36302E+03 
  51458.1452     0.36321E+03 
  51490.4074     0.36339E+03 
  51522.6695     0.36357E+03 
  51554.9317     0.36376E+03 
  51587.1938     0.36394E+03 
  51619.4560     0.36412E+03 
  51651.7182     0.36430E+03 
  51683.9803     0.36448E+03 
  51716.2425     0.36466E+03 
  51748.5046     0.36484E+03 
  51780.7668     0.36502E+03 
  51813.0290     0.36520E+03 
  51845.2911     0.36538E+03 
  51877.5533     0.36556E+03 
  51909.8154     0.36574E+03 
  51942.0776     0.36592E+03 
  51974.3398     0.36610E+03 
  52006.6019     0.36627E+03 
  52038.8641     0.36645E+03 
  52071.1262     0.36663E+03 
  52103.3884     0.36681E+03 
  52135.6506     0.36699E+03 
  52167.9127     0.36717E+03 
  52200.1749     0.36735E+03 
  52232.4370     0.36753E+03 
  52264.6992     0.36770E+03 
  52296.9614     0.36788E+03 
  52329.2235     0.36806E+03 
  52361.4857     0.36824E+03 
  52393.7478     0.36842E+03 
  52426.0100     0.36860E+03 
  52458.2722     0.36878E+03 
  52490.5343     0.36896E+03 
  52522.7965     0.36914E+03 
  52555.0586     0.36932E+03 
  52587.3208     0.36950E+03 
  52619.5830     0.36968E+03 
  52651.8451     0.36986E+03 
  52684.1073     0.37005E+03 
  52716.3694     0.37023E+03 
  52748.6316     0.37041E+03 
  52780.8938     0.37060E+03 
  52813.1559     0.37078E+03 
  52845.4181     0.37096E+03 
  52877.6802     0.37115E+03 
  52909.9424     0.37133E+03 
  52942.2046     0.37152E+03 
  52974.4667     0.37171E+03 
  53006.7289     0.37189E+03 
  53038.9910     0.37208E+03 
  53071.2532     0.37227E+03 
  53103.5154     0.37246E+03 
  53135.7775     0.37265E+03 
  53168.0397     0.37284E+03 
  53200.3018     0.37303E+03 
  53232.5640     0.37323E+03 
  53264.8262     0.37342E+03 
  53297.0883     0.37361E+03 
  53329.3505     0.37381E+03 
  53361.6126     0.37401E+03 
  53393.8748     0.37420E+03 
  53426.1370     0.37440E+03 
  53458.3991     0.37460E+03 
  53490.6613     0.37480E+03 
  53522.9234     0.37500E+03 
  53555.1856     0.37520E+03 
  53587.4478     0.37541E+03 
  53619.7099     0.37561E+03 
  53651.9721     0.37582E+03 
  53684.2342     0.37603E+03 
  53716.4964     0.37624E+03 
  53748.7586     0.37645E+03 
  53781.0207     0.37666E+03 
  53813.2829     0.37687E+03 
  53845.5450     0.37708E+03 
  53877.8072     0.37730E+03 
  53910.0694     0.37752E+03 
  53942.3315     0.37773E+03 
  53974.5937     0.37795E+03 
  54006.8558     0.37818E+03 
  54039.1180     0.37840E+03 
  54071.3802     0.37862E+03 
  54103.6423     0.37885E+03 
  54135.9045     0.37908E+03 
  54168.1666     0.37931E+03 
  54200.4288     0.37954E+03 
  54232.6910     0.37977E+03 
  54264.9531     0.38001E+03 
  54297.2153     0.38025E+03 
  54329.4774     0.38048E+03 
  54361.7396     0.38072E+03 
  54394.0018     0.38097E+03 
  54426.2639     0.38121E+03 
  54458.5261     0.38146E+03 
  54490.7882     0.38171E+03 
  54523.0504     0.38196E+03 
  54555.3126     0.38221E+03 
  54587.5747     0.38247E+03 
  54619.8369     0.38272E+03 
  54652.0990     0.38298E+03 
  54684.3612     0.38324E+03 
  54716.6234     0.38351E+03 
  54748.8855     0.38377E+03 
  54781.1477     0.38404E+03 
  54813.4098     0.38431E+03 
  54845.6720     0.38459E+03 
  54877.9342     0.38486E+03 
  54910.1963     0.38514E+03 
  54942.4585     0.38542E+03 
  54974.7206     0.38571E+03 
  55006.9828     0.38599E+03 
  55039.2450     0.38628E+03 
  55071.5071     0.38657E+03 
  55103.7693     0.38687E+03 
  55136.0314     0.38716E+03 
  55168.2936     0.38746E+03 
  55200.5558     0.38777E+03 
  55232.8179     0.38807E+03 
  55265.0801     0.38838E+03 
  55297.3422     0.38869E+03 
  55329.6044     0.38900E+03 
  55361.8666     0.38932E+03 
  55394.1287     0.38964E+03 
  55426.3909     0.38997E+03 
  55458.6530     0.39029E+03 
  55490.9152     0.39062E+03 
  55523.1774     0.39095E+03 
  55555.4395     0.39129E+03 
  55587.7017     0.39163E+03 
  55619.9638     0.39197E+03 
  55652.2260     0.39232E+03 
  55684.4882     0.39267E+03 
  55716.7503     0.39302E+03 
  55749.0125     0.39338E+03 
  55781.2746     0.39374E+03 
  55813.5368     0.39410E+03 
  55845.7990     0.39447E+03 
  55878.0611     0.39484E+03 
  55910.3233     0.39521E+03 
  55942.5854     0.39559E+03 
  55974.8476     0.39597E+03 
  56007.1098     0.39636E+03 
  56039.3719     0.39675E+03 
  56071.6341     0.39714E+03 
  56103.8962     0.39754E+03 
  56136.1584     0.39794E+03 
  56168.4206     0.39835E+03 
  56200.6827     0.39875E+03 
  56232.9449     0.39917E+03 
  56265.2070     0.39959E+03 
  56297.4692     0.40001E+03 
  56329.7314     0.40043E+03 
  56361.9935     0.40086E+03 
  56394.2557     0.40130E+03 
  56426.5178     0.40174E+03 
  56458.7800     0.40218E+03 
  56491.0422     0.40263E+03 
  56523.3043     0.40308E+03 
  56555.5665     0.40354E+03 
  56587.8286     0.40400E+03 
  56620.0908     0.40446E+03 
  56652.3530     0.40493E+03 
  56684.6151     0.40541E+03 
  56716.8773     0.40589E+03 
  56749.1394     0.40637E+03 
  56781.4016     0.40686E+03 
  56813.6638     0.40736E+03 
  56845.9259     0.40785E+03 
  56878.1881     0.40836E+03 
  56910.4502     0.40887E+03 
  56942.7124     0.40938E+03 
  56974.9746     0.40990E+03 
  57007.2367     0.41043E+03 
  57039.4989     0.41095E+03 
  57071.7610     0.41149E+03 
  57104.0232     0.41203E+03 
  57136.2854     0.41257E+03 
  57168.5475     0.41313E+03 
  57200.8097     0.41368E+03 
  57233.0718     0.41424E+03 
  57265.3340     0.41481E+03 
  57297.5962     0.41538E+03 
  57329.8583     0.41596E+03 
  57362.1205     0.41654E+03 
  57394.3826     0.41713E+03 
  57426.6448     0.41773E+03 
  57458.9070     0.41833E+03 
  57491.1691     0.41893E+03 
  57523.4313     0.41955E+03 
  57555.6934     0.42016E+03 
  57587.9556     0.42079E+03 
  57620.2178     0.42142E+03 
  57652.4799     0.42206E+03 
  57684.7421     0.42270E+03 
  57717.0042     0.42335E+03 
  57749.2664     0.42400E+03 
  57781.5286     0.42466E+03 
  57813.7907     0.42533E+03 
  57846.0529     0.42600E+03 
  57878.3150     0.42668E+03 
  57910.5772     0.42737E+03 
  57942.8394     0.42806E+03 
  57975.1015     0.42876E+03 
  58007.3637     0.42946E+03 
  58039.6258     0.43018E+03 
  58071.8880     0.43089E+03 
  58104.1502     0.43162E+03 
  58136.4123     0.43235E+03 
  58168.6745     0.43309E+03 
  58200.9366     0.43384E+03 
  58233.1988     0.43459E+03 
  58265.4610     0.43535E+03 
  58297.7231     0.43612E+03 
  58329.9853     0.43689E+03 
  58362.2474     0.43767E+03 
  58394.5096     0.43846E+03 
  58426.7718     0.43925E+03 
  58459.0339     0.44005E+03 
  58491.2961     0.44086E+03 
  58523.5582     0.44168E+03 
  58555.8204     0.44250E+03 
  58588.0826     0.44334E+03 
  58620.3447     0.44417E+03 
  58652.6069     0.44502E+03 
  58684.8690     0.44588E+03 
  58717.1312     0.44674E+03 
  58749.3934     0.44761E+03 
  58781.6555     0.44848E+03 
  58813.9177     0.44937E+03 
  58846.1798     0.45026E+03 
  58878.4420     0.45116E+03 
  58910.7042     0.45207E+03 
  58942.9663     0.45298E+03 
  58975.2285     0.45391E+03 
  59007.4906     0.45484E+03 
  59039.7528     0.45578E+03 
  59072.0150     0.45673E+03 
  59104.2771     0.45769E+03 
  59136.5393     0.45865E+03 
  59168.8014     0.45962E+03 
  59201.0636     0.46060E+03 
  59233.3258     0.46159E+03 
  59265.5879     0.46259E+03 
  59297.8501     0.46360E+03 
  59330.1122     0.46461E+03 
  59362.3744     0.46564E+03 
  59394.6366     0.46667E+03 
  59426.8987     0.46771E+03 
  59459.1609     0.46876E+03 
  59491.4230     0.46982E+03 
  59523.6852     0.47089E+03 
  59555.9474     0.47196E+03 
  59588.2095     0.47305E+03 
  59620.4717     0.47414E+03 
  59652.7338     0.47525E+03 
  59684.9960     0.47636E+03 
  59717.2582     0.47748E+03 
  59749.5203     0.47861E+03 
  59781.7825     0.47975E+03 
  59814.0446     0.48090E+03 
  59846.3068     0.48206E+03 
  59878.5690     0.48322E+03 
  59910.8311     0.48440E+03 
  59943.0933     0.48559E+03 
  59975.3554     0.48678E+03 
  60007.6176     0.48799E+03 
  60039.8798     0.48920E+03 
  60072.1419     0.49043E+03 
  60104.4041     0.49166E+03 
  60136.6662     0.49291E+03 
  60168.9284     0.49416E+03 
  60201.1906     0.49542E+03 
  60233.4527     0.49670E+03 
  60265.7149     0.49798E+03 
  60297.9770     0.49928E+03 
  60330.2392     0.50058E+03 
  60362.5014     0.50189E+03 
  60394.7635     0.50322E+03 
  60427.0257     0.50455E+03 
  60459.2878     0.50590E+03 
  60491.5500     0.50725E+03 
  60523.8122     0.50862E+03 
  60556.0743     0.50999E+03 
  60588.3365     0.51138E+03 
  60620.5986     0.51277E+03 
  60652.8608     0.51418E+03 
  60685.1230     0.51560E+03 
  60717.3851     0.51703E+03 
  60749.6473     0.51847E+03 
  60781.9094     0.51992E+03 
  60814.1716     0.52138E+03 
  60846.4338     0.52285E+03 
  60878.6959     0.52433E+03 
  60910.9581     0.52582E+03 
  60943.2202     0.52733E+03 
  60975.4824     0.52884E+03 
  61007.7446     0.53037E+03 
  61040.0067     0.53190E+03 
  61072.2689     0.53345E+03 
  61104.5310     0.53501E+03 
  61136.7932     0.53658E+03 
  61169.0554     0.53816E+03 
  61201.3175     0.53976E+03 
  61233.5797     0.54136E+03 
  61265.8418     0.54298E+03 
  61298.1040     0.54461E+03 
  61330.3662     0.54625E+03 
  61362.6283     0.54790E+03 
  61394.8905     0.54956E+03 
  61427.1526     0.55123E+03 
  61459.4148     0.55292E+03 
  61491.6770     0.55462E+03 
  61523.9391     0.55633E+03 
  61556.2013     0.55805E+03 
  61588.4634     0.55978E+03 
  61620.7256     0.56152E+03 
  61652.9878     0.56328E+03 
  61685.2499     0.56505E+03 
  61717.5121     0.56683E+03 
  61749.7742     0.56863E+03 
  61782.0364     0.57043E+03 
  61814.2986     0.57225E+03 
  61846.5607     0.57408E+03 
  61878.8229     0.57592E+03 
  61911.0850     0.57778E+03 
  61943.3472     0.57964E+03 
  61975.6094     0.58152E+03 
  62007.8715     0.58341E+03 
  62040.1337     0.58532E+03 
  62072.3958     0.58724E+03 
  62104.6580     0.58917E+03 
  62136.9202     0.59111E+03 
  62169.1823     0.59306E+03 
  62201.4445     0.59503E+03 
  62233.7066     0.59701E+03 
  62265.9688     0.59901E+03 
  62298.2310     0.60101E+03 
  62330.4931     0.60303E+03 
  62362.7553     0.60506E+03 
  62395.0174     0.60711E+03 
  62427.2796     0.60917E+03 
  62459.5418     0.61124E+03 
  62491.8039     0.61332E+03 
  62524.0661     0.61542E+03 
  62556.3282     0.61753E+03 
  62588.5904     0.61966E+03 
  62620.8526     0.62180E+03 
  62653.1147     0.62395E+03 
  62685.3769     0.62611E+03 
  62717.6390     0.62829E+03 
  62749.9012     0.63048E+03 
  62782.1634     0.63269E+03 
  62814.4255     0.63490E+03 
  62846.6877     0.63714E+03 
  62878.9498     0.63938E+03 
  62911.2120     0.64164E+03 
  62943.4742     0.64391E+03 
  62975.7363     0.64620E+03 
  63007.9985     0.64850E+03 
  63040.2606     0.65082E+03 
  63072.5228     0.65314E+03 
  63104.7850     0.65549E+03 
  63137.0471     0.65784E+03 
  63169.3093     0.66021E+03 
  63201.5714     0.66260E+03 
  63233.8336     0.66499E+03 
  63266.0958     0.66741E+03 
  63298.3579     0.66983E+03 
  63330.6201     0.67227E+03 
  63362.8822     0.67473E+03 
  63395.1444     0.67720E+03 
  63427.4066     0.67968E+03 
  63459.6687     0.68218E+03 
  63491.9309     0.68469E+03 
  63524.1930     0.68722E+03 
  63556.4552     0.68976E+03 
  63588.7174     0.69231E+03 
  63620.9795     0.69488E+03 
  63653.2417     0.69747E+03 
  63685.5038     0.70007E+03 
  63717.7660     0.70268E+03 
  63750.0282     0.70531E+03 
  63782.2903     0.70795E+03 
  63814.5525     0.71061E+03 
  63846.8146     0.71328E+03 
  63879.0768     0.71597E+03 
  63911.3390     0.71867E+03 
  63943.6011     0.72138E+03 
  63975.8633     0.72412E+03 
  64008.1254     0.72686E+03 
  64040.3876     0.72962E+03 
  64072.6498     0.73240E+03 
  64104.9119     0.73519E+03 
  64137.1741     0.73800E+03 
  64169.4362     0.74082E+03 
  64201.6984     0.74365E+03 
  64233.9606     0.74650E+03 
  64266.2227     0.74937E+03 
  64298.4849     0.75225E+03 
  64330.7470     0.75515E+03 
  64363.0092     0.75806E+03 
  64395.2714     0.76099E+03 
  64427.5335     0.76393E+03 
  64459.7957     0.76689E+03 
  64492.0578     0.76986E+03 
  64524.3200     0.77285E+03 
  64556.5822     0.77586E+03 
  64588.8443     0.77888E+03 
  64621.1065     0.78191E+03 
  64653.3686     0.78496E+03 
  64685.6308     0.78803E+03 
  64717.8930     0.79111E+03 
  64750.1551     0.79420E+03 
  64782.4173     0.79732E+03 
  64814.6794     0.80044E+03 
  64846.9416     0.80359E+03 
  64879.2038     0.80675E+03 
  64911.4659     0.80992E+03 
  64943.7281     0.81311E+03 
  64975.9902     0.81632E+03 
  65008.2524     0.81954E+03 
  65040.5146     0.82278E+03 
  65072.7767     0.82603E+03 
  65105.0389     0.82930E+03 
  65137.3010     0.83259E+03 
  65169.5632     0.83589E+03 
  65201.8254     0.83921E+03 
  65234.0875     0.84254E+03 
  65266.3497     0.84589E+03 
  65298.6118     0.84925E+03 
  65330.8740     0.85263E+03 
  65363.1362     0.85603E+03 
  65395.3983     0.85944E+03 
  65427.6605     0.86287E+03 
  65459.9226     0.86631E+03 
  65492.1848     0.86977E+03 
  65524.4470     0.87325E+03 
  65556.7091     0.87674E+03 
  65588.9713     0.88025E+03 
  65621.2334     0.88378E+03 
  65653.4956     0.88732E+03 
  65685.7578     0.89087E+03 
  65718.0199     0.89445E+03 
  65750.2821     0.89804E+03 
  65782.5442     0.90164E+03 
  65814.8064     0.90526E+03 
  65847.0686     0.90890E+03 
  65879.3307     0.91256E+03 
  65911.5929     0.91623E+03 
  65943.8550     0.91991E+03 
  65976.1172     0.92361E+03 
  66008.3794     0.92733E+03 
  66040.6415     0.93107E+03 
  66072.9037     0.93482E+03 
  66105.1658     0.93859E+03 
  66137.4280     0.94237E+03 
  66169.6902     0.94617E+03 
  66201.9523     0.94999E+03 
  66234.2145     0.95382E+03 
  66266.4766     0.95767E+03 
  66298.7388     0.96154E+03 
  66331.0010     0.96542E+03 
  66363.2631     0.96932E+03 
  66395.5253     0.97323E+03 
  66427.7874     0.97716E+03 
  66460.0496     0.98111E+03 
  66492.3118     0.98507E+03 
  66524.5739     0.98905E+03 
  66556.8361     0.99305E+03 
  66589.0982     0.99706E+03 
  66621.3604     0.10011E+04 
  66653.6226     0.10051E+04 
  66685.8847     0.10092E+04 
  66718.1469     0.10133E+04 
  66750.4090     0.10174E+04 
  66782.6712     0.10215E+04 
  66814.9334     0.10256E+04 
  66847.1955     0.10298E+04 
  66879.4577     0.10339E+04 
  66911.7198     0.10381E+04 
  66943.9820     0.10423E+04 
  66976.2442     0.10465E+04 
  67008.5063     0.10507E+04 
  67040.7685     0.10550E+04 
  67073.0306     0.10592E+04 
  67105.2928     0.10635E+04 
  67137.5550     0.10678E+04 
  67169.8171     0.10721E+04 
  67202.0793     0.10764E+04 
  67234.3414     0.10808E+04 
  67266.6036     0.10851E+04 
  67298.8658     0.10895E+04 
  67331.1279     0.10939E+04 
  67363.3901     0.10983E+04 
  67395.6522     0.11027E+04 
  67427.9144     0.11071E+04 
  67460.1766     0.11116E+04 
  67492.4387     0.11161E+04 
  67524.7009     0.11205E+04 
  67556.9630     0.11251E+04 
  67589.2252     0.11296E+04 
  67621.4874     0.11341E+04 
  67653.7495     0.11387E+04 
  67686.0117     0.11432E+04 
  67718.2738     0.11478E+04 
  67750.5360     0.11524E+04 
  67782.7982     0.11570E+04 
  67815.0603     0.11617E+04 
  67847.3225     0.11663E+04 
  67879.5846     0.11710E+04 
  67911.8468     0.11757E+04 
  67944.1090     0.11804E+04 
  67976.3711     0.11851E+04 
  68008.6333     0.11898E+04 
  68040.8954     0.11945E+04 
  68073.1576     0.11993E+04 
  68105.4198     0.12041E+04 
  68137.6819     0.12089E+04 
  68169.9441     0.12137E+04 
  68202.2062     0.12185E+04 
  68234.4684     0.12234E+04 
  68266.7306     0.12282E+04 
  68298.9927     0.12331E+04 
  68331.2549     0.12380E+04 
  68363.5170     0.12429E+04 
  68395.7792     0.12478E+04 
  68428.0414     0.12527E+04 
  68460.3035     0.12577E+04 
  68492.5657     0.12627E+04 
  68524.8278     0.12676E+04 
  68557.0900     0.12726E+04 
  68589.3522     0.12777E+04 
  68621.6143     0.12827E+04 
  68653.8765     0.12877E+04 
  68686.1386     0.12928E+04 
  68718.4008     0.12979E+04 
  68750.6630     0.13030E+04 
  68782.9251     0.13081E+04 
  68815.1873     0.13132E+04 
  68847.4494     0.13184E+04 
  68879.7116     0.13235E+04 
  68911.9738     0.13287E+04 
  68944.2359     0.13339E+04 
  68976.4981     0.13391E+04 
  69008.7602     0.13443E+04 
  69041.0224     0.13495E+04 
  69073.2846     0.13548E+04 
  69105.5467     0.13600E+04 
  69137.8089     0.13653E+04 
  69170.0710     0.13706E+04 
  69202.3332     0.13759E+04 
  69234.5954     0.13812E+04 
  69266.8575     0.13866E+04 
  69299.1197     0.13919E+04 
  69331.3818     0.13973E+04 
  69363.6440     0.14027E+04 
  69395.9062     0.14081E+04 
  69428.1683     0.14135E+04 
  69460.4305     0.14189E+04 
  69492.6926     0.14244E+04 
  69524.9548     0.14298E+04 
  69557.2170     0.14353E+04 
  69589.4791     0.14408E+04 
  69621.7413     0.14463E+04 
  69654.0034     0.14518E+04 
  69686.2656     0.14573E+04 
  69718.5278     0.14629E+04 
  69750.7899     0.14684E+04 
  69783.0521     0.14740E+04 
  69815.3142     0.14796E+04 
  69847.5764     0.14852E+04 
  69879.8386     0.14908E+04 
  69912.1007     0.14965E+04 
  69944.3629     0.15021E+04 
  69976.6250     0.15078E+04 
  70008.8872     0.15134E+04 
  70041.1494     0.15191E+04 
  70073.4115     0.15248E+04 
  70105.6737     0.15305E+04 
  70137.9358     0.15363E+04 
  70170.1980     0.15420E+04 
  70202.4602     0.15478E+04 
  70234.7223     0.15535E+04 
  70266.9845     0.15593E+04 
  70299.2466     0.15651E+04 
  70331.5088     0.15709E+04 
  70363.7710     0.15768E+04 
  70396.0331     0.15826E+04 
  70428.2953     0.15885E+04 
  70460.5574     0.15943E+04 
  70492.8196     0.16002E+04 
  70525.0818     0.16061E+04 
  70557.3439     0.16120E+04 
  70589.6061     0.16179E+04 
  70621.8682     0.16239E+04 
  70654.1304     0.16298E+04 
  70686.3926     0.16358E+04 
  70718.6547     0.16417E+04 
  70750.9169     0.16477E+04 
  70783.1790     0.16537E+04 
  70815.4412     0.16597E+04 
  70847.7034     0.16657E+04 
  70879.9655     0.16718E+04 
  70912.2277     0.16778E+04 
  70944.4898     0.16839E+04 
  70976.7520     0.16900E+04 
  71009.0142     0.16960E+04 
  71041.2763     0.17021E+04 
  71073.5385     0.17082E+04 
  71105.8006     0.17144E+04 
  71138.0628     0.17205E+04 
  71170.3250     0.17266E+04 
  71202.5871     0.17328E+04 
  71234.8493     0.17390E+04 
  71267.1114     0.17452E+04 
  71299.3736     0.17513E+04 
  71331.6358     0.17575E+04 
  71363.8979     0.17638E+04 
  71396.1601     0.17700E+04 
  71428.4222     0.17762E+04 
  71460.6844     0.17825E+04 
  71492.9466     0.17887E+04 
  71525.2087     0.17950E+04 
  71557.4709     0.18013E+04 
  71589.7330     0.18076E+04 
  71621.9952     0.18139E+04 
  71654.2574     0.18202E+04 
  71686.5195     0.18266E+04 
  71718.7817     0.18329E+04 
  71751.0438     0.18392E+04 
  71783.3060     0.18456E+04 
  71815.5682     0.18520E+04 
  71847.8303     0.18584E+04 
  71880.0925     0.18647E+04 
  71912.3546     0.18712E+04 
  71944.6168     0.18776E+04 
  71976.8790     0.18840E+04 
  72009.1411     0.18904E+04 
  72041.4033     0.18969E+04 
  72073.6654     0.19033E+04 
  72105.9276     0.19098E+04 
  72138.1898     0.19163E+04 
  72170.4519     0.19227E+04 
  72202.7141     0.19292E+04 
  72234.9762     0.19357E+04 
  72267.2384     0.19422E+04 
  72299.5006     0.19488E+04 
  72331.7627     0.19553E+04 
  72364.0249     0.19618E+04 
  72396.2870     0.19684E+04 
  72428.5492     0.19749E+04 
  72460.8114     0.19815E+04 
  72493.0735     0.19881E+04 
  72525.3357     0.19947E+04 
  72557.5978     0.20013E+04 
  72589.8600     0.20079E+04 
