  32262.1600     0.82598E+02 
  32294.4222     0.83305E+02 
  32326.6843     0.84017E+02 
  32358.9465     0.84732E+02 
  32391.2086     0.85452E+02 
  32423.4708     0.86174E+02 
  32455.7330     0.86901E+02 
  32487.9951     0.87631E+02 
  32520.2573     0.88365E+02 
  32552.5194     0.89103E+02 
  32584.7816     0.89845E+02 
  32617.0438     0.90590E+02 
  32649.3059     0.91339E+02 
  32681.5681     0.92092E+02 
  32713.8302     0.92848E+02 
  32746.0924     0.93608E+02 
  32778.3546     0.94372E+02 
  32810.6167     0.95140E+02 
  32842.8789     0.95911E+02 
  32875.1410     0.96686E+02 
  32907.4032     0.97464E+02 
  32939.6654     0.98246E+02 
  32971.9275     0.99032E+02 
  33004.1897     0.99821E+02 
  33036.4518     0.10061E+03 
  33068.7140     0.10141E+03 
  33100.9762     0.10221E+03 
  33133.2383     0.10302E+03 
  33165.5005     0.10382E+03 
  33197.7626     0.10463E+03 
  33230.0248     0.10545E+03 
  33262.2870     0.10627E+03 
  33294.5491     0.10709E+03 
  33326.8113     0.10791E+03 
  33359.0734     0.10874E+03 
  33391.3356     0.10957E+03 
  33423.5978     0.11041E+03 
  33455.8599     0.11125E+03 
  33488.1221     0.11209E+03 
  33520.3842     0.11294E+03 
  33552.6464     0.11379E+03 
  33584.9086     0.11464E+03 
  33617.1707     0.11550E+03 
  33649.4329     0.11636E+03 
  33681.6950     0.11722E+03 
  33713.9572     0.11809E+03 
  33746.2194     0.11896E+03 
  33778.4815     0.11983E+03 
  33810.7437     0.12071E+03 
  33843.0058     0.12159E+03 
  33875.2680     0.12247E+03 
  33907.5302     0.12336E+03 
  33939.7923     0.12425E+03 
  33972.0545     0.12514E+03 
  34004.3166     0.12604E+03 
  34036.5788     0.12694E+03 
  34068.8410     0.12784E+03 
  34101.1031     0.12874E+03 
  34133.3653     0.12965E+03 
  34165.6274     0.13056E+03 
  34197.8896     0.13148E+03 
  34230.1518     0.13240E+03 
  34262.4139     0.13332E+03 
  34294.6761     0.13424E+03 
  34326.9382     0.13517E+03 
  34359.2004     0.13610E+03 
  34391.4626     0.13704E+03 
  34423.7247     0.13797E+03 
  34455.9869     0.13891E+03 
  34488.2490     0.13985E+03 
  34520.5112     0.14080E+03 
  34552.7734     0.14175E+03 
  34585.0355     0.14270E+03 
  34617.2977     0.14365E+03 
  34649.5598     0.14461E+03 
  34681.8220     0.14557E+03 
  34714.0842     0.14653E+03 
  34746.3463     0.14749E+03 
  34778.6085     0.14846E+03 
  34810.8706     0.14943E+03 
  34843.1328     0.15041E+03 
  34875.3950     0.15138E+03 
  34907.6571     0.15236E+03 
  34939.9193     0.15334E+03 
  34972.1814     0.15432E+03 
  35004.4436     0.15531E+03 
  35036.7058     0.15630E+03 
  35068.9679     0.15729E+03 
  35101.2301     0.15828E+03 
  35133.4922     0.15928E+03 
  35165.7544     0.16028E+03 
  35198.0166     0.16128E+03 
  35230.2787     0.16228E+03 
  35262.5409     0.16328E+03 
  35294.8030     0.16429E+03 
  35327.0652     0.16530E+03 
  35359.3274     0.16631E+03 
  35391.5895     0.16733E+03 
  35423.8517     0.16834E+03 
  35456.1138     0.16936E+03 
  35488.3760     0.17038E+03 
  35520.6382     0.17141E+03 
  35552.9003     0.17243E+03 
  35585.1625     0.17346E+03 
  35617.4246     0.17449E+03 
  35649.6868     0.17552E+03 
  35681.9490     0.17655E+03 
  35714.2111     0.17758E+03 
  35746.4733     0.17862E+03 
  35778.7354     0.17966E+03 
  35810.9976     0.18070E+03 
  35843.2598     0.18174E+03 
  35875.5219     0.18278E+03 
  35907.7841     0.18383E+03 
  35940.0462     0.18487E+03 
  35972.3084     0.18592E+03 
  36004.5706     0.18697E+03 
  36036.8327     0.18802E+03 
  36069.0949     0.18908E+03 
  36101.3570     0.19013E+03 
  36133.6192     0.19119E+03 
  36165.8814     0.19224E+03 
  36198.1435     0.19330E+03 
  36230.4057     0.19436E+03 
  36262.6678     0.19542E+03 
  36294.9300     0.19649E+03 
  36327.1922     0.19755E+03 
  36359.4543     0.19861E+03 
  36391.7165     0.19968E+03 
  36423.9786     0.20075E+03 
  36456.2408     0.20182E+03 
  36488.5030     0.20288E+03 
  36520.7651     0.20395E+03 
  36553.0273     0.20503E+03 
  36585.2894     0.20610E+03 
  36617.5516     0.20717E+03 
  36649.8138     0.20824E+03 
  36682.0759     0.20932E+03 
  36714.3381     0.21039E+03 
  36746.6002     0.21147E+03 
  36778.8624     0.21255E+03 
  36811.1246     0.21363E+03 
  36843.3867     0.21470E+03 
  36875.6489     0.21578E+03 
  36907.9110     0.21686E+03 
  36940.1732     0.21794E+03 
  36972.4354     0.21902E+03 
  37004.6975     0.22010E+03 
  37036.9597     0.22118E+03 
  37069.2218     0.22226E+03 
  37101.4840     0.22334E+03 
  37133.7462     0.22443E+03 
  37166.0083     0.22551E+03 
  37198.2705     0.22659E+03 
  37230.5326     0.22767E+03 
  37262.7948     0.22876E+03 
  37295.0570     0.22984E+03 
  37327.3191     0.23092E+03 
  37359.5813     0.23200E+03 
  37391.8434     0.23308E+03 
  37424.1056     0.23417E+03 
  37456.3678     0.23525E+03 
  37488.6299     0.23633E+03 
  37520.8921     0.23741E+03 
  37553.1542     0.23849E+03 
  37585.4164     0.23957E+03 
  37617.6786     0.24065E+03 
  37649.9407     0.24173E+03 
  37682.2029     0.24281E+03 
  37714.4650     0.24389E+03 
  37746.7272     0.24497E+03 
  37778.9894     0.24605E+03 
  37811.2515     0.24712E+03 
  37843.5137     0.24820E+03 
  37875.7758     0.24928E+03 
  37908.0380     0.25035E+03 
  37940.3002     0.25142E+03 
  37972.5623     0.25250E+03 
  38004.8245     0.25357E+03 
  38037.0866     0.25464E+03 
  38069.3488     0.25571E+03 
  38101.6110     0.25678E+03 
  38133.8731     0.25785E+03 
  38166.1353     0.25891E+03 
  38198.3974     0.25998E+03 
  38230.6596     0.26104E+03 
  38262.9218     0.26211E+03 
  38295.1839     0.26317E+03 
  38327.4461     0.26423E+03 
  38359.7082     0.26529E+03 
  38391.9704     0.26635E+03 
  38424.2326     0.26740E+03 
  38456.4947     0.26846E+03 
  38488.7569     0.26951E+03 
  38521.0190     0.27056E+03 
  38553.2812     0.27161E+03 
  38585.5434     0.27266E+03 
  38617.8055     0.27370E+03 
  38650.0677     0.27475E+03 
  38682.3298     0.27579E+03 
  38714.5920     0.27683E+03 
  38746.8542     0.27787E+03 
  38779.1163     0.27891E+03 
  38811.3785     0.27994E+03 
  38843.6406     0.28097E+03 
  38875.9028     0.28200E+03 
  38908.1650     0.28303E+03 
  38940.4271     0.28406E+03 
  38972.6893     0.28508E+03 
  39004.9514     0.28610E+03 
  39037.2136     0.28712E+03 
  39069.4758     0.28814E+03 
  39101.7379     0.28915E+03 
  39134.0001     0.29016E+03 
  39166.2622     0.29117E+03 
  39198.5244     0.29218E+03 
  39230.7866     0.29318E+03 
  39263.0487     0.29418E+03 
  39295.3109     0.29518E+03 
  39327.5730     0.29618E+03 
  39359.8352     0.29717E+03 
  39392.0974     0.29816E+03 
  39424.3595     0.29915E+03 
  39456.6217     0.30013E+03 
  39488.8838     0.30111E+03 
  39521.1460     0.30209E+03 
  39553.4082     0.30307E+03 
  39585.6703     0.30404E+03 
  39617.9325     0.30501E+03 
  39650.1946     0.30597E+03 
  39682.4568     0.30694E+03 
  39714.7190     0.30790E+03 
  39746.9811     0.30885E+03 
  39779.2433     0.30980E+03 
  39811.5054     0.31075E+03 
  39843.7676     0.31170E+03 
  39876.0298     0.31264E+03 
  39908.2919     0.31358E+03 
  39940.5541     0.31451E+03 
  39972.8162     0.31545E+03 
  40005.0784     0.31637E+03 
  40037.3406     0.31730E+03 
  40069.6027     0.31822E+03 
  40101.8649     0.31913E+03 
  40134.1270     0.32005E+03 
  40166.3892     0.32096E+03 
  40198.6514     0.32186E+03 
  40230.9135     0.32276E+03 
  40263.1757     0.32366E+03 
  40295.4378     0.32455E+03 
  40327.7000     0.32544E+03 
  40359.9622     0.32632E+03 
  40392.2243     0.32720E+03 
  40424.4865     0.32808E+03 
  40456.7486     0.32895E+03 
  40489.0108     0.32982E+03 
  40521.2730     0.33068E+03 
  40553.5351     0.33154E+03 
  40585.7973     0.33240E+03 
  40618.0594     0.33325E+03 
  40650.3216     0.33409E+03 
  40682.5838     0.33493E+03 
  40714.8459     0.33577E+03 
  40747.1081     0.33660E+03 
  40779.3702     0.33743E+03 
  40811.6324     0.33825E+03 
  40843.8946     0.33907E+03 
  40876.1567     0.33988E+03 
  40908.4189     0.34069E+03 
  40940.6810     0.34150E+03 
  40972.9432     0.34229E+03 
  41005.2054     0.34309E+03 
  41037.4675     0.34388E+03 
  41069.7297     0.34466E+03 
  41101.9918     0.34544E+03 
  41134.2540     0.34621E+03 
  41166.5162     0.34698E+03 
  41198.7783     0.34775E+03 
  41231.0405     0.34851E+03 
  41263.3026     0.34926E+03 
  41295.5648     0.35001E+03 
  41327.8270     0.35075E+03 
  41360.0891     0.35149E+03 
  41392.3513     0.35222E+03 
  41424.6134     0.35295E+03 
  41456.8756     0.35367E+03 
  41489.1378     0.35439E+03 
  41521.3999     0.35510E+03 
  41553.6621     0.35580E+03 
  41585.9242     0.35650E+03 
  41618.1864     0.35720E+03 
  41650.4486     0.35788E+03 
  41682.7107     0.35857E+03 
  41714.9729     0.35925E+03 
  41747.2350     0.35992E+03 
  41779.4972     0.36058E+03 
  41811.7594     0.36124E+03 
  41844.0215     0.36190E+03 
  41876.2837     0.36255E+03 
  41908.5458     0.36319E+03 
  41940.8080     0.36383E+03 
  41973.0702     0.36446E+03 
  42005.3323     0.36508E+03 
  42037.5945     0.36570E+03 
  42069.8566     0.36632E+03 
  42102.1188     0.36693E+03 
  42134.3810     0.36753E+03 
  42166.6431     0.36812E+03 
  42198.9053     0.36871E+03 
  42231.1674     0.36930E+03 
  42263.4296     0.36987E+03 
  42295.6918     0.37044E+03 
  42327.9539     0.37101E+03 
  42360.2161     0.37157E+03 
  42392.4782     0.37212E+03 
  42424.7404     0.37267E+03 
  42457.0026     0.37321E+03 
  42489.2647     0.37374E+03 
  42521.5269     0.37427E+03 
  42553.7890     0.37479E+03 
  42586.0512     0.37530E+03 
  42618.3134     0.37581E+03 
  42650.5755     0.37631E+03 
  42682.8377     0.37681E+03 
  42715.0998     0.37730E+03 
  42747.3620     0.37778E+03 
  42779.6242     0.37826E+03 
  42811.8863     0.37873E+03 
  42844.1485     0.37919E+03 
  42876.4106     0.37965E+03 
  42908.6728     0.38010E+03 
  42940.9350     0.38054E+03 
  42973.1971     0.38098E+03 
  43005.4593     0.38141E+03 
  43037.7214     0.38183E+03 
  43069.9836     0.38225E+03 
  43102.2458     0.38266E+03 
  43134.5079     0.38306E+03 
  43166.7701     0.38346E+03 
  43199.0322     0.38385E+03 
  43231.2944     0.38424E+03 
  43263.5566     0.38461E+03 
  43295.8187     0.38498E+03 
  43328.0809     0.38535E+03 
  43360.3430     0.38570E+03 
  43392.6052     0.38605E+03 
  43424.8674     0.38639E+03 
  43457.1295     0.38673E+03 
  43489.3917     0.38706E+03 
  43521.6538     0.38738E+03 
  43553.9160     0.38770E+03 
  43586.1782     0.38801E+03 
  43618.4403     0.38831E+03 
  43650.7025     0.38860E+03 
  43682.9646     0.38889E+03 
  43715.2268     0.38917E+03 
  43747.4890     0.38945E+03 
  43779.7511     0.38971E+03 
  43812.0133     0.38997E+03 
  43844.2754     0.39023E+03 
  43876.5376     0.39047E+03 
  43908.7998     0.39071E+03 
  43941.0619     0.39094E+03 
  43973.3241     0.39117E+03 
  44005.5862     0.39139E+03 
  44037.8484     0.39160E+03 
  44070.1106     0.39180E+03 
  44102.3727     0.39200E+03 
  44134.6349     0.39219E+03 
  44166.8970     0.39237E+03 
  44199.1592     0.39255E+03 
  44231.4214     0.39272E+03 
  44263.6835     0.39288E+03 
  44295.9457     0.39303E+03 
  44328.2078     0.39318E+03 
  44360.4700     0.39332E+03 
  44392.7322     0.39346E+03 
  44424.9943     0.39358E+03 
  44457.2565     0.39370E+03 
  44489.5186     0.39382E+03 
  44521.7808     0.39392E+03 
  44554.0430     0.39402E+03 
  44586.3051     0.39411E+03 
  44618.5673     0.39420E+03 
  44650.8294     0.39427E+03 
  44683.0916     0.39434E+03 
  44715.3538     0.39441E+03 
  44747.6159     0.39446E+03 
  44779.8781     0.39451E+03 
  44812.1402     0.39455E+03 
  44844.4024     0.39459E+03 
  44876.6646     0.39461E+03 
  44908.9267     0.39464E+03 
  44941.1889     0.39465E+03 
  44973.4510     0.39466E+03 
  45005.7132     0.39466E+03 
  45037.9754     0.39465E+03 
  45070.2375     0.39463E+03 
  45102.4997     0.39461E+03 
  45134.7618     0.39458E+03 
  45167.0240     0.39455E+03 
  45199.2862     0.39450E+03 
  45231.5483     0.39445E+03 
  45263.8105     0.39440E+03 
  45296.0726     0.39433E+03 
  45328.3348     0.39426E+03 
  45360.5970     0.39419E+03 
  45392.8591     0.39410E+03 
  45425.1213     0.39401E+03 
  45457.3834     0.39391E+03 
  45489.6456     0.39381E+03 
  45521.9078     0.39369E+03 
  45554.1699     0.39357E+03 
  45586.4321     0.39345E+03 
  45618.6942     0.39331E+03 
  45650.9564     0.39317E+03 
  45683.2186     0.39303E+03 
  45715.4807     0.39287E+03 
  45747.7429     0.39271E+03 
  45780.0050     0.39254E+03 
  45812.2672     0.39237E+03 
  45844.5294     0.39219E+03 
  45876.7915     0.39200E+03 
  45909.0537     0.39181E+03 
  45941.3158     0.39160E+03 
  45973.5780     0.39140E+03 
  46005.8402     0.39118E+03 
  46038.1023     0.39096E+03 
  46070.3645     0.39073E+03 
  46102.6266     0.39049E+03 
  46134.8888     0.39025E+03 
  46167.1510     0.39000E+03 
  46199.4131     0.38975E+03 
  46231.6753     0.38948E+03 
  46263.9374     0.38922E+03 
  46296.1996     0.38894E+03 
  46328.4618     0.38866E+03 
  46360.7239     0.38837E+03 
  46392.9861     0.38807E+03 
  46425.2482     0.38777E+03 
  46457.5104     0.38746E+03 
  46489.7726     0.38715E+03 
  46522.0347     0.38683E+03 
  46554.2969     0.38650E+03 
  46586.5590     0.38617E+03 
  46618.8212     0.38582E+03 
  46651.0834     0.38548E+03 
  46683.3455     0.38512E+03 
  46715.6077     0.38476E+03 
  46747.8698     0.38440E+03 
  46780.1320     0.38402E+03 
  46812.3942     0.38365E+03 
  46844.6563     0.38326E+03 
  46876.9185     0.38287E+03 
  46909.1806     0.38247E+03 
  46941.4428     0.38207E+03 
  46973.7050     0.38166E+03 
  47005.9671     0.38124E+03 
  47038.2293     0.38082E+03 
  47070.4914     0.38039E+03 
  47102.7536     0.37995E+03 
  47135.0158     0.37951E+03 
  47167.2779     0.37906E+03 
  47199.5401     0.37861E+03 
  47231.8022     0.37815E+03 
  47264.0644     0.37769E+03 
  47296.3266     0.37721E+03 
  47328.5887     0.37674E+03 
  47360.8509     0.37625E+03 
  47393.1130     0.37577E+03 
  47425.3752     0.37527E+03 
  47457.6374     0.37477E+03 
  47489.8995     0.37426E+03 
  47522.1617     0.37375E+03 
  47554.4238     0.37323E+03 
  47586.6860     0.37271E+03 
  47618.9482     0.37218E+03 
  47651.2103     0.37164E+03 
  47683.4725     0.37110E+03 
  47715.7346     0.37055E+03 
  47747.9968     0.37000E+03 
  47780.2590     0.36944E+03 
  47812.5211     0.36888E+03 
  47844.7833     0.36831E+03 
  47877.0454     0.36774E+03 
  47909.3076     0.36716E+03 
  47941.5698     0.36657E+03 
  47973.8319     0.36598E+03 
  48006.0941     0.36538E+03 
  48038.3562     0.36478E+03 
  48070.6184     0.36418E+03 
  48102.8806     0.36356E+03 
  48135.1427     0.36295E+03 
  48167.4049     0.36232E+03 
  48199.6670     0.36170E+03 
  48231.9292     0.36106E+03 
  48264.1914     0.36042E+03 
  48296.4535     0.35978E+03 
  48328.7157     0.35913E+03 
  48360.9778     0.35848E+03 
  48393.2400     0.35782E+03 
  48425.5022     0.35716E+03 
  48457.7643     0.35649E+03 
  48490.0265     0.35581E+03 
  48522.2886     0.35513E+03 
  48554.5508     0.35445E+03 
  48586.8130     0.35376E+03 
  48619.0751     0.35307E+03 
  48651.3373     0.35237E+03 
  48683.5994     0.35167E+03 
  48715.8616     0.35096E+03 
  48748.1238     0.35025E+03 
  48780.3859     0.34953E+03 
  48812.6481     0.34881E+03 
  48844.9102     0.34809E+03 
  48877.1724     0.34736E+03 
  48909.4346     0.34662E+03 
  48941.6967     0.34588E+03 
  48973.9589     0.34514E+03 
  49006.2210     0.34439E+03 
  49038.4832     0.34364E+03 
  49070.7454     0.34288E+03 
  49103.0075     0.34212E+03 
  49135.2697     0.34135E+03 
  49167.5318     0.34058E+03 
  49199.7940     0.33981E+03 
  49232.0562     0.33903E+03 
  49264.3183     0.33825E+03 
  49296.5805     0.33746E+03 
  49328.8426     0.33667E+03 
  49361.1048     0.33588E+03 
  49393.3670     0.33508E+03 
  49425.6291     0.33427E+03 
  49457.8913     0.33347E+03 
  49490.1534     0.33266E+03 
  49522.4156     0.33184E+03 
  49554.6778     0.33102E+03 
  49586.9399     0.33020E+03 
  49619.2021     0.32938E+03 
  49651.4642     0.32855E+03 
  49683.7264     0.32771E+03 
  49715.9886     0.32688E+03 
  49748.2507     0.32604E+03 
  49780.5129     0.32519E+03 
  49812.7750     0.32434E+03 
  49845.0372     0.32349E+03 
  49877.2994     0.32264E+03 
  49909.5615     0.32178E+03 
  49941.8237     0.32092E+03 
  49974.0858     0.32005E+03 
  50006.3480     0.31918E+03 
  50038.6102     0.31831E+03 
  50070.8723     0.31744E+03 
  50103.1345     0.31656E+03 
  50135.3966     0.31568E+03 
  50167.6588     0.31479E+03 
  50199.9210     0.31390E+03 
  50232.1831     0.31301E+03 
  50264.4453     0.31212E+03 
  50296.7074     0.31122E+03 
  50328.9696     0.31032E+03 
  50361.2318     0.30942E+03 
  50393.4939     0.30851E+03 
  50425.7561     0.30760E+03 
  50458.0182     0.30669E+03 
  50490.2804     0.30577E+03 
  50522.5426     0.30486E+03 
  50554.8047     0.30394E+03 
  50587.0669     0.30301E+03 
  50619.3290     0.30209E+03 
  50651.5912     0.30116E+03 
  50683.8534     0.30023E+03 
  50716.1155     0.29929E+03 
  50748.3777     0.29836E+03 
  50780.6398     0.29742E+03 
  50812.9020     0.29648E+03 
  50845.1642     0.29553E+03 
  50877.4263     0.29459E+03 
  50909.6885     0.29364E+03 
  50941.9506     0.29269E+03 
  50974.2128     0.29173E+03 
  51006.4750     0.29078E+03 
  51038.7371     0.28982E+03 
  51070.9993     0.28886E+03 
  51103.2614     0.28790E+03 
  51135.5236     0.28694E+03 
  51167.7858     0.28597E+03 
  51200.0479     0.28500E+03 
  51232.3101     0.28403E+03 
  51264.5722     0.28306E+03 
  51296.8344     0.28208E+03 
  51329.0966     0.28111E+03 
  51361.3587     0.28013E+03 
  51393.6209     0.27915E+03 
  51425.8830     0.27817E+03 
  51458.1452     0.27718E+03 
  51490.4074     0.27620E+03 
  51522.6695     0.27521E+03 
  51554.9317     0.27422E+03 
  51587.1938     0.27323E+03 
  51619.4560     0.27224E+03 
  51651.7182     0.27124E+03 
  51683.9803     0.27025E+03 
  51716.2425     0.26925E+03 
  51748.5046     0.26825E+03 
  51780.7668     0.26725E+03 
  51813.0290     0.26625E+03 
  51845.2911     0.26525E+03 
  51877.5533     0.26425E+03 
  51909.8154     0.26324E+03 
  51942.0776     0.26224E+03 
  51974.3398     0.26123E+03 
  52006.6019     0.26022E+03 
  52038.8641     0.25921E+03 
  52071.1262     0.25820E+03 
  52103.3884     0.25718E+03 
  52135.6506     0.25617E+03 
  52167.9127     0.25516E+03 
  52200.1749     0.25414E+03 
  52232.4370     0.25312E+03 
  52264.6992     0.25211E+03 
  52296.9614     0.25109E+03 
  52329.2235     0.25007E+03 
  52361.4857     0.24905E+03 
  52393.7478     0.24803E+03 
  52426.0100     0.24700E+03 
  52458.2722     0.24598E+03 
  52490.5343     0.24496E+03 
  52522.7965     0.24393E+03 
  52555.0586     0.24291E+03 
  52587.3208     0.24188E+03 
  52619.5830     0.24086E+03 
  52651.8451     0.23983E+03 
  52684.1073     0.23880E+03 
  52716.3694     0.23778E+03 
  52748.6316     0.23675E+03 
  52780.8938     0.23572E+03 
  52813.1559     0.23469E+03 
  52845.4181     0.23366E+03 
  52877.6802     0.23263E+03 
  52909.9424     0.23160E+03 
  52942.2046     0.23057E+03 
  52974.4667     0.22954E+03 
  53006.7289     0.22851E+03 
  53038.9910     0.22748E+03 
  53071.2532     0.22645E+03 
  53103.5154     0.22542E+03 
  53135.7775     0.22438E+03 
  53168.0397     0.22335E+03 
  53200.3018     0.22232E+03 
  53232.5640     0.22129E+03 
  53264.8262     0.22026E+03 
  53297.0883     0.21923E+03 
  53329.3505     0.21819E+03 
  53361.6126     0.21716E+03 
  53393.8748     0.21613E+03 
  53426.1370     0.21510E+03 
  53458.3991     0.21407E+03 
  53490.6613     0.21304E+03 
  53522.9234     0.21201E+03 
  53555.1856     0.21098E+03 
  53587.4478     0.20995E+03 
  53619.7099     0.20892E+03 
  53651.9721     0.20789E+03 
  53684.2342     0.20686E+03 
  53716.4964     0.20583E+03 
  53748.7586     0.20480E+03 
  53781.0207     0.20377E+03 
  53813.2829     0.20275E+03 
  53845.5450     0.20172E+03 
  53877.8072     0.20069E+03 
  53910.0694     0.19967E+03 
  53942.3315     0.19864E+03 
  53974.5937     0.19762E+03 
  54006.8558     0.19659E+03 
  54039.1180     0.19557E+03 
  54071.3802     0.19455E+03 
  54103.6423     0.19353E+03 
  54135.9045     0.19251E+03 
  54168.1666     0.19149E+03 
  54200.4288     0.19047E+03 
  54232.6910     0.18945E+03 
  54264.9531     0.18843E+03 
  54297.2153     0.18741E+03 
  54329.4774     0.18640E+03 
  54361.7396     0.18538E+03 
  54394.0018     0.18437E+03 
  54426.2639     0.18336E+03 
  54458.5261     0.18234E+03 
  54490.7882     0.18133E+03 
  54523.0504     0.18032E+03 
  54555.3126     0.17932E+03 
  54587.5747     0.17831E+03 
  54619.8369     0.17730E+03 
  54652.0990     0.17630E+03 
  54684.3612     0.17529E+03 
  54716.6234     0.17429E+03 
  54748.8855     0.17329E+03 
  54781.1477     0.17229E+03 
  54813.4098     0.17129E+03 
  54845.6720     0.17029E+03 
  54877.9342     0.16930E+03 
  54910.1963     0.16830E+03 
  54942.4585     0.16731E+03 
  54974.7206     0.16632E+03 
  55006.9828     0.16533E+03 
  55039.2450     0.16434E+03 
  55071.5071     0.16335E+03 
  55103.7693     0.16236E+03 
  55136.0314     0.16138E+03 
  55168.2936     0.16040E+03 
  55200.5558     0.15942E+03 
  55232.8179     0.15844E+03 
  55265.0801     0.15746E+03 
  55297.3422     0.15648E+03 
  55329.6044     0.15551E+03 
  55361.8666     0.15454E+03 
  55394.1287     0.15356E+03 
  55426.3909     0.15260E+03 
  55458.6530     0.15163E+03 
  55490.9152     0.15066E+03 
  55523.1774     0.14970E+03 
  55555.4395     0.14874E+03 
  55587.7017     0.14778E+03 
  55619.9638     0.14682E+03 
  55652.2260     0.14586E+03 
  55684.4882     0.14491E+03 
  55716.7503     0.14396E+03 
  55749.0125     0.14301E+03 
  55781.2746     0.14206E+03 
  55813.5368     0.14111E+03 
  55845.7990     0.14017E+03 
  55878.0611     0.13923E+03 
  55910.3233     0.13829E+03 
  55942.5854     0.13735E+03 
  55974.8476     0.13642E+03 
  56007.1098     0.13548E+03 
  56039.3719     0.13455E+03 
  56071.6341     0.13362E+03 
  56103.8962     0.13270E+03 
  56136.1584     0.13177E+03 
  56168.4206     0.13085E+03 
  56200.6827     0.12993E+03 
  56232.9449     0.12902E+03 
  56265.2070     0.12810E+03 
  56297.4692     0.12719E+03 
  56329.7314     0.12628E+03 
  56361.9935     0.12537E+03 
  56394.2557     0.12447E+03 
  56426.5178     0.12357E+03 
  56458.7800     0.12267E+03 
  56491.0422     0.12177E+03 
  56523.3043     0.12088E+03 
  56555.5665     0.11998E+03 
  56587.8286     0.11910E+03 
  56620.0908     0.11821E+03 
  56652.3530     0.11733E+03 
  56684.6151     0.11644E+03 
  56716.8773     0.11557E+03 
  56749.1394     0.11469E+03 
  56781.4016     0.11382E+03 
  56813.6638     0.11295E+03 
  56845.9259     0.11208E+03 
  56878.1881     0.11122E+03 
  56910.4502     0.11036E+03 
  56942.7124     0.10950E+03 
  56974.9746     0.10864E+03 
  57007.2367     0.10779E+03 
  57039.4989     0.10694E+03 
  57071.7610     0.10609E+03 
  57104.0232     0.10525E+03 
  57136.2854     0.10441E+03 
  57168.5475     0.10357E+03 
  57200.8097     0.10274E+03 
  57233.0718     0.10191E+03 
  57265.3340     0.10108E+03 
  57297.5962     0.10026E+03 
  57329.8583     0.99435E+02 
  57362.1205     0.98617E+02 
  57394.3826     0.97803E+02 
  57426.6448     0.96991E+02 
  57458.9070     0.96183E+02 
  57491.1691     0.95379E+02 
  57523.4313     0.94577E+02 
  57555.6934     0.93780E+02 
  57587.9556     0.92985E+02 
  57620.2178     0.92194E+02 
  57652.4799     0.91407E+02 
  57684.7421     0.90623E+02 
  57717.0042     0.89843E+02 
  57749.2664     0.89066E+02 
  57781.5286     0.88293E+02 
  57813.7907     0.87524E+02 
  57846.0529     0.86758E+02 
  57878.3150     0.85996E+02 
  57910.5772     0.85238E+02 
  57942.8394     0.84483E+02 
  57975.1015     0.83733E+02 
  58007.3637     0.82986E+02 
  58039.6258     0.82243E+02 
  58071.8880     0.81504E+02 
  58104.1502     0.80769E+02 
  58136.4123     0.80038E+02 
  58168.6745     0.79310E+02 
  58200.9366     0.78587E+02 
  58233.1988     0.77868E+02 
  58265.4610     0.77153E+02 
  58297.7231     0.76442E+02 
  58329.9853     0.75736E+02 
  58362.2474     0.75033E+02 
  58394.5096     0.74335E+02 
  58426.7718     0.73641E+02 
  58459.0339     0.72951E+02 
  58491.2961     0.72265E+02 
  58523.5582     0.71584E+02 
  58555.8204     0.70908E+02 
  58588.0826     0.70235E+02 
  58620.3447     0.69568E+02 
  58652.6069     0.68904E+02 
  58684.8690     0.68246E+02 
  58717.1312     0.67591E+02 
  58749.3934     0.66942E+02 
  58781.6555     0.66297E+02 
  58813.9177     0.65657E+02 
  58846.1798     0.65021E+02 
  58878.4420     0.64391E+02 
  58910.7042     0.63765E+02 
  58942.9663     0.63144E+02 
  58975.2285     0.62528E+02 
  59007.4906     0.61916E+02 
  59039.7528     0.61310E+02 
  59072.0150     0.60709E+02 
  59104.2771     0.60113E+02 
  59136.5393     0.59522E+02 
  59168.8014     0.58936E+02 
  59201.0636     0.58355E+02 
  59233.3258     0.57779E+02 
  59265.5879     0.57209E+02 
  59297.8501     0.56644E+02 
  59330.1122     0.56084E+02 
  59362.3744     0.55530E+02 
  59394.6366     0.54981E+02 
  59426.8987     0.54438E+02 
  59459.1609     0.53900E+02 
  59491.4230     0.53368E+02 
  59523.6852     0.52842E+02 
  59555.9474     0.52321E+02 
  59588.2095     0.51806E+02 
  59620.4717     0.51296E+02 
  59652.7338     0.50793E+02 
  59684.9960     0.50295E+02 
  59717.2582     0.49803E+02 
  59749.5203     0.49318E+02 
  59781.7825     0.48838E+02 
  59814.0446     0.48364E+02 
  59846.3068     0.47897E+02 
  59878.5690     0.47435E+02 
  59910.8311     0.46980E+02 
  59943.0933     0.46532E+02 
  59975.3554     0.46089E+02 
  60007.6176     0.45653E+02 
  60039.8798     0.45224E+02 
  60072.1419     0.44801E+02 
  60104.4041     0.44384E+02 
  60136.6662     0.43974E+02 
  60168.9284     0.43571E+02 
  60201.1906     0.43175E+02 
  60233.4527     0.42785E+02 
  60265.7149     0.42402E+02 
  60297.9770     0.42027E+02 
  60330.2392     0.41658E+02 
  60362.5014     0.41296E+02 
  60394.7635     0.40942E+02 
  60427.0257     0.40594E+02 
  60459.2878     0.40254E+02 
  60491.5500     0.39921E+02 
  60523.8122     0.39595E+02 
  60556.0743     0.39277E+02 
  60588.3365     0.38967E+02 
  60620.5986     0.38664E+02 
  60652.8608     0.38369E+02 
  60685.1230     0.38081E+02 
  60717.3851     0.37801E+02 
  60749.6473     0.37529E+02 
  60781.9094     0.37265E+02 
  60814.1716     0.37009E+02 
  60846.4338     0.36761E+02 
  60878.6959     0.36521E+02 
  60910.9581     0.36289E+02 
  60943.2202     0.36066E+02 
  60975.4824     0.35851E+02 
  61007.7446     0.35644E+02 
  61040.0067     0.35446E+02 
  61072.2689     0.35257E+02 
  61104.5310     0.35076E+02 
  61136.7932     0.34904E+02 
  61169.0554     0.34741E+02 
  61201.3175     0.34586E+02 
  61233.5797     0.34441E+02 
  61265.8418     0.34305E+02 
  61298.1040     0.34178E+02 
  61330.3662     0.34060E+02 
  61362.6283     0.33951E+02 
  61394.8905     0.33852E+02 
  61427.1526     0.33762E+02 
  61459.4148     0.33682E+02 
  61491.6770     0.33612E+02 
  61523.9391     0.33551E+02 
  61556.2013     0.33501E+02 
  61588.4634     0.33460E+02 
  61620.7256     0.33429E+02 
  61652.9878     0.33408E+02 
  61685.2499     0.33398E+02 
  61717.5121     0.33398E+02 
  61749.7742     0.33408E+02 
  61782.0364     0.33429E+02 
  61814.2986     0.33460E+02 
  61846.5607     0.33502E+02 
  61878.8229     0.33555E+02 
  61911.0850     0.33619E+02 
  61943.3472     0.33693E+02 
  61975.6094     0.33779E+02 
  62007.8715     0.33876E+02 
  62040.1337     0.33985E+02 
  62072.3958     0.34104E+02 
  62104.6580     0.34235E+02 
  62136.9202     0.34378E+02 
  62169.1823     0.34533E+02 
  62201.4445     0.34699E+02 
  62233.7066     0.34877E+02 
  62265.9688     0.35068E+02 
  62298.2310     0.35270E+02 
  62330.4931     0.35485E+02 
  62362.7553     0.35712E+02 
  62395.0174     0.35952E+02 
  62427.2796     0.36204E+02 
  62459.5418     0.36469E+02 
  62491.8039     0.36747E+02 
  62524.0661     0.37038E+02 
  62556.3282     0.37341E+02 
  62588.5904     0.37658E+02 
  62620.8526     0.37989E+02 
  62653.1147     0.38332E+02 
  62685.3769     0.38690E+02 
  62717.6390     0.39060E+02 
  62749.9012     0.39445E+02 
  62782.1634     0.39844E+02 
  62814.4255     0.40256E+02 
  62846.6877     0.40683E+02 
  62878.9498     0.41124E+02 
  62911.2120     0.41580E+02 
  62943.4742     0.42050E+02 
  62975.7363     0.42535E+02 
  63007.9985     0.43035E+02 
  63040.2606     0.43549E+02 
  63072.5228     0.44079E+02 
  63104.7850     0.44624E+02 
  63137.0471     0.45184E+02 
  63169.3093     0.45760E+02 
  63201.5714     0.46351E+02 
  63233.8336     0.46958E+02 
  63266.0958     0.47581E+02 
  63298.3579     0.48220E+02 
  63330.6201     0.48875E+02 
  63362.8822     0.49547E+02 
  63395.1444     0.50235E+02 
  63427.4066     0.50939E+02 
  63459.6687     0.51661E+02 
  63491.9309     0.52399E+02 
  63524.1930     0.53154E+02 
  63556.4552     0.53927E+02 
  63588.7174     0.54717E+02 
  63620.9795     0.55524E+02 
  63653.2417     0.56349E+02 
  63685.5038     0.57192E+02 
  63717.7660     0.58053E+02 
  63750.0282     0.58932E+02 
  63782.2903     0.59829E+02 
  63814.5525     0.60745E+02 
  63846.8146     0.61679E+02 
  63879.0768     0.62632E+02 
  63911.3390     0.63604E+02 
  63943.6011     0.64594E+02 
  63975.8633     0.65604E+02 
  64008.1254     0.66634E+02 
  64040.3876     0.67683E+02 
  64072.6498     0.68752E+02 
  64104.9119     0.69840E+02 
  64137.1741     0.70949E+02 
  64169.4362     0.72078E+02 
  64201.6984     0.73227E+02 
  64233.9606     0.74396E+02 
  64266.2227     0.75587E+02 
  64298.4849     0.76798E+02 
  64330.7470     0.78030E+02 
  64363.0092     0.79284E+02 
  64395.2714     0.80559E+02 
  64427.5335     0.81856E+02 
  64459.7957     0.83174E+02 
  64492.0578     0.84514E+02 
  64524.3200     0.85876E+02 
  64556.5822     0.87261E+02 
  64588.8443     0.88668E+02 
  64621.1065     0.90097E+02 
  64653.3686     0.91550E+02 
  64685.6308     0.93025E+02 
  64717.8930     0.94524E+02 
  64750.1551     0.96046E+02 
  64782.4173     0.97591E+02 
  64814.6794     0.99161E+02 
  64846.9416     0.10075E+03 
  64879.2038     0.10237E+03 
  64911.4659     0.10401E+03 
  64943.7281     0.10568E+03 
  64975.9902     0.10737E+03 
  65008.2524     0.10908E+03 
  65040.5146     0.11083E+03 
  65072.7767     0.11259E+03 
  65105.0389     0.11438E+03 
  65137.3010     0.11620E+03 
  65169.5632     0.11804E+03 
  65201.8254     0.11991E+03 
  65234.0875     0.12180E+03 
  65266.3497     0.12373E+03 
  65298.6118     0.12567E+03 
  65330.8740     0.12765E+03 
  65363.1362     0.12965E+03 
  65395.3983     0.13168E+03 
  65427.6605     0.13373E+03 
  65459.9226     0.13582E+03 
  65492.1848     0.13793E+03 
  65524.4470     0.14007E+03 
  65556.7091     0.14224E+03 
  65588.9713     0.14443E+03 
  65621.2334     0.14666E+03 
  65653.4956     0.14891E+03 
  65685.7578     0.15119E+03 
  65718.0199     0.15350E+03 
  65750.2821     0.15585E+03 
  65782.5442     0.15822E+03 
  65814.8064     0.16062E+03 
  65847.0686     0.16305E+03 
  65879.3307     0.16551E+03 
  65911.5929     0.16800E+03 
  65943.8550     0.17052E+03 
  65976.1172     0.17307E+03 
  66008.3794     0.17566E+03 
  66040.6415     0.17827E+03 
  66072.9037     0.18092E+03 
  66105.1658     0.18360E+03 
  66137.4280     0.18631E+03 
  66169.6902     0.18905E+03 
  66201.9523     0.19182E+03 
  66234.2145     0.19463E+03 
  66266.4766     0.19747E+03 
  66298.7388     0.20034E+03 
  66331.0010     0.20325E+03 
  66363.2631     0.20619E+03 
  66395.5253     0.20916E+03 
  66427.7874     0.21216E+03 
  66460.0496     0.21521E+03 
  66492.3118     0.21828E+03 
  66524.5739     0.22139E+03 
  66556.8361     0.22453E+03 
  66589.0982     0.22771E+03 
  66621.3604     0.23093E+03 
  66653.6226     0.23417E+03 
  66685.8847     0.23746E+03 
  66718.1469     0.24078E+03 
  66750.4090     0.24414E+03 
  66782.6712     0.24753E+03 
  66814.9334     0.25096E+03 
  66847.1955     0.25442E+03 
  66879.4577     0.25793E+03 
  66911.7198     0.26146E+03 
  66943.9820     0.26504E+03 
  66976.2442     0.26865E+03 
  67008.5063     0.27231E+03 
  67040.7685     0.27600E+03 
  67073.0306     0.27972E+03 
  67105.2928     0.28349E+03 
  67137.5550     0.28729E+03 
  67169.8171     0.29114E+03 
  67202.0793     0.29502E+03 
  67234.3414     0.29894E+03 
  67266.6036     0.30290E+03 
  67298.8658     0.30690E+03 
  67331.1279     0.31094E+03 
  67363.3901     0.31502E+03 
  67395.6522     0.31914E+03 
  67427.9144     0.32330E+03 
  67460.1766     0.32750E+03 
  67492.4387     0.33174E+03 
  67524.7009     0.33603E+03 
  67556.9630     0.34035E+03 
  67589.2252     0.34472E+03 
  67621.4874     0.34912E+03 
  67653.7495     0.35357E+03 
  67686.0117     0.35807E+03 
  67718.2738     0.36260E+03 
  67750.5360     0.36718E+03 
  67782.7982     0.37179E+03 
  67815.0603     0.37646E+03 
  67847.3225     0.38116E+03 
  67879.5846     0.38591E+03 
  67911.8468     0.39070E+03 
  67944.1090     0.39554E+03 
  67976.3711     0.40042E+03 
  68008.6333     0.40534E+03 
  68040.8954     0.41031E+03 
  68073.1576     0.41532E+03 
  68105.4198     0.42038E+03 
  68137.6819     0.42548E+03 
  68169.9441     0.43063E+03 
  68202.2062     0.43582E+03 
  68234.4684     0.44106E+03 
  68266.7306     0.44634E+03 
  68298.9927     0.45167E+03 
  68331.2549     0.45705E+03 
  68363.5170     0.46247E+03 
  68395.7792     0.46794E+03 
  68428.0414     0.47345E+03 
  68460.3035     0.47902E+03 
  68492.5657     0.48463E+03 
  68524.8278     0.49028E+03 
  68557.0900     0.49599E+03 
  68589.3522     0.50174E+03 
  68621.6143     0.50754E+03 
  68653.8765     0.51338E+03 
  68686.1386     0.51928E+03 
  68718.4008     0.52522E+03 
  68750.6630     0.53121E+03 
  68782.9251     0.53725E+03 
  68815.1873     0.54334E+03 
  68847.4494     0.54948E+03 
  68879.7116     0.55567E+03 
  68911.9738     0.56190E+03 
  68944.2359     0.56819E+03 
  68976.4981     0.57452E+03 
  69008.7602     0.58091E+03 
  69041.0224     0.58735E+03 
  69073.2846     0.59383E+03 
  69105.5467     0.60037E+03 
  69137.8089     0.60695E+03 
  69170.0710     0.61359E+03 
  69202.3332     0.62028E+03 
  69234.5954     0.62702E+03 
  69266.8575     0.63380E+03 
  69299.1197     0.64065E+03 
  69331.3818     0.64754E+03 
  69363.6440     0.65448E+03 
  69395.9062     0.66148E+03 
  69428.1683     0.66852E+03 
  69460.4305     0.67562E+03 
  69492.6926     0.68277E+03 
  69524.9548     0.68997E+03 
  69557.2170     0.69723E+03 
  69589.4791     0.70454E+03 
  69621.7413     0.71190E+03 
  69654.0034     0.71931E+03 
  69686.2656     0.72677E+03 
  69718.5278     0.73429E+03 
  69750.7899     0.74186E+03 
  69783.0521     0.74949E+03 
  69815.3142     0.75717E+03 
  69847.5764     0.76490E+03 
  69879.8386     0.77268E+03 
  69912.1007     0.78052E+03 
  69944.3629     0.78841E+03 
  69976.6250     0.79635E+03 
  70008.8872     0.80435E+03 
  70041.1494     0.81241E+03 
  70073.4115     0.82051E+03 
  70105.6737     0.82868E+03 
  70137.9358     0.83689E+03 
  70170.1980     0.84516E+03 
  70202.4602     0.85348E+03 
  70234.7223     0.86186E+03 
  70266.9845     0.87030E+03 
  70299.2466     0.87878E+03 
  70331.5088     0.88733E+03 
  70363.7710     0.89592E+03 
  70396.0331     0.90458E+03 
  70428.2953     0.91328E+03 
  70460.5574     0.92204E+03 
  70492.8196     0.93086E+03 
  70525.0818     0.93973E+03 
  70557.3439     0.94866E+03 
  70589.6061     0.95764E+03 
  70621.8682     0.96668E+03 
  70654.1304     0.97577E+03 
  70686.3926     0.98492E+03 
  70718.6547     0.99412E+03 
  70750.9169     0.10034E+04 
  70783.1790     0.10127E+04 
  70815.4412     0.10221E+04 
  70847.7034     0.10315E+04 
  70879.9655     0.10410E+04 
  70912.2277     0.10505E+04 
  70944.4898     0.10601E+04 
  70976.7520     0.10697E+04 
  71009.0142     0.10794E+04 
  71041.2763     0.10892E+04 
  71073.5385     0.10990E+04 
  71105.8006     0.11089E+04 
  71138.0628     0.11188E+04 
  71170.3250     0.11288E+04 
  71202.5871     0.11388E+04 
  71234.8493     0.11489E+04 
  71267.1114     0.11591E+04 
  71299.3736     0.11693E+04 
  71331.6358     0.11795E+04 
  71363.8979     0.11898E+04 
  71396.1601     0.12002E+04 
  71428.4222     0.12106E+04 
  71460.6844     0.12211E+04 
  71492.9466     0.12316E+04 
  71525.2087     0.12422E+04 
  71557.4709     0.12529E+04 
  71589.7330     0.12636E+04 
  71621.9952     0.12743E+04 
  71654.2574     0.12851E+04 
  71686.5195     0.12960E+04 
  71718.7817     0.13069E+04 
  71751.0438     0.13179E+04 
  71783.3060     0.13289E+04 
  71815.5682     0.13400E+04 
  71847.8303     0.13511E+04 
  71880.0925     0.13623E+04 
  71912.3546     0.13736E+04 
  71944.6168     0.13849E+04 
  71976.8790     0.13962E+04 
  72009.1411     0.14076E+04 
  72041.4033     0.14191E+04 
  72073.6654     0.14306E+04 
  72105.9276     0.14422E+04 
  72138.1898     0.14538E+04 
  72170.4519     0.14655E+04 
  72202.7141     0.14772E+04 
  72234.9762     0.14890E+04 
  72267.2384     0.15008E+04 
  72299.5006     0.15127E+04 
  72331.7627     0.15246E+04 
  72364.0249     0.15366E+04 
  72396.2870     0.15487E+04 
  72428.5492     0.15608E+04 
  72460.8114     0.15729E+04 
  72493.0735     0.15851E+04 
  72525.3357     0.15974E+04 
  72557.5978     0.16097E+04 
  72589.8600     0.16220E+04 
