  32262.1600     0.76533E-02 
  32294.4222     0.77086E-02 
  32326.6843     0.77641E-02 
  32358.9465     0.78199E-02 
  32391.2086     0.78760E-02 
  32423.4708     0.79322E-02 
  32455.7330     0.79888E-02 
  32487.9951     0.80456E-02 
  32520.2573     0.81026E-02 
  32552.5194     0.81599E-02 
  32584.7816     0.82174E-02 
  32617.0438     0.82751E-02 
  32649.3059     0.83331E-02 
  32681.5681     0.83914E-02 
  32713.8302     0.84499E-02 
  32746.0924     0.85086E-02 
  32778.3546     0.85676E-02 
  32810.6167     0.86268E-02 
  32842.8789     0.86862E-02 
  32875.1410     0.87459E-02 
  32907.4032     0.88059E-02 
  32939.6654     0.88660E-02 
  32971.9275     0.89265E-02 
  33004.1897     0.89871E-02 
  33036.4518     0.90480E-02 
  33068.7140     0.91091E-02 
  33100.9762     0.91705E-02 
  33133.2383     0.92321E-02 
  33165.5005     0.92939E-02 
  33197.7626     0.93560E-02 
  33230.0248     0.94183E-02 
  33262.2870     0.94809E-02 
  33294.5491     0.95436E-02 
  33326.8113     0.96066E-02 
  33359.0734     0.96699E-02 
  33391.3356     0.97333E-02 
  33423.5978     0.97970E-02 
  33455.8599     0.98610E-02 
  33488.1221     0.99251E-02 
  33520.3842     0.99895E-02 
  33552.6464     0.10054E-01 
  33584.9086     0.10119E-01 
  33617.1707     0.10184E-01 
  33649.4329     0.10249E-01 
  33681.6950     0.10315E-01 
  33713.9572     0.10381E-01 
  33746.2194     0.10447E-01 
  33778.4815     0.10513E-01 
  33810.7437     0.10579E-01 
  33843.0058     0.10646E-01 
  33875.2680     0.10713E-01 
  33907.5302     0.10780E-01 
  33939.7923     0.10847E-01 
  33972.0545     0.10915E-01 
  34004.3166     0.10982E-01 
  34036.5788     0.11050E-01 
  34068.8410     0.11118E-01 
  34101.1031     0.11187E-01 
  34133.3653     0.11255E-01 
  34165.6274     0.11324E-01 
  34197.8896     0.11393E-01 
  34230.1518     0.11462E-01 
  34262.4139     0.11532E-01 
  34294.6761     0.11601E-01 
  34326.9382     0.11671E-01 
  34359.2004     0.11741E-01 
  34391.4626     0.11811E-01 
  34423.7247     0.11882E-01 
  34455.9869     0.11952E-01 
  34488.2490     0.12023E-01 
  34520.5112     0.12094E-01 
  34552.7734     0.12166E-01 
  34585.0355     0.12237E-01 
  34617.2977     0.12309E-01 
  34649.5598     0.12380E-01 
  34681.8220     0.12452E-01 
  34714.0842     0.12525E-01 
  34746.3463     0.12597E-01 
  34778.6085     0.12670E-01 
  34810.8706     0.12742E-01 
  34843.1328     0.12815E-01 
  34875.3950     0.12888E-01 
  34907.6571     0.12962E-01 
  34939.9193     0.13035E-01 
  34972.1814     0.13109E-01 
  35004.4436     0.13183E-01 
  35036.7058     0.13257E-01 
  35068.9679     0.13331E-01 
  35101.2301     0.13405E-01 
  35133.4922     0.13480E-01 
  35165.7544     0.13555E-01 
  35198.0166     0.13630E-01 
  35230.2787     0.13705E-01 
  35262.5409     0.13780E-01 
  35294.8030     0.13855E-01 
  35327.0652     0.13931E-01 
  35359.3274     0.14007E-01 
  35391.5895     0.14083E-01 
  35423.8517     0.14159E-01 
  35456.1138     0.14235E-01 
  35488.3760     0.14311E-01 
  35520.6382     0.14388E-01 
  35552.9003     0.14465E-01 
  35585.1625     0.14541E-01 
  35617.4246     0.14618E-01 
  35649.6868     0.14696E-01 
  35681.9490     0.14773E-01 
  35714.2111     0.14850E-01 
  35746.4733     0.14928E-01 
  35778.7354     0.15006E-01 
  35810.9976     0.15083E-01 
  35843.2598     0.15161E-01 
  35875.5219     0.15240E-01 
  35907.7841     0.15318E-01 
  35940.0462     0.15396E-01 
  35972.3084     0.15475E-01 
  36004.5706     0.15554E-01 
  36036.8327     0.15632E-01 
  36069.0949     0.15711E-01 
  36101.3570     0.15790E-01 
  36133.6192     0.15869E-01 
  36165.8814     0.15949E-01 
  36198.1435     0.16028E-01 
  36230.4057     0.16108E-01 
  36262.6678     0.16187E-01 
  36294.9300     0.16267E-01 
  36327.1922     0.16347E-01 
  36359.4543     0.16427E-01 
  36391.7165     0.16507E-01 
  36423.9786     0.16587E-01 
  36456.2408     0.16668E-01 
  36488.5030     0.16748E-01 
  36520.7651     0.16828E-01 
  36553.0273     0.16909E-01 
  36585.2894     0.16990E-01 
  36617.5516     0.17071E-01 
  36649.8138     0.17151E-01 
  36682.0759     0.17232E-01 
  36714.3381     0.17313E-01 
  36746.6002     0.17395E-01 
  36778.8624     0.17476E-01 
  36811.1246     0.17557E-01 
  36843.3867     0.17638E-01 
  36875.6489     0.17720E-01 
  36907.9110     0.17801E-01 
  36940.1732     0.17883E-01 
  36972.4354     0.17965E-01 
  37004.6975     0.18046E-01 
  37036.9597     0.18128E-01 
  37069.2218     0.18210E-01 
  37101.4840     0.18292E-01 
  37133.7462     0.18374E-01 
  37166.0083     0.18456E-01 
  37198.2705     0.18538E-01 
  37230.5326     0.18620E-01 
  37262.7948     0.18703E-01 
  37295.0570     0.18785E-01 
  37327.3191     0.18867E-01 
  37359.5813     0.18950E-01 
  37391.8434     0.19032E-01 
  37424.1056     0.19114E-01 
  37456.3678     0.19197E-01 
  37488.6299     0.19279E-01 
  37520.8921     0.19362E-01 
  37553.1542     0.19445E-01 
  37585.4164     0.19527E-01 
  37617.6786     0.19610E-01 
  37649.9407     0.19692E-01 
  37682.2029     0.19775E-01 
  37714.4650     0.19858E-01 
  37746.7272     0.19940E-01 
  37778.9894     0.20023E-01 
  37811.2515     0.20106E-01 
  37843.5137     0.20189E-01 
  37875.7758     0.20271E-01 
  37908.0380     0.20354E-01 
  37940.3002     0.20437E-01 
  37972.5623     0.20520E-01 
  38004.8245     0.20602E-01 
  38037.0866     0.20685E-01 
  38069.3488     0.20768E-01 
  38101.6110     0.20851E-01 
  38133.8731     0.20933E-01 
  38166.1353     0.21016E-01 
  38198.3974     0.21099E-01 
  38230.6596     0.21181E-01 
  38262.9218     0.21264E-01 
  38295.1839     0.21347E-01 
  38327.4461     0.21429E-01 
  38359.7082     0.21512E-01 
  38391.9704     0.21594E-01 
  38424.2326     0.21677E-01 
  38456.4947     0.21759E-01 
  38488.7569     0.21842E-01 
  38521.0190     0.21924E-01 
  38553.2812     0.22006E-01 
  38585.5434     0.22089E-01 
  38617.8055     0.22171E-01 
  38650.0677     0.22253E-01 
  38682.3298     0.22335E-01 
  38714.5920     0.22417E-01 
  38746.8542     0.22499E-01 
  38779.1163     0.22581E-01 
  38811.3785     0.22663E-01 
  38843.6406     0.22745E-01 
  38875.9028     0.22827E-01 
  38908.1650     0.22908E-01 
  38940.4271     0.22990E-01 
  38972.6893     0.23072E-01 
  39004.9514     0.23153E-01 
  39037.2136     0.23234E-01 
  39069.4758     0.23316E-01 
  39101.7379     0.23397E-01 
  39134.0001     0.23478E-01 
  39166.2622     0.23559E-01 
  39198.5244     0.23640E-01 
  39230.7866     0.23721E-01 
  39263.0487     0.23801E-01 
  39295.3109     0.23882E-01 
  39327.5730     0.23962E-01 
  39359.8352     0.24043E-01 
  39392.0974     0.24123E-01 
  39424.3595     0.24203E-01 
  39456.6217     0.24283E-01 
  39488.8838     0.24363E-01 
  39521.1460     0.24443E-01 
  39553.4082     0.24523E-01 
  39585.6703     0.24602E-01 
  39617.9325     0.24682E-01 
  39650.1946     0.24761E-01 
  39682.4568     0.24840E-01 
  39714.7190     0.24919E-01 
  39746.9811     0.24998E-01 
  39779.2433     0.25077E-01 
  39811.5054     0.25155E-01 
  39843.7676     0.25234E-01 
  39876.0298     0.25312E-01 
  39908.2919     0.25390E-01 
  39940.5541     0.25468E-01 
  39972.8162     0.25546E-01 
  40005.0784     0.25624E-01 
  40037.3406     0.25701E-01 
  40069.6027     0.25779E-01 
  40101.8649     0.25856E-01 
  40134.1270     0.25933E-01 
  40166.3892     0.26010E-01 
  40198.6514     0.26086E-01 
  40230.9135     0.26163E-01 
  40263.1757     0.26239E-01 
  40295.4378     0.26315E-01 
  40327.7000     0.26391E-01 
  40359.9622     0.26467E-01 
  40392.2243     0.26542E-01 
  40424.4865     0.26618E-01 
  40456.7486     0.26693E-01 
  40489.0108     0.26768E-01 
  40521.2730     0.26843E-01 
  40553.5351     0.26917E-01 
  40585.7973     0.26991E-01 
  40618.0594     0.27066E-01 
  40650.3216     0.27139E-01 
  40682.5838     0.27213E-01 
  40714.8459     0.27287E-01 
  40747.1081     0.27360E-01 
  40779.3702     0.27433E-01 
  40811.6324     0.27506E-01 
  40843.8946     0.27578E-01 
  40876.1567     0.27651E-01 
  40908.4189     0.27723E-01 
  40940.6810     0.27795E-01 
  40972.9432     0.27866E-01 
  41005.2054     0.27938E-01 
  41037.4675     0.28009E-01 
  41069.7297     0.28080E-01 
  41101.9918     0.28151E-01 
  41134.2540     0.28221E-01 
  41166.5162     0.28291E-01 
  41198.7783     0.28361E-01 
  41231.0405     0.28431E-01 
  41263.3026     0.28500E-01 
  41295.5648     0.28569E-01 
  41327.8270     0.28638E-01 
  41360.0891     0.28707E-01 
  41392.3513     0.28775E-01 
  41424.6134     0.28843E-01 
  41456.8756     0.28911E-01 
  41489.1378     0.28979E-01 
  41521.3999     0.29046E-01 
  41553.6621     0.29113E-01 
  41585.9242     0.29180E-01 
  41618.1864     0.29246E-01 
  41650.4486     0.29312E-01 
  41682.7107     0.29378E-01 
  41714.9729     0.29443E-01 
  41747.2350     0.29509E-01 
  41779.4972     0.29574E-01 
  41811.7594     0.29638E-01 
  41844.0215     0.29703E-01 
  41876.2837     0.29767E-01 
  41908.5458     0.29830E-01 
  41940.8080     0.29894E-01 
  41973.0702     0.29957E-01 
  42005.3323     0.30020E-01 
  42037.5945     0.30082E-01 
  42069.8566     0.30144E-01 
  42102.1188     0.30206E-01 
  42134.3810     0.30268E-01 
  42166.6431     0.30329E-01 
  42198.9053     0.30390E-01 
  42231.1674     0.30450E-01 
  42263.4296     0.30510E-01 
  42295.6918     0.30570E-01 
  42327.9539     0.30630E-01 
  42360.2161     0.30689E-01 
  42392.4782     0.30748E-01 
  42424.7404     0.30807E-01 
  42457.0026     0.30865E-01 
  42489.2647     0.30923E-01 
  42521.5269     0.30980E-01 
  42553.7890     0.31037E-01 
  42586.0512     0.31094E-01 
  42618.3134     0.31150E-01 
  42650.5755     0.31206E-01 
  42682.8377     0.31262E-01 
  42715.0998     0.31318E-01 
  42747.3620     0.31373E-01 
  42779.6242     0.31427E-01 
  42811.8863     0.31481E-01 
  42844.1485     0.31535E-01 
  42876.4106     0.31589E-01 
  42908.6728     0.31642E-01 
  42940.9350     0.31695E-01 
  42973.1971     0.31747E-01 
  43005.4593     0.31799E-01 
  43037.7214     0.31851E-01 
  43069.9836     0.31902E-01 
  43102.2458     0.31953E-01 
  43134.5079     0.32004E-01 
  43166.7701     0.32054E-01 
  43199.0322     0.32103E-01 
  43231.2944     0.32153E-01 
  43263.5566     0.32202E-01 
  43295.8187     0.32250E-01 
  43328.0809     0.32298E-01 
  43360.3430     0.32346E-01 
  43392.6052     0.32394E-01 
  43424.8674     0.32441E-01 
  43457.1295     0.32487E-01 
  43489.3917     0.32533E-01 
  43521.6538     0.32579E-01 
  43553.9160     0.32624E-01 
  43586.1782     0.32669E-01 
  43618.4403     0.32714E-01 
  43650.7025     0.32758E-01 
  43682.9646     0.32802E-01 
  43715.2268     0.32845E-01 
  43747.4890     0.32888E-01 
  43779.7511     0.32930E-01 
  43812.0133     0.32972E-01 
  43844.2754     0.33014E-01 
  43876.5376     0.33055E-01 
  43908.7998     0.33096E-01 
  43941.0619     0.33136E-01 
  43973.3241     0.33176E-01 
  44005.5862     0.33216E-01 
  44037.8484     0.33255E-01 
  44070.1106     0.33293E-01 
  44102.3727     0.33331E-01 
  44134.6349     0.33369E-01 
  44166.8970     0.33407E-01 
  44199.1592     0.33443E-01 
  44231.4214     0.33480E-01 
  44263.6835     0.33516E-01 
  44295.9457     0.33551E-01 
  44328.2078     0.33587E-01 
  44360.4700     0.33621E-01 
  44392.7322     0.33655E-01 
  44424.9943     0.33689E-01 
  44457.2565     0.33723E-01 
  44489.5186     0.33756E-01 
  44521.7808     0.33788E-01 
  44554.0430     0.33820E-01 
  44586.3051     0.33851E-01 
  44618.5673     0.33883E-01 
  44650.8294     0.33913E-01 
  44683.0916     0.33943E-01 
  44715.3538     0.33973E-01 
  44747.6159     0.34002E-01 
  44779.8781     0.34031E-01 
  44812.1402     0.34060E-01 
  44844.4024     0.34087E-01 
  44876.6646     0.34115E-01 
  44908.9267     0.34142E-01 
  44941.1889     0.34168E-01 
  44973.4510     0.34194E-01 
  45005.7132     0.34220E-01 
  45037.9754     0.34245E-01 
  45070.2375     0.34270E-01 
  45102.4997     0.34294E-01 
  45134.7618     0.34318E-01 
  45167.0240     0.34341E-01 
  45199.2862     0.34364E-01 
  45231.5483     0.34386E-01 
  45263.8105     0.34408E-01 
  45296.0726     0.34429E-01 
  45328.3348     0.34450E-01 
  45360.5970     0.34470E-01 
  45392.8591     0.34490E-01 
  45425.1213     0.34510E-01 
  45457.3834     0.34529E-01 
  45489.6456     0.34547E-01 
  45521.9078     0.34565E-01 
  45554.1699     0.34583E-01 
  45586.4321     0.34600E-01 
  45618.6942     0.34616E-01 
  45650.9564     0.34632E-01 
  45683.2186     0.34648E-01 
  45715.4807     0.34663E-01 
  45747.7429     0.34678E-01 
  45780.0050     0.34692E-01 
  45812.2672     0.34706E-01 
  45844.5294     0.34719E-01 
  45876.7915     0.34732E-01 
  45909.0537     0.34744E-01 
  45941.3158     0.34756E-01 
  45973.5780     0.34767E-01 
  46005.8402     0.34778E-01 
  46038.1023     0.34788E-01 
  46070.3645     0.34798E-01 
  46102.6266     0.34807E-01 
  46134.8888     0.34816E-01 
  46167.1510     0.34825E-01 
  46199.4131     0.34832E-01 
  46231.6753     0.34840E-01 
  46263.9374     0.34847E-01 
  46296.1996     0.34853E-01 
  46328.4618     0.34859E-01 
  46360.7239     0.34865E-01 
  46392.9861     0.34869E-01 
  46425.2482     0.34874E-01 
  46457.5104     0.34878E-01 
  46489.7726     0.34881E-01 
  46522.0347     0.34884E-01 
  46554.2969     0.34887E-01 
  46586.5590     0.34889E-01 
  46618.8212     0.34891E-01 
  46651.0834     0.34892E-01 
  46683.3455     0.34892E-01 
  46715.6077     0.34892E-01 
  46747.8698     0.34892E-01 
  46780.1320     0.34891E-01 
  46812.3942     0.34890E-01 
  46844.6563     0.34888E-01 
  46876.9185     0.34885E-01 
  46909.1806     0.34883E-01 
  46941.4428     0.34879E-01 
  46973.7050     0.34875E-01 
  47005.9671     0.34871E-01 
  47038.2293     0.34866E-01 
  47070.4914     0.34861E-01 
  47102.7536     0.34855E-01 
  47135.0158     0.34849E-01 
  47167.2779     0.34842E-01 
  47199.5401     0.34835E-01 
  47231.8022     0.34827E-01 
  47264.0644     0.34819E-01 
  47296.3266     0.34811E-01 
  47328.5887     0.34801E-01 
  47360.8509     0.34792E-01 
  47393.1130     0.34782E-01 
  47425.3752     0.34771E-01 
  47457.6374     0.34760E-01 
  47489.8995     0.34749E-01 
  47522.1617     0.34736E-01 
  47554.4238     0.34724E-01 
  47586.6860     0.34711E-01 
  47618.9482     0.34697E-01 
  47651.2103     0.34684E-01 
  47683.4725     0.34669E-01 
  47715.7346     0.34654E-01 
  47747.9968     0.34639E-01 
  47780.2590     0.34623E-01 
  47812.5211     0.34607E-01 
  47844.7833     0.34590E-01 
  47877.0454     0.34572E-01 
  47909.3076     0.34555E-01 
  47941.5698     0.34536E-01 
  47973.8319     0.34518E-01 
  48006.0941     0.34499E-01 
  48038.3562     0.34479E-01 
  48070.6184     0.34459E-01 
  48102.8806     0.34438E-01 
  48135.1427     0.34417E-01 
  48167.4049     0.34396E-01 
  48199.6670     0.34374E-01 
  48231.9292     0.34351E-01 
  48264.1914     0.34328E-01 
  48296.4535     0.34305E-01 
  48328.7157     0.34281E-01 
  48360.9778     0.34257E-01 
  48393.2400     0.34232E-01 
  48425.5022     0.34207E-01 
  48457.7643     0.34181E-01 
  48490.0265     0.34155E-01 
  48522.2886     0.34128E-01 
  48554.5508     0.34101E-01 
  48586.8130     0.34074E-01 
  48619.0751     0.34046E-01 
  48651.3373     0.34017E-01 
  48683.5994     0.33988E-01 
  48715.8616     0.33959E-01 
  48748.1238     0.33929E-01 
  48780.3859     0.33899E-01 
  48812.6481     0.33868E-01 
  48844.9102     0.33837E-01 
  48877.1724     0.33806E-01 
  48909.4346     0.33774E-01 
  48941.6967     0.33741E-01 
  48973.9589     0.33708E-01 
  49006.2210     0.33675E-01 
  49038.4832     0.33641E-01 
  49070.7454     0.33607E-01 
  49103.0075     0.33573E-01 
  49135.2697     0.33537E-01 
  49167.5318     0.33502E-01 
  49199.7940     0.33466E-01 
  49232.0562     0.33430E-01 
  49264.3183     0.33393E-01 
  49296.5805     0.33356E-01 
  49328.8426     0.33318E-01 
  49361.1048     0.33280E-01 
  49393.3670     0.33241E-01 
  49425.6291     0.33203E-01 
  49457.8913     0.33163E-01 
  49490.1534     0.33123E-01 
  49522.4156     0.33083E-01 
  49554.6778     0.33043E-01 
  49586.9399     0.33002E-01 
  49619.2021     0.32960E-01 
  49651.4642     0.32918E-01 
  49683.7264     0.32876E-01 
  49715.9886     0.32834E-01 
  49748.2507     0.32790E-01 
  49780.5129     0.32747E-01 
  49812.7750     0.32703E-01 
  49845.0372     0.32659E-01 
  49877.2994     0.32614E-01 
  49909.5615     0.32569E-01 
  49941.8237     0.32524E-01 
  49974.0858     0.32478E-01 
  50006.3480     0.32432E-01 
  50038.6102     0.32385E-01 
  50070.8723     0.32338E-01 
  50103.1345     0.32291E-01 
  50135.3966     0.32243E-01 
  50167.6588     0.32195E-01 
  50199.9210     0.32146E-01 
  50232.1831     0.32097E-01 
  50264.4453     0.32048E-01 
  50296.7074     0.31998E-01 
  50328.9696     0.31948E-01 
  50361.2318     0.31898E-01 
  50393.4939     0.31847E-01 
  50425.7561     0.31796E-01 
  50458.0182     0.31744E-01 
  50490.2804     0.31692E-01 
  50522.5426     0.31640E-01 
  50554.8047     0.31587E-01 
  50587.0669     0.31534E-01 
  50619.3290     0.31481E-01 
  50651.5912     0.31427E-01 
  50683.8534     0.31373E-01 
  50716.1155     0.31319E-01 
  50748.3777     0.31264E-01 
  50780.6398     0.31209E-01 
  50812.9020     0.31153E-01 
  50845.1642     0.31097E-01 
  50877.4263     0.31041E-01 
  50909.6885     0.30985E-01 
  50941.9506     0.30928E-01 
  50974.2128     0.30871E-01 
  51006.4750     0.30813E-01 
  51038.7371     0.30756E-01 
  51070.9993     0.30697E-01 
  51103.2614     0.30639E-01 
  51135.5236     0.30580E-01 
  51167.7858     0.30521E-01 
  51200.0479     0.30462E-01 
  51232.3101     0.30402E-01 
  51264.5722     0.30342E-01 
  51296.8344     0.30281E-01 
  51329.0966     0.30221E-01 
  51361.3587     0.30160E-01 
  51393.6209     0.30098E-01 
  51425.8830     0.30037E-01 
  51458.1452     0.29975E-01 
  51490.4074     0.29913E-01 
  51522.6695     0.29850E-01 
  51554.9317     0.29787E-01 
  51587.1938     0.29724E-01 
  51619.4560     0.29661E-01 
  51651.7182     0.29597E-01 
  51683.9803     0.29533E-01 
  51716.2425     0.29469E-01 
  51748.5046     0.29405E-01 
  51780.7668     0.29340E-01 
  51813.0290     0.29275E-01 
  51845.2911     0.29209E-01 
  51877.5533     0.29144E-01 
  51909.8154     0.29078E-01 
  51942.0776     0.29012E-01 
  51974.3398     0.28945E-01 
  52006.6019     0.28879E-01 
  52038.8641     0.28812E-01 
  52071.1262     0.28745E-01 
  52103.3884     0.28677E-01 
  52135.6506     0.28610E-01 
  52167.9127     0.28542E-01 
  52200.1749     0.28473E-01 
  52232.4370     0.28405E-01 
  52264.6992     0.28336E-01 
  52296.9614     0.28268E-01 
  52329.2235     0.28198E-01 
  52361.4857     0.28129E-01 
  52393.7478     0.28059E-01 
  52426.0100     0.27990E-01 
  52458.2722     0.27920E-01 
  52490.5343     0.27849E-01 
  52522.7965     0.27779E-01 
  52555.0586     0.27708E-01 
  52587.3208     0.27637E-01 
  52619.5830     0.27566E-01 
  52651.8451     0.27495E-01 
  52684.1073     0.27424E-01 
  52716.3694     0.27352E-01 
  52748.6316     0.27280E-01 
  52780.8938     0.27208E-01 
  52813.1559     0.27136E-01 
  52845.4181     0.27063E-01 
  52877.6802     0.26990E-01 
  52909.9424     0.26918E-01 
  52942.2046     0.26844E-01 
  52974.4667     0.26771E-01 
  53006.7289     0.26698E-01 
  53038.9910     0.26624E-01 
  53071.2532     0.26551E-01 
  53103.5154     0.26477E-01 
  53135.7775     0.26403E-01 
  53168.0397     0.26328E-01 
  53200.3018     0.26254E-01 
  53232.5640     0.26180E-01 
  53264.8262     0.26105E-01 
  53297.0883     0.26030E-01 
  53329.3505     0.25955E-01 
  53361.6126     0.25880E-01 
  53393.8748     0.25805E-01 
  53426.1370     0.25729E-01 
  53458.3991     0.25654E-01 
  53490.6613     0.25578E-01 
  53522.9234     0.25502E-01 
  53555.1856     0.25426E-01 
  53587.4478     0.25350E-01 
  53619.7099     0.25274E-01 
  53651.9721     0.25198E-01 
  53684.2342     0.25122E-01 
  53716.4964     0.25045E-01 
  53748.7586     0.24968E-01 
  53781.0207     0.24892E-01 
  53813.2829     0.24815E-01 
  53845.5450     0.24738E-01 
  53877.8072     0.24661E-01 
  53910.0694     0.24584E-01 
  53942.3315     0.24507E-01 
  53974.5937     0.24430E-01 
  54006.8558     0.24352E-01 
  54039.1180     0.24275E-01 
  54071.3802     0.24198E-01 
  54103.6423     0.24120E-01 
  54135.9045     0.24042E-01 
  54168.1666     0.23965E-01 
  54200.4288     0.23887E-01 
  54232.6910     0.23809E-01 
  54264.9531     0.23731E-01 
  54297.2153     0.23654E-01 
  54329.4774     0.23576E-01 
  54361.7396     0.23498E-01 
  54394.0018     0.23420E-01 
  54426.2639     0.23342E-01 
  54458.5261     0.23264E-01 
  54490.7882     0.23185E-01 
  54523.0504     0.23107E-01 
  54555.3126     0.23029E-01 
  54587.5747     0.22951E-01 
  54619.8369     0.22873E-01 
  54652.0990     0.22795E-01 
  54684.3612     0.22717E-01 
  54716.6234     0.22638E-01 
  54748.8855     0.22560E-01 
  54781.1477     0.22482E-01 
  54813.4098     0.22404E-01 
  54845.6720     0.22326E-01 
  54877.9342     0.22247E-01 
  54910.1963     0.22169E-01 
  54942.4585     0.22091E-01 
  54974.7206     0.22013E-01 
  55006.9828     0.21935E-01 
  55039.2450     0.21857E-01 
  55071.5071     0.21779E-01 
  55103.7693     0.21701E-01 
  55136.0314     0.21623E-01 
  55168.2936     0.21545E-01 
  55200.5558     0.21468E-01 
  55232.8179     0.21390E-01 
  55265.0801     0.21312E-01 
  55297.3422     0.21235E-01 
  55329.6044     0.21157E-01 
  55361.8666     0.21080E-01 
  55394.1287     0.21002E-01 
  55426.3909     0.20925E-01 
  55458.6530     0.20848E-01 
  55490.9152     0.20770E-01 
  55523.1774     0.20693E-01 
  55555.4395     0.20616E-01 
  55587.7017     0.20540E-01 
  55619.9638     0.20463E-01 
  55652.2260     0.20386E-01 
  55684.4882     0.20310E-01 
  55716.7503     0.20233E-01 
  55749.0125     0.20157E-01 
  55781.2746     0.20081E-01 
  55813.5368     0.20005E-01 
  55845.7990     0.19929E-01 
  55878.0611     0.19853E-01 
  55910.3233     0.19777E-01 
  55942.5854     0.19702E-01 
  55974.8476     0.19626E-01 
  56007.1098     0.19551E-01 
  56039.3719     0.19476E-01 
  56071.6341     0.19401E-01 
  56103.8962     0.19327E-01 
  56136.1584     0.19252E-01 
  56168.4206     0.19178E-01 
  56200.6827     0.19104E-01 
  56232.9449     0.19030E-01 
  56265.2070     0.18956E-01 
  56297.4692     0.18882E-01 
  56329.7314     0.18809E-01 
  56361.9935     0.18736E-01 
  56394.2557     0.18663E-01 
  56426.5178     0.18590E-01 
  56458.7800     0.18517E-01 
  56491.0422     0.18445E-01 
  56523.3043     0.18373E-01 
  56555.5665     0.18301E-01 
  56587.8286     0.18229E-01 
  56620.0908     0.18158E-01 
  56652.3530     0.18087E-01 
  56684.6151     0.18016E-01 
  56716.8773     0.17945E-01 
  56749.1394     0.17875E-01 
  56781.4016     0.17804E-01 
  56813.6638     0.17734E-01 
  56845.9259     0.17665E-01 
  56878.1881     0.17596E-01 
  56910.4502     0.17526E-01 
  56942.7124     0.17458E-01 
  56974.9746     0.17389E-01 
  57007.2367     0.17321E-01 
  57039.4989     0.17253E-01 
  57071.7610     0.17185E-01 
  57104.0232     0.17118E-01 
  57136.2854     0.17051E-01 
  57168.5475     0.16985E-01 
  57200.8097     0.16918E-01 
  57233.0718     0.16852E-01 
  57265.3340     0.16787E-01 
  57297.5962     0.16721E-01 
  57329.8583     0.16656E-01 
  57362.1205     0.16592E-01 
  57394.3826     0.16528E-01 
  57426.6448     0.16464E-01 
  57458.9070     0.16400E-01 
  57491.1691     0.16337E-01 
  57523.4313     0.16274E-01 
  57555.6934     0.16212E-01 
  57587.9556     0.16150E-01 
  57620.2178     0.16088E-01 
  57652.4799     0.16027E-01 
  57684.7421     0.15966E-01 
  57717.0042     0.15906E-01 
  57749.2664     0.15846E-01 
  57781.5286     0.15786E-01 
  57813.7907     0.15727E-01 
  57846.0529     0.15668E-01 
  57878.3150     0.15610E-01 
  57910.5772     0.15552E-01 
  57942.8394     0.15495E-01 
  57975.1015     0.15438E-01 
  58007.3637     0.15382E-01 
  58039.6258     0.15326E-01 
  58071.8880     0.15270E-01 
  58104.1502     0.15215E-01 
  58136.4123     0.15161E-01 
  58168.6745     0.15106E-01 
  58200.9366     0.15053E-01 
  58233.1988     0.15000E-01 
  58265.4610     0.14947E-01 
  58297.7231     0.14895E-01 
  58329.9853     0.14844E-01 
  58362.2474     0.14793E-01 
  58394.5096     0.14742E-01 
  58426.7718     0.14692E-01 
  58459.0339     0.14643E-01 
  58491.2961     0.14594E-01 
  58523.5582     0.14546E-01 
  58555.8204     0.14498E-01 
  58588.0826     0.14451E-01 
  58620.3447     0.14404E-01 
  58652.6069     0.14358E-01 
  58684.8690     0.14313E-01 
  58717.1312     0.14268E-01 
  58749.3934     0.14224E-01 
  58781.6555     0.14180E-01 
  58813.9177     0.14137E-01 
  58846.1798     0.14095E-01 
  58878.4420     0.14053E-01 
  58910.7042     0.14012E-01 
  58942.9663     0.13971E-01 
  58975.2285     0.13931E-01 
  59007.4906     0.13892E-01 
  59039.7528     0.13854E-01 
  59072.0150     0.13816E-01 
  59104.2771     0.13778E-01 
  59136.5393     0.13742E-01 
  59168.8014     0.13706E-01 
  59201.0636     0.13671E-01 
  59233.3258     0.13636E-01 
  59265.5879     0.13603E-01 
  59297.8501     0.13570E-01 
  59330.1122     0.13537E-01 
  59362.3744     0.13506E-01 
  59394.6366     0.13475E-01 
  59426.8987     0.13445E-01 
  59459.1609     0.13415E-01 
  59491.4230     0.13387E-01 
  59523.6852     0.13359E-01 
  59555.9474     0.13332E-01 
  59588.2095     0.13305E-01 
  59620.4717     0.13280E-01 
  59652.7338     0.13255E-01 
  59684.9960     0.13231E-01 
  59717.2582     0.13208E-01 
  59749.5203     0.13185E-01 
  59781.7825     0.13164E-01 
  59814.0446     0.13143E-01 
  59846.3068     0.13123E-01 
  59878.5690     0.13104E-01 
  59910.8311     0.13086E-01 
  59943.0933     0.13069E-01 
  59975.3554     0.13052E-01 
  60007.6176     0.13037E-01 
  60039.8798     0.13022E-01 
  60072.1419     0.13008E-01 
  60104.4041     0.12995E-01 
  60136.6662     0.12983E-01 
  60168.9284     0.12972E-01 
  60201.1906     0.12962E-01 
  60233.4527     0.12952E-01 
  60265.7149     0.12944E-01 
  60297.9770     0.12936E-01 
  60330.2392     0.12930E-01 
  60362.5014     0.12924E-01 
  60394.7635     0.12920E-01 
  60427.0257     0.12916E-01 
  60459.2878     0.12914E-01 
  60491.5500     0.12912E-01 
  60523.8122     0.12911E-01 
  60556.0743     0.12912E-01 
  60588.3365     0.12913E-01 
  60620.5986     0.12916E-01 
  60652.8608     0.12919E-01 
  60685.1230     0.12924E-01 
  60717.3851     0.12929E-01 
  60749.6473     0.12936E-01 
  60781.9094     0.12943E-01 
  60814.1716     0.12952E-01 
  60846.4338     0.12962E-01 
  60878.6959     0.12973E-01 
  60910.9581     0.12985E-01 
  60943.2202     0.12998E-01 
  60975.4824     0.13012E-01 
  61007.7446     0.13027E-01 
  61040.0067     0.13044E-01 
  61072.2689     0.13061E-01 
  61104.5310     0.13080E-01 
  61136.7932     0.13100E-01 
  61169.0554     0.13121E-01 
  61201.3175     0.13143E-01 
  61233.5797     0.13166E-01 
  61265.8418     0.13191E-01 
  61298.1040     0.13217E-01 
  61330.3662     0.13244E-01 
  61362.6283     0.13272E-01 
  61394.8905     0.13302E-01 
  61427.1526     0.13332E-01 
  61459.4148     0.13364E-01 
  61491.6770     0.13397E-01 
  61523.9391     0.13432E-01 
  61556.2013     0.13468E-01 
  61588.4634     0.13505E-01 
  61620.7256     0.13543E-01 
  61652.9878     0.13582E-01 
  61685.2499     0.13623E-01 
  61717.5121     0.13666E-01 
  61749.7742     0.13709E-01 
  61782.0364     0.13754E-01 
  61814.2986     0.13800E-01 
  61846.5607     0.13848E-01 
  61878.8229     0.13897E-01 
  61911.0850     0.13947E-01 
  61943.3472     0.13999E-01 
  61975.6094     0.14052E-01 
  62007.8715     0.14107E-01 
  62040.1337     0.14163E-01 
  62072.3958     0.14220E-01 
  62104.6580     0.14279E-01 
  62136.9202     0.14339E-01 
  62169.1823     0.14401E-01 
  62201.4445     0.14464E-01 
  62233.7066     0.14528E-01 
  62265.9688     0.14595E-01 
  62298.2310     0.14662E-01 
  62330.4931     0.14731E-01 
  62362.7553     0.14802E-01 
  62395.0174     0.14874E-01 
  62427.2796     0.14948E-01 
  62459.5418     0.15023E-01 
  62491.8039     0.15100E-01 
  62524.0661     0.15178E-01 
  62556.3282     0.15258E-01 
  62588.5904     0.15339E-01 
  62620.8526     0.15422E-01 
  62653.1147     0.15507E-01 
  62685.3769     0.15593E-01 
  62717.6390     0.15681E-01 
  62749.9012     0.15771E-01 
  62782.1634     0.15862E-01 
  62814.4255     0.15955E-01 
  62846.6877     0.16049E-01 
  62878.9498     0.16146E-01 
  62911.2120     0.16243E-01 
  62943.4742     0.16343E-01 
  62975.7363     0.16444E-01 
  63007.9985     0.16547E-01 
  63040.2606     0.16652E-01 
  63072.5228     0.16758E-01 
  63104.7850     0.16866E-01 
  63137.0471     0.16976E-01 
  63169.3093     0.17088E-01 
  63201.5714     0.17202E-01 
  63233.8336     0.17317E-01 
  63266.0958     0.17434E-01 
  63298.3579     0.17553E-01 
  63330.6201     0.17673E-01 
  63362.8822     0.17796E-01 
  63395.1444     0.17920E-01 
  63427.4066     0.18047E-01 
  63459.6687     0.18175E-01 
  63491.9309     0.18305E-01 
  63524.1930     0.18436E-01 
  63556.4552     0.18570E-01 
  63588.7174     0.18706E-01 
  63620.9795     0.18843E-01 
  63653.2417     0.18983E-01 
  63685.5038     0.19124E-01 
  63717.7660     0.19267E-01 
  63750.0282     0.19413E-01 
  63782.2903     0.19560E-01 
  63814.5525     0.19709E-01 
  63846.8146     0.19860E-01 
  63879.0768     0.20014E-01 
  63911.3390     0.20169E-01 
  63943.6011     0.20326E-01 
  63975.8633     0.20486E-01 
  64008.1254     0.20647E-01 
  64040.3876     0.20810E-01 
  64072.6498     0.20976E-01 
  64104.9119     0.21143E-01 
  64137.1741     0.21313E-01 
  64169.4362     0.21485E-01 
  64201.6984     0.21659E-01 
  64233.9606     0.21834E-01 
  64266.2227     0.22013E-01 
  64298.4849     0.22193E-01 
  64330.7470     0.22375E-01 
  64363.0092     0.22560E-01 
  64395.2714     0.22746E-01 
  64427.5335     0.22935E-01 
  64459.7957     0.23126E-01 
  64492.0578     0.23320E-01 
  64524.3200     0.23515E-01 
  64556.5822     0.23713E-01 
  64588.8443     0.23913E-01 
  64621.1065     0.24115E-01 
  64653.3686     0.24320E-01 
  64685.6308     0.24527E-01 
  64717.8930     0.24736E-01 
  64750.1551     0.24947E-01 
  64782.4173     0.25161E-01 
  64814.6794     0.25377E-01 
  64846.9416     0.25595E-01 
  64879.2038     0.25815E-01 
  64911.4659     0.26038E-01 
  64943.7281     0.26264E-01 
  64975.9902     0.26491E-01 
  65008.2524     0.26721E-01 
  65040.5146     0.26954E-01 
  65072.7767     0.27189E-01 
  65105.0389     0.27426E-01 
  65137.3010     0.27666E-01 
  65169.5632     0.27908E-01 
  65201.8254     0.28152E-01 
  65234.0875     0.28400E-01 
  65266.3497     0.28649E-01 
  65298.6118     0.28901E-01 
  65330.8740     0.29155E-01 
  65363.1362     0.29412E-01 
  65395.3983     0.29672E-01 
  65427.6605     0.29934E-01 
  65459.9226     0.30198E-01 
  65492.1848     0.30465E-01 
  65524.4470     0.30735E-01 
  65556.7091     0.31007E-01 
  65588.9713     0.31282E-01 
  65621.2334     0.31559E-01 
  65653.4956     0.31839E-01 
  65685.7578     0.32121E-01 
  65718.0199     0.32407E-01 
  65750.2821     0.32694E-01 
  65782.5442     0.32985E-01 
  65814.8064     0.33278E-01 
  65847.0686     0.33573E-01 
  65879.3307     0.33872E-01 
  65911.5929     0.34172E-01 
  65943.8550     0.34476E-01 
  65976.1172     0.34782E-01 
  66008.3794     0.35092E-01 
  66040.6415     0.35403E-01 
  66072.9037     0.35718E-01 
  66105.1658     0.36035E-01 
  66137.4280     0.36355E-01 
  66169.6902     0.36678E-01 
  66201.9523     0.37003E-01 
  66234.2145     0.37331E-01 
  66266.4766     0.37662E-01 
  66298.7388     0.37996E-01 
  66331.0010     0.38333E-01 
  66363.2631     0.38672E-01 
  66395.5253     0.39015E-01 
  66427.7874     0.39360E-01 
  66460.0496     0.39708E-01 
  66492.3118     0.40058E-01 
  66524.5739     0.40412E-01 
  66556.8361     0.40768E-01 
  66589.0982     0.41128E-01 
  66621.3604     0.41490E-01 
  66653.6226     0.41855E-01 
  66685.8847     0.42223E-01 
  66718.1469     0.42594E-01 
  66750.4090     0.42968E-01 
  66782.6712     0.43345E-01 
  66814.9334     0.43725E-01 
  66847.1955     0.44107E-01 
  66879.4577     0.44493E-01 
  66911.7198     0.44882E-01 
  66943.9820     0.45273E-01 
  66976.2442     0.45668E-01 
  67008.5063     0.46065E-01 
  67040.7685     0.46466E-01 
  67073.0306     0.46869E-01 
  67105.2928     0.47276E-01 
  67137.5550     0.47686E-01 
  67169.8171     0.48098E-01 
  67202.0793     0.48514E-01 
  67234.3414     0.48933E-01 
  67266.6036     0.49354E-01 
  67298.8658     0.49779E-01 
  67331.1279     0.50207E-01 
  67363.3901     0.50638E-01 
  67395.6522     0.51072E-01 
  67427.9144     0.51510E-01 
  67460.1766     0.51950E-01 
  67492.4387     0.52393E-01 
  67524.7009     0.52840E-01 
  67556.9630     0.53289E-01 
  67589.2252     0.53742E-01 
  67621.4874     0.54198E-01 
  67653.7495     0.54657E-01 
  67686.0117     0.55119E-01 
  67718.2738     0.55585E-01 
  67750.5360     0.56053E-01 
  67782.7982     0.56525E-01 
  67815.0603     0.57000E-01 
  67847.3225     0.57478E-01 
  67879.5846     0.57959E-01 
  67911.8468     0.58444E-01 
  67944.1090     0.58932E-01 
  67976.3711     0.59422E-01 
  68008.6333     0.59917E-01 
  68040.8954     0.60414E-01 
  68073.1576     0.60915E-01 
  68105.4198     0.61418E-01 
  68137.6819     0.61925E-01 
  68169.9441     0.62436E-01 
  68202.2062     0.62949E-01 
  68234.4684     0.63466E-01 
  68266.7306     0.63986E-01 
  68298.9927     0.64510E-01 
  68331.2549     0.65036E-01 
  68363.5170     0.65566E-01 
  68395.7792     0.66099E-01 
  68428.0414     0.66636E-01 
  68460.3035     0.67176E-01 
  68492.5657     0.67719E-01 
  68524.8278     0.68265E-01 
  68557.0900     0.68815E-01 
  68589.3522     0.69368E-01 
  68621.6143     0.69924E-01 
  68653.8765     0.70484E-01 
  68686.1386     0.71047E-01 
  68718.4008     0.71613E-01 
  68750.6630     0.72183E-01 
  68782.9251     0.72756E-01 
  68815.1873     0.73332E-01 
  68847.4494     0.73912E-01 
  68879.7116     0.74495E-01 
  68911.9738     0.75081E-01 
  68944.2359     0.75671E-01 
  68976.4981     0.76264E-01 
  69008.7602     0.76860E-01 
  69041.0224     0.77460E-01 
  69073.2846     0.78063E-01 
  69105.5467     0.78670E-01 
  69137.8089     0.79280E-01 
  69170.0710     0.79893E-01 
  69202.3332     0.80510E-01 
  69234.5954     0.81130E-01 
  69266.8575     0.81753E-01 
  69299.1197     0.82380E-01 
  69331.3818     0.83010E-01 
  69363.6440     0.83643E-01 
  69395.9062     0.84280E-01 
  69428.1683     0.84921E-01 
  69460.4305     0.85564E-01 
  69492.6926     0.86211E-01 
  69524.9548     0.86862E-01 
  69557.2170     0.87516E-01 
  69589.4791     0.88173E-01 
  69621.7413     0.88834E-01 
  69654.0034     0.89498E-01 
  69686.2656     0.90165E-01 
  69718.5278     0.90836E-01 
  69750.7899     0.91510E-01 
  69783.0521     0.92188E-01 
  69815.3142     0.92869E-01 
  69847.5764     0.93553E-01 
  69879.8386     0.94241E-01 
  69912.1007     0.94932E-01 
  69944.3629     0.95626E-01 
  69976.6250     0.96324E-01 
  70008.8872     0.97026E-01 
  70041.1494     0.97730E-01 
  70073.4115     0.98438E-01 
  70105.6737     0.99150E-01 
  70137.9358     0.99864E-01 
  70170.1980     0.10058E+00 
  70202.4602     0.10130E+00 
  70234.7223     0.10203E+00 
  70266.9845     0.10276E+00 
  70299.2466     0.10349E+00 
  70331.5088     0.10422E+00 
  70363.7710     0.10496E+00 
  70396.0331     0.10570E+00 
  70428.2953     0.10645E+00 
  70460.5574     0.10720E+00 
  70492.8196     0.10795E+00 
  70525.0818     0.10870E+00 
  70557.3439     0.10946E+00 
  70589.6061     0.11023E+00 
  70621.8682     0.11099E+00 
  70654.1304     0.11176E+00 
  70686.3926     0.11253E+00 
  70718.6547     0.11331E+00 
  70750.9169     0.11408E+00 
  70783.1790     0.11487E+00 
  70815.4412     0.11565E+00 
  70847.7034     0.11644E+00 
  70879.9655     0.11723E+00 
  70912.2277     0.11803E+00 
  70944.4898     0.11882E+00 
  70976.7520     0.11963E+00 
  71009.0142     0.12043E+00 
  71041.2763     0.12124E+00 
  71073.5385     0.12205E+00 
  71105.8006     0.12286E+00 
  71138.0628     0.12368E+00 
  71170.3250     0.12450E+00 
  71202.5871     0.12533E+00 
  71234.8493     0.12615E+00 
  71267.1114     0.12699E+00 
  71299.3736     0.12782E+00 
  71331.6358     0.12866E+00 
  71363.8979     0.12950E+00 
  71396.1601     0.13034E+00 
  71428.4222     0.13119E+00 
  71460.6844     0.13204E+00 
  71492.9466     0.13289E+00 
  71525.2087     0.13375E+00 
  71557.4709     0.13460E+00 
  71589.7330     0.13547E+00 
  71621.9952     0.13633E+00 
  71654.2574     0.13720E+00 
  71686.5195     0.13807E+00 
  71718.7817     0.13895E+00 
  71751.0438     0.13983E+00 
  71783.3060     0.14071E+00 
  71815.5682     0.14159E+00 
  71847.8303     0.14248E+00 
  71880.0925     0.14337E+00 
  71912.3546     0.14426E+00 
  71944.6168     0.14516E+00 
  71976.8790     0.14606E+00 
  72009.1411     0.14696E+00 
  72041.4033     0.14786E+00 
  72073.6654     0.14877E+00 
  72105.9276     0.14968E+00 
  72138.1898     0.15060E+00 
  72170.4519     0.15151E+00 
  72202.7141     0.15243E+00 
  72234.9762     0.15336E+00 
  72267.2384     0.15428E+00 
  72299.5006     0.15521E+00 
  72331.7627     0.15614E+00 
  72364.0249     0.15708E+00 
  72396.2870     0.15801E+00 
  72428.5492     0.15895E+00 
  72460.8114     0.15990E+00 
  72493.0735     0.16084E+00 
  72525.3357     0.16179E+00 
  72557.5978     0.16274E+00 
  72589.8600     0.16370E+00 
