  32262.1600     0.17179E-02 
  32294.4222     0.17361E-02 
  32326.6843     0.17545E-02 
  32358.9465     0.17730E-02 
  32391.2086     0.17916E-02 
  32423.4708     0.18103E-02 
  32455.7330     0.18291E-02 
  32487.9951     0.18481E-02 
  32520.2573     0.18672E-02 
  32552.5194     0.18864E-02 
  32584.7816     0.19058E-02 
  32617.0438     0.19252E-02 
  32649.3059     0.19448E-02 
  32681.5681     0.19645E-02 
  32713.8302     0.19844E-02 
  32746.0924     0.20043E-02 
  32778.3546     0.20244E-02 
  32810.6167     0.20446E-02 
  32842.8789     0.20649E-02 
  32875.1410     0.20854E-02 
  32907.4032     0.21059E-02 
  32939.6654     0.21266E-02 
  32971.9275     0.21474E-02 
  33004.1897     0.21684E-02 
  33036.4518     0.21894E-02 
  33068.7140     0.22106E-02 
  33100.9762     0.22319E-02 
  33133.2383     0.22533E-02 
  33165.5005     0.22749E-02 
  33197.7626     0.22965E-02 
  33230.0248     0.23183E-02 
  33262.2870     0.23402E-02 
  33294.5491     0.23622E-02 
  33326.8113     0.23843E-02 
  33359.0734     0.24066E-02 
  33391.3356     0.24289E-02 
  33423.5978     0.24514E-02 
  33455.8599     0.24740E-02 
  33488.1221     0.24967E-02 
  33520.3842     0.25195E-02 
  33552.6464     0.25424E-02 
  33584.9086     0.25655E-02 
  33617.1707     0.25887E-02 
  33649.4329     0.26119E-02 
  33681.6950     0.26353E-02 
  33713.9572     0.26588E-02 
  33746.2194     0.26824E-02 
  33778.4815     0.27061E-02 
  33810.7437     0.27300E-02 
  33843.0058     0.27539E-02 
  33875.2680     0.27779E-02 
  33907.5302     0.28021E-02 
  33939.7923     0.28263E-02 
  33972.0545     0.28507E-02 
  34004.3166     0.28752E-02 
  34036.5788     0.28997E-02 
  34068.8410     0.29244E-02 
  34101.1031     0.29492E-02 
  34133.3653     0.29741E-02 
  34165.6274     0.29991E-02 
  34197.8896     0.30241E-02 
  34230.1518     0.30493E-02 
  34262.4139     0.30746E-02 
  34294.6761     0.31000E-02 
  34326.9382     0.31255E-02 
  34359.2004     0.31510E-02 
  34391.4626     0.31767E-02 
  34423.7247     0.32025E-02 
  34455.9869     0.32283E-02 
  34488.2490     0.32543E-02 
  34520.5112     0.32803E-02 
  34552.7734     0.33065E-02 
  34585.0355     0.33327E-02 
  34617.2977     0.33590E-02 
  34649.5598     0.33854E-02 
  34681.8220     0.34119E-02 
  34714.0842     0.34384E-02 
  34746.3463     0.34651E-02 
  34778.6085     0.34918E-02 
  34810.8706     0.35187E-02 
  34843.1328     0.35456E-02 
  34875.3950     0.35725E-02 
  34907.6571     0.35996E-02 
  34939.9193     0.36268E-02 
  34972.1814     0.36540E-02 
  35004.4436     0.36813E-02 
  35036.7058     0.37086E-02 
  35068.9679     0.37361E-02 
  35101.2301     0.37636E-02 
  35133.4922     0.37912E-02 
  35165.7544     0.38188E-02 
  35198.0166     0.38466E-02 
  35230.2787     0.38744E-02 
  35262.5409     0.39022E-02 
  35294.8030     0.39302E-02 
  35327.0652     0.39581E-02 
  35359.3274     0.39862E-02 
  35391.5895     0.40143E-02 
  35423.8517     0.40425E-02 
  35456.1138     0.40707E-02 
  35488.3760     0.40990E-02 
  35520.6382     0.41274E-02 
  35552.9003     0.41558E-02 
  35585.1625     0.41842E-02 
  35617.4246     0.42127E-02 
  35649.6868     0.42413E-02 
  35681.9490     0.42699E-02 
  35714.2111     0.42985E-02 
  35746.4733     0.43272E-02 
  35778.7354     0.43560E-02 
  35810.9976     0.43848E-02 
  35843.2598     0.44136E-02 
  35875.5219     0.44425E-02 
  35907.7841     0.44714E-02 
  35940.0462     0.45004E-02 
  35972.3084     0.45293E-02 
  36004.5706     0.45584E-02 
  36036.8327     0.45874E-02 
  36069.0949     0.46165E-02 
  36101.3570     0.46456E-02 
  36133.6192     0.46748E-02 
  36165.8814     0.47039E-02 
  36198.1435     0.47331E-02 
  36230.4057     0.47624E-02 
  36262.6678     0.47916E-02 
  36294.9300     0.48209E-02 
  36327.1922     0.48502E-02 
  36359.4543     0.48795E-02 
  36391.7165     0.49088E-02 
  36423.9786     0.49381E-02 
  36456.2408     0.49675E-02 
  36488.5030     0.49969E-02 
  36520.7651     0.50262E-02 
  36553.0273     0.50556E-02 
  36585.2894     0.50850E-02 
  36617.5516     0.51144E-02 
  36649.8138     0.51438E-02 
  36682.0759     0.51732E-02 
  36714.3381     0.52026E-02 
  36746.6002     0.52320E-02 
  36778.8624     0.52614E-02 
  36811.1246     0.52908E-02 
  36843.3867     0.53202E-02 
  36875.6489     0.53495E-02 
  36907.9110     0.53789E-02 
  36940.1732     0.54083E-02 
  36972.4354     0.54376E-02 
  37004.6975     0.54669E-02 
  37036.9597     0.54963E-02 
  37069.2218     0.55256E-02 
  37101.4840     0.55548E-02 
  37133.7462     0.55841E-02 
  37166.0083     0.56133E-02 
  37198.2705     0.56425E-02 
  37230.5326     0.56717E-02 
  37262.7948     0.57009E-02 
  37295.0570     0.57300E-02 
  37327.3191     0.57591E-02 
  37359.5813     0.57881E-02 
  37391.8434     0.58172E-02 
  37424.1056     0.58461E-02 
  37456.3678     0.58751E-02 
  37488.6299     0.59040E-02 
  37520.8921     0.59329E-02 
  37553.1542     0.59617E-02 
  37585.4164     0.59905E-02 
  37617.6786     0.60192E-02 
  37649.9407     0.60479E-02 
  37682.2029     0.60765E-02 
  37714.4650     0.61051E-02 
  37746.7272     0.61336E-02 
  37778.9894     0.61621E-02 
  37811.2515     0.61905E-02 
  37843.5137     0.62188E-02 
  37875.7758     0.62471E-02 
  37908.0380     0.62754E-02 
  37940.3002     0.63035E-02 
  37972.5623     0.63316E-02 
  38004.8245     0.63596E-02 
  38037.0866     0.63876E-02 
  38069.3488     0.64155E-02 
  38101.6110     0.64433E-02 
  38133.8731     0.64711E-02 
  38166.1353     0.64987E-02 
  38198.3974     0.65263E-02 
  38230.6596     0.65538E-02 
  38262.9218     0.65812E-02 
  38295.1839     0.66086E-02 
  38327.4461     0.66359E-02 
  38359.7082     0.66630E-02 
  38391.9704     0.66901E-02 
  38424.2326     0.67171E-02 
  38456.4947     0.67440E-02 
  38488.7569     0.67708E-02 
  38521.0190     0.67975E-02 
  38553.2812     0.68242E-02 
  38585.5434     0.68507E-02 
  38617.8055     0.68771E-02 
  38650.0677     0.69034E-02 
  38682.3298     0.69296E-02 
  38714.5920     0.69558E-02 
  38746.8542     0.69818E-02 
  38779.1163     0.70077E-02 
  38811.3785     0.70335E-02 
  38843.6406     0.70591E-02 
  38875.9028     0.70847E-02 
  38908.1650     0.71102E-02 
  38940.4271     0.71355E-02 
  38972.6893     0.71607E-02 
  39004.9514     0.71858E-02 
  39037.2136     0.72108E-02 
  39069.4758     0.72357E-02 
  39101.7379     0.72604E-02 
  39134.0001     0.72850E-02 
  39166.2622     0.73095E-02 
  39198.5244     0.73338E-02 
  39230.7866     0.73581E-02 
  39263.0487     0.73822E-02 
  39295.3109     0.74061E-02 
  39327.5730     0.74300E-02 
  39359.8352     0.74537E-02 
  39392.0974     0.74772E-02 
  39424.3595     0.75006E-02 
  39456.6217     0.75239E-02 
  39488.8838     0.75470E-02 
  39521.1460     0.75700E-02 
  39553.4082     0.75929E-02 
  39585.6703     0.76156E-02 
  39617.9325     0.76381E-02 
  39650.1946     0.76605E-02 
  39682.4568     0.76828E-02 
  39714.7190     0.77049E-02 
  39746.9811     0.77269E-02 
  39779.2433     0.77487E-02 
  39811.5054     0.77703E-02 
  39843.7676     0.77918E-02 
  39876.0298     0.78131E-02 
  39908.2919     0.78343E-02 
  39940.5541     0.78553E-02 
  39972.8162     0.78762E-02 
  40005.0784     0.78969E-02 
  40037.3406     0.79174E-02 
  40069.6027     0.79377E-02 
  40101.8649     0.79579E-02 
  40134.1270     0.79780E-02 
  40166.3892     0.79978E-02 
  40198.6514     0.80175E-02 
  40230.9135     0.80370E-02 
  40263.1757     0.80564E-02 
  40295.4378     0.80755E-02 
  40327.7000     0.80945E-02 
  40359.9622     0.81133E-02 
  40392.2243     0.81320E-02 
  40424.4865     0.81505E-02 
  40456.7486     0.81687E-02 
  40489.0108     0.81868E-02 
  40521.2730     0.82048E-02 
  40553.5351     0.82225E-02 
  40585.7973     0.82401E-02 
  40618.0594     0.82574E-02 
  40650.3216     0.82746E-02 
  40682.5838     0.82916E-02 
  40714.8459     0.83084E-02 
  40747.1081     0.83251E-02 
  40779.3702     0.83415E-02 
  40811.6324     0.83578E-02 
  40843.8946     0.83738E-02 
  40876.1567     0.83897E-02 
  40908.4189     0.84054E-02 
  40940.6810     0.84208E-02 
  40972.9432     0.84361E-02 
  41005.2054     0.84512E-02 
  41037.4675     0.84661E-02 
  41069.7297     0.84808E-02 
  41101.9918     0.84953E-02 
  41134.2540     0.85096E-02 
  41166.5162     0.85237E-02 
  41198.7783     0.85376E-02 
  41231.0405     0.85513E-02 
  41263.3026     0.85648E-02 
  41295.5648     0.85781E-02 
  41327.8270     0.85912E-02 
  41360.0891     0.86041E-02 
  41392.3513     0.86168E-02 
  41424.6134     0.86293E-02 
  41456.8756     0.86416E-02 
  41489.1378     0.86536E-02 
  41521.3999     0.86655E-02 
  41553.6621     0.86772E-02 
  41585.9242     0.86886E-02 
  41618.1864     0.86999E-02 
  41650.4486     0.87109E-02 
  41682.7107     0.87217E-02 
  41714.9729     0.87323E-02 
  41747.2350     0.87428E-02 
  41779.4972     0.87530E-02 
  41811.7594     0.87629E-02 
  41844.0215     0.87727E-02 
  41876.2837     0.87823E-02 
  41908.5458     0.87916E-02 
  41940.8080     0.88008E-02 
  41973.0702     0.88097E-02 
  42005.3323     0.88184E-02 
  42037.5945     0.88269E-02 
  42069.8566     0.88352E-02 
  42102.1188     0.88433E-02 
  42134.3810     0.88511E-02 
  42166.6431     0.88588E-02 
  42198.9053     0.88662E-02 
  42231.1674     0.88734E-02 
  42263.4296     0.88804E-02 
  42295.6918     0.88872E-02 
  42327.9539     0.88938E-02 
  42360.2161     0.89001E-02 
  42392.4782     0.89063E-02 
  42424.7404     0.89122E-02 
  42457.0026     0.89179E-02 
  42489.2647     0.89234E-02 
  42521.5269     0.89287E-02 
  42553.7890     0.89337E-02 
  42586.0512     0.89385E-02 
  42618.3134     0.89432E-02 
  42650.5755     0.89476E-02 
  42682.8377     0.89518E-02 
  42715.0998     0.89557E-02 
  42747.3620     0.89595E-02 
  42779.6242     0.89630E-02 
  42811.8863     0.89663E-02 
  42844.1485     0.89694E-02 
  42876.4106     0.89723E-02 
  42908.6728     0.89750E-02 
  42940.9350     0.89775E-02 
  42973.1971     0.89797E-02 
  43005.4593     0.89817E-02 
  43037.7214     0.89835E-02 
  43069.9836     0.89851E-02 
  43102.2458     0.89865E-02 
  43134.5079     0.89877E-02 
  43166.7701     0.89886E-02 
  43199.0322     0.89893E-02 
  43231.2944     0.89899E-02 
  43263.5566     0.89902E-02 
  43295.8187     0.89903E-02 
  43328.0809     0.89901E-02 
  43360.3430     0.89898E-02 
  43392.6052     0.89892E-02 
  43424.8674     0.89885E-02 
  43457.1295     0.89875E-02 
  43489.3917     0.89863E-02 
  43521.6538     0.89849E-02 
  43553.9160     0.89833E-02 
  43586.1782     0.89815E-02 
  43618.4403     0.89795E-02 
  43650.7025     0.89772E-02 
  43682.9646     0.89748E-02 
  43715.2268     0.89721E-02 
  43747.4890     0.89692E-02 
  43779.7511     0.89662E-02 
  43812.0133     0.89629E-02 
  43844.2754     0.89594E-02 
  43876.5376     0.89557E-02 
  43908.7998     0.89518E-02 
  43941.0619     0.89477E-02 
  43973.3241     0.89433E-02 
  44005.5862     0.89388E-02 
  44037.8484     0.89341E-02 
  44070.1106     0.89292E-02 
  44102.3727     0.89241E-02 
  44134.6349     0.89187E-02 
  44166.8970     0.89132E-02 
  44199.1592     0.89075E-02 
  44231.4214     0.89015E-02 
  44263.6835     0.88954E-02 
  44295.9457     0.88891E-02 
  44328.2078     0.88825E-02 
  44360.4700     0.88758E-02 
  44392.7322     0.88689E-02 
  44424.9943     0.88618E-02 
  44457.2565     0.88544E-02 
  44489.5186     0.88469E-02 
  44521.7808     0.88392E-02 
  44554.0430     0.88313E-02 
  44586.3051     0.88233E-02 
  44618.5673     0.88150E-02 
  44650.8294     0.88065E-02 
  44683.0916     0.87978E-02 
  44715.3538     0.87890E-02 
  44747.6159     0.87800E-02 
  44779.8781     0.87707E-02 
  44812.1402     0.87613E-02 
  44844.4024     0.87517E-02 
  44876.6646     0.87420E-02 
  44908.9267     0.87320E-02 
  44941.1889     0.87219E-02 
  44973.4510     0.87115E-02 
  45005.7132     0.87010E-02 
  45037.9754     0.86903E-02 
  45070.2375     0.86795E-02 
  45102.4997     0.86684E-02 
  45134.7618     0.86572E-02 
  45167.0240     0.86458E-02 
  45199.2862     0.86342E-02 
  45231.5483     0.86225E-02 
  45263.8105     0.86106E-02 
  45296.0726     0.85985E-02 
  45328.3348     0.85862E-02 
  45360.5970     0.85738E-02 
  45392.8591     0.85612E-02 
  45425.1213     0.85484E-02 
  45457.3834     0.85355E-02 
  45489.6456     0.85224E-02 
  45521.9078     0.85091E-02 
  45554.1699     0.84956E-02 
  45586.4321     0.84820E-02 
  45618.6942     0.84683E-02 
  45650.9564     0.84544E-02 
  45683.2186     0.84403E-02 
  45715.4807     0.84260E-02 
  45747.7429     0.84117E-02 
  45780.0050     0.83971E-02 
  45812.2672     0.83824E-02 
  45844.5294     0.83675E-02 
  45876.7915     0.83525E-02 
  45909.0537     0.83373E-02 
  45941.3158     0.83220E-02 
  45973.5780     0.83066E-02 
  46005.8402     0.82909E-02 
  46038.1023     0.82752E-02 
  46070.3645     0.82593E-02 
  46102.6266     0.82432E-02 
  46134.8888     0.82270E-02 
  46167.1510     0.82107E-02 
  46199.4131     0.81942E-02 
  46231.6753     0.81775E-02 
  46263.9374     0.81608E-02 
  46296.1996     0.81439E-02 
  46328.4618     0.81268E-02 
  46360.7239     0.81096E-02 
  46392.9861     0.80923E-02 
  46425.2482     0.80749E-02 
  46457.5104     0.80573E-02 
  46489.7726     0.80396E-02 
  46522.0347     0.80218E-02 
  46554.2969     0.80038E-02 
  46586.5590     0.79857E-02 
  46618.8212     0.79675E-02 
  46651.0834     0.79491E-02 
  46683.3455     0.79307E-02 
  46715.6077     0.79121E-02 
  46747.8698     0.78933E-02 
  46780.1320     0.78745E-02 
  46812.3942     0.78556E-02 
  46844.6563     0.78365E-02 
  46876.9185     0.78173E-02 
  46909.1806     0.77980E-02 
  46941.4428     0.77786E-02 
  46973.7050     0.77590E-02 
  47005.9671     0.77394E-02 
  47038.2293     0.77197E-02 
  47070.4914     0.76998E-02 
  47102.7536     0.76798E-02 
  47135.0158     0.76597E-02 
  47167.2779     0.76396E-02 
  47199.5401     0.76193E-02 
  47231.8022     0.75989E-02 
  47264.0644     0.75784E-02 
  47296.3266     0.75578E-02 
  47328.5887     0.75371E-02 
  47360.8509     0.75163E-02 
  47393.1130     0.74955E-02 
  47425.3752     0.74745E-02 
  47457.6374     0.74534E-02 
  47489.8995     0.74322E-02 
  47522.1617     0.74110E-02 
  47554.4238     0.73896E-02 
  47586.6860     0.73682E-02 
  47618.9482     0.73467E-02 
  47651.2103     0.73251E-02 
  47683.4725     0.73034E-02 
  47715.7346     0.72816E-02 
  47747.9968     0.72597E-02 
  47780.2590     0.72378E-02 
  47812.5211     0.72157E-02 
  47844.7833     0.71936E-02 
  47877.0454     0.71715E-02 
  47909.3076     0.71492E-02 
  47941.5698     0.71269E-02 
  47973.8319     0.71044E-02 
  48006.0941     0.70820E-02 
  48038.3562     0.70594E-02 
  48070.6184     0.70368E-02 
  48102.8806     0.70141E-02 
  48135.1427     0.69913E-02 
  48167.4049     0.69685E-02 
  48199.6670     0.69456E-02 
  48231.9292     0.69226E-02 
  48264.1914     0.68996E-02 
  48296.4535     0.68765E-02 
  48328.7157     0.68534E-02 
  48360.9778     0.68302E-02 
  48393.2400     0.68069E-02 
  48425.5022     0.67836E-02 
  48457.7643     0.67602E-02 
  48490.0265     0.67368E-02 
  48522.2886     0.67133E-02 
  48554.5508     0.66898E-02 
  48586.8130     0.66662E-02 
  48619.0751     0.66425E-02 
  48651.3373     0.66189E-02 
  48683.5994     0.65951E-02 
  48715.8616     0.65713E-02 
  48748.1238     0.65475E-02 
  48780.3859     0.65236E-02 
  48812.6481     0.64997E-02 
  48844.9102     0.64758E-02 
  48877.1724     0.64518E-02 
  48909.4346     0.64277E-02 
  48941.6967     0.64037E-02 
  48973.9589     0.63796E-02 
  49006.2210     0.63554E-02 
  49038.4832     0.63312E-02 
  49070.7454     0.63070E-02 
  49103.0075     0.62828E-02 
  49135.2697     0.62585E-02 
  49167.5318     0.62342E-02 
  49199.7940     0.62098E-02 
  49232.0562     0.61855E-02 
  49264.3183     0.61611E-02 
  49296.5805     0.61366E-02 
  49328.8426     0.61122E-02 
  49361.1048     0.60877E-02 
  49393.3670     0.60632E-02 
  49425.6291     0.60387E-02 
  49457.8913     0.60142E-02 
  49490.1534     0.59896E-02 
  49522.4156     0.59651E-02 
  49554.6778     0.59405E-02 
  49586.9399     0.59159E-02 
  49619.2021     0.58912E-02 
  49651.4642     0.58666E-02 
  49683.7264     0.58419E-02 
  49715.9886     0.58173E-02 
  49748.2507     0.57926E-02 
  49780.5129     0.57679E-02 
  49812.7750     0.57432E-02 
  49845.0372     0.57185E-02 
  49877.2994     0.56938E-02 
  49909.5615     0.56691E-02 
  49941.8237     0.56444E-02 
  49974.0858     0.56196E-02 
  50006.3480     0.55949E-02 
  50038.6102     0.55702E-02 
  50070.8723     0.55455E-02 
  50103.1345     0.55207E-02 
  50135.3966     0.54960E-02 
  50167.6588     0.54713E-02 
  50199.9210     0.54465E-02 
  50232.1831     0.54218E-02 
  50264.4453     0.53971E-02 
  50296.7074     0.53724E-02 
  50328.9696     0.53477E-02 
  50361.2318     0.53230E-02 
  50393.4939     0.52983E-02 
  50425.7561     0.52736E-02 
  50458.0182     0.52489E-02 
  50490.2804     0.52242E-02 
  50522.5426     0.51996E-02 
  50554.8047     0.51749E-02 
  50587.0669     0.51503E-02 
  50619.3290     0.51257E-02 
  50651.5912     0.51011E-02 
  50683.8534     0.50765E-02 
  50716.1155     0.50519E-02 
  50748.3777     0.50274E-02 
  50780.6398     0.50029E-02 
  50812.9020     0.49784E-02 
  50845.1642     0.49539E-02 
  50877.4263     0.49294E-02 
  50909.6885     0.49049E-02 
  50941.9506     0.48805E-02 
  50974.2128     0.48561E-02 
  51006.4750     0.48317E-02 
  51038.7371     0.48074E-02 
  51070.9993     0.47831E-02 
  51103.2614     0.47587E-02 
  51135.5236     0.47345E-02 
  51167.7858     0.47102E-02 
  51200.0479     0.46860E-02 
  51232.3101     0.46618E-02 
  51264.5722     0.46377E-02 
  51296.8344     0.46135E-02 
  51329.0966     0.45894E-02 
  51361.3587     0.45654E-02 
  51393.6209     0.45413E-02 
  51425.8830     0.45173E-02 
  51458.1452     0.44934E-02 
  51490.4074     0.44694E-02 
  51522.6695     0.44455E-02 
  51554.9317     0.44217E-02 
  51587.1938     0.43978E-02 
  51619.4560     0.43741E-02 
  51651.7182     0.43503E-02 
  51683.9803     0.43266E-02 
  51716.2425     0.43029E-02 
  51748.5046     0.42793E-02 
  51780.7668     0.42557E-02 
  51813.0290     0.42322E-02 
  51845.2911     0.42087E-02 
  51877.5533     0.41852E-02 
  51909.8154     0.41618E-02 
  51942.0776     0.41384E-02 
  51974.3398     0.41151E-02 
  52006.6019     0.40918E-02 
  52038.8641     0.40686E-02 
  52071.1262     0.40454E-02 
  52103.3884     0.40222E-02 
  52135.6506     0.39991E-02 
  52167.9127     0.39761E-02 
  52200.1749     0.39531E-02 
  52232.4370     0.39301E-02 
  52264.6992     0.39072E-02 
  52296.9614     0.38843E-02 
  52329.2235     0.38615E-02 
  52361.4857     0.38388E-02 
  52393.7478     0.38161E-02 
  52426.0100     0.37934E-02 
  52458.2722     0.37708E-02 
  52490.5343     0.37483E-02 
  52522.7965     0.37258E-02 
  52555.0586     0.37033E-02 
  52587.3208     0.36810E-02 
  52619.5830     0.36586E-02 
  52651.8451     0.36363E-02 
  52684.1073     0.36141E-02 
  52716.3694     0.35920E-02 
  52748.6316     0.35698E-02 
  52780.8938     0.35478E-02 
  52813.1559     0.35258E-02 
  52845.4181     0.35039E-02 
  52877.6802     0.34820E-02 
  52909.9424     0.34602E-02 
  52942.2046     0.34384E-02 
  52974.4667     0.34167E-02 
  53006.7289     0.33951E-02 
  53038.9910     0.33735E-02 
  53071.2532     0.33519E-02 
  53103.5154     0.33305E-02 
  53135.7775     0.33091E-02 
  53168.0397     0.32877E-02 
  53200.3018     0.32665E-02 
  53232.5640     0.32452E-02 
  53264.8262     0.32241E-02 
  53297.0883     0.32030E-02 
  53329.3505     0.31820E-02 
  53361.6126     0.31610E-02 
  53393.8748     0.31401E-02 
  53426.1370     0.31193E-02 
  53458.3991     0.30985E-02 
  53490.6613     0.30778E-02 
  53522.9234     0.30571E-02 
  53555.1856     0.30366E-02 
  53587.4478     0.30161E-02 
  53619.7099     0.29956E-02 
  53651.9721     0.29752E-02 
  53684.2342     0.29549E-02 
  53716.4964     0.29347E-02 
  53748.7586     0.29145E-02 
  53781.0207     0.28944E-02 
  53813.2829     0.28743E-02 
  53845.5450     0.28543E-02 
  53877.8072     0.28344E-02 
  53910.0694     0.28146E-02 
  53942.3315     0.27948E-02 
  53974.5937     0.27751E-02 
  54006.8558     0.27554E-02 
  54039.1180     0.27359E-02 
  54071.3802     0.27164E-02 
  54103.6423     0.26969E-02 
  54135.9045     0.26776E-02 
  54168.1666     0.26583E-02 
  54200.4288     0.26391E-02 
  54232.6910     0.26199E-02 
  54264.9531     0.26008E-02 
  54297.2153     0.25818E-02 
  54329.4774     0.25628E-02 
  54361.7396     0.25440E-02 
  54394.0018     0.25252E-02 
  54426.2639     0.25064E-02 
  54458.5261     0.24878E-02 
  54490.7882     0.24692E-02 
  54523.0504     0.24507E-02 
  54555.3126     0.24322E-02 
  54587.5747     0.24138E-02 
  54619.8369     0.23955E-02 
  54652.0990     0.23773E-02 
  54684.3612     0.23591E-02 
  54716.6234     0.23410E-02 
  54748.8855     0.23230E-02 
  54781.1477     0.23051E-02 
  54813.4098     0.22872E-02 
  54845.6720     0.22694E-02 
  54877.9342     0.22517E-02 
  54910.1963     0.22340E-02 
  54942.4585     0.22164E-02 
  54974.7206     0.21989E-02 
  55006.9828     0.21815E-02 
  55039.2450     0.21641E-02 
  55071.5071     0.21468E-02 
  55103.7693     0.21296E-02 
  55136.0314     0.21124E-02 
  55168.2936     0.20953E-02 
  55200.5558     0.20783E-02 
  55232.8179     0.20614E-02 
  55265.0801     0.20446E-02 
  55297.3422     0.20278E-02 
  55329.6044     0.20111E-02 
  55361.8666     0.19944E-02 
  55394.1287     0.19778E-02 
  55426.3909     0.19614E-02 
  55458.6530     0.19449E-02 
  55490.9152     0.19286E-02 
  55523.1774     0.19123E-02 
  55555.4395     0.18961E-02 
  55587.7017     0.18800E-02 
  55619.9638     0.18639E-02 
  55652.2260     0.18480E-02 
  55684.4882     0.18320E-02 
  55716.7503     0.18162E-02 
  55749.0125     0.18005E-02 
  55781.2746     0.17848E-02 
  55813.5368     0.17692E-02 
  55845.7990     0.17536E-02 
  55878.0611     0.17381E-02 
  55910.3233     0.17227E-02 
  55942.5854     0.17074E-02 
  55974.8476     0.16922E-02 
  56007.1098     0.16770E-02 
  56039.3719     0.16619E-02 
  56071.6341     0.16469E-02 
  56103.8962     0.16319E-02 
  56136.1584     0.16170E-02 
  56168.4206     0.16022E-02 
  56200.6827     0.15875E-02 
  56232.9449     0.15728E-02 
  56265.2070     0.15582E-02 
  56297.4692     0.15437E-02 
  56329.7314     0.15293E-02 
  56361.9935     0.15149E-02 
  56394.2557     0.15006E-02 
  56426.5178     0.14863E-02 
  56458.7800     0.14722E-02 
  56491.0422     0.14581E-02 
  56523.3043     0.14441E-02 
  56555.5665     0.14302E-02 
  56587.8286     0.14163E-02 
  56620.0908     0.14025E-02 
  56652.3530     0.13888E-02 
  56684.6151     0.13751E-02 
  56716.8773     0.13615E-02 
  56749.1394     0.13480E-02 
  56781.4016     0.13346E-02 
  56813.6638     0.13212E-02 
  56845.9259     0.13079E-02 
  56878.1881     0.12947E-02 
  56910.4502     0.12816E-02 
  56942.7124     0.12685E-02 
  56974.9746     0.12555E-02 
  57007.2367     0.12425E-02 
  57039.4989     0.12297E-02 
  57071.7610     0.12169E-02 
  57104.0232     0.12042E-02 
  57136.2854     0.11915E-02 
  57168.5475     0.11789E-02 
  57200.8097     0.11664E-02 
  57233.0718     0.11540E-02 
  57265.3340     0.11416E-02 
  57297.5962     0.11293E-02 
  57329.8583     0.11171E-02 
  57362.1205     0.11049E-02 
  57394.3826     0.10928E-02 
  57426.6448     0.10808E-02 
  57458.9070     0.10689E-02 
  57491.1691     0.10570E-02 
  57523.4313     0.10452E-02 
  57555.6934     0.10335E-02 
  57587.9556     0.10218E-02 
  57620.2178     0.10102E-02 
  57652.4799     0.99866E-03 
  57684.7421     0.98720E-03 
  57717.0042     0.97581E-03 
  57749.2664     0.96449E-03 
  57781.5286     0.95324E-03 
  57813.7907     0.94206E-03 
  57846.0529     0.93095E-03 
  57878.3150     0.91991E-03 
  57910.5772     0.90893E-03 
  57942.8394     0.89803E-03 
  57975.1015     0.88719E-03 
  58007.3637     0.87642E-03 
  58039.6258     0.86572E-03 
  58071.8880     0.85509E-03 
  58104.1502     0.84453E-03 
  58136.4123     0.83404E-03 
  58168.6745     0.82361E-03 
  58200.9366     0.81326E-03 
  58233.1988     0.80297E-03 
  58265.4610     0.79275E-03 
  58297.7231     0.78260E-03 
  58329.9853     0.77251E-03 
  58362.2474     0.76250E-03 
  58394.5096     0.75255E-03 
  58426.7718     0.74267E-03 
  58459.0339     0.73286E-03 
  58491.2961     0.72312E-03 
  58523.5582     0.71344E-03 
  58555.8204     0.70383E-03 
  58588.0826     0.69429E-03 
  58620.3447     0.68482E-03 
  58652.6069     0.67541E-03 
  58684.8690     0.66607E-03 
  58717.1312     0.65680E-03 
  58749.3934     0.64760E-03 
  58781.6555     0.63847E-03 
  58813.9177     0.62940E-03 
  58846.1798     0.62040E-03 
  58878.4420     0.61147E-03 
  58910.7042     0.60260E-03 
  58942.9663     0.59380E-03 
  58975.2285     0.58507E-03 
  59007.4906     0.57641E-03 
  59039.7528     0.56781E-03 
  59072.0150     0.55929E-03 
  59104.2771     0.55083E-03 
  59136.5393     0.54243E-03 
  59168.8014     0.53411E-03 
  59201.0636     0.52585E-03 
  59233.3258     0.51766E-03 
  59265.5879     0.50954E-03 
  59297.8501     0.50148E-03 
  59330.1122     0.49350E-03 
  59362.3744     0.48558E-03 
  59394.6366     0.47772E-03 
  59426.8987     0.46994E-03 
  59459.1609     0.46222E-03 
  59491.4230     0.45458E-03 
  59523.6852     0.44700E-03 
  59555.9474     0.43949E-03 
  59588.2095     0.43204E-03 
  59620.4717     0.42467E-03 
  59652.7338     0.41736E-03 
  59684.9960     0.41012E-03 
  59717.2582     0.40295E-03 
  59749.5203     0.39585E-03 
  59781.7825     0.38882E-03 
  59814.0446     0.38186E-03 
  59846.3068     0.37497E-03 
  59878.5690     0.36814E-03 
  59910.8311     0.36139E-03 
  59943.0933     0.35470E-03 
  59975.3554     0.34809E-03 
  60007.6176     0.34154E-03 
  60039.8798     0.33507E-03 
  60072.1419     0.32866E-03 
  60104.4041     0.32233E-03 
  60136.6662     0.31606E-03 
  60168.9284     0.30987E-03 
  60201.1906     0.30375E-03 
  60233.4527     0.29770E-03 
  60265.7149     0.29172E-03 
  60297.9770     0.28582E-03 
  60330.2392     0.27998E-03 
  60362.5014     0.27422E-03 
  60394.7635     0.26853E-03 
  60427.0257     0.26292E-03 
  60459.2878     0.25737E-03 
  60491.5500     0.25190E-03 
  60523.8122     0.24651E-03 
  60556.0743     0.24119E-03 
  60588.3365     0.23594E-03 
  60620.5986     0.23077E-03 
  60652.8608     0.22567E-03 
  60685.1230     0.22065E-03 
  60717.3851     0.21571E-03 
  60749.6473     0.21084E-03 
  60781.9094     0.20605E-03 
  60814.1716     0.20134E-03 
  60846.4338     0.19670E-03 
  60878.6959     0.19214E-03 
  60910.9581     0.18766E-03 
  60943.2202     0.18326E-03 
  60975.4824     0.17894E-03 
  61007.7446     0.17470E-03 
  61040.0067     0.17054E-03 
  61072.2689     0.16646E-03 
  61104.5310     0.16246E-03 
  61136.7932     0.15854E-03 
  61169.0554     0.15471E-03 
  61201.3175     0.15096E-03 
  61233.5797     0.14729E-03 
  61265.8418     0.14371E-03 
  61298.1040     0.14022E-03 
  61330.3662     0.13680E-03 
  61362.6283     0.13348E-03 
  61394.8905     0.13024E-03 
  61427.1526     0.12709E-03 
  61459.4148     0.12403E-03 
  61491.6770     0.12106E-03 
  61523.9391     0.11817E-03 
  61556.2013     0.11538E-03 
  61588.4634     0.11268E-03 
  61620.7256     0.11007E-03 
  61652.9878     0.10756E-03 
  61685.2499     0.10513E-03 
  61717.5121     0.10281E-03 
  61749.7742     0.10057E-03 
  61782.0364     0.98437E-04 
  61814.2986     0.96398E-04 
  61846.5607     0.94457E-04 
  61878.8229     0.92615E-04 
  61911.0850     0.90873E-04 
  61943.3472     0.89232E-04 
  61975.6094     0.87692E-04 
  62007.8715     0.86256E-04 
  62040.1337     0.84924E-04 
  62072.3958     0.83697E-04 
  62104.6580     0.82575E-04 
  62136.9202     0.81562E-04 
  62169.1823     0.80656E-04 
  62201.4445     0.79860E-04 
  62233.7066     0.79174E-04 
  62265.9688     0.78601E-04 
  62298.2310     0.78140E-04 
  62330.4931     0.77793E-04 
  62362.7553     0.77563E-04 
  62395.0174     0.77448E-04 
  62427.2796     0.77453E-04 
  62459.5418     0.77576E-04 
  62491.8039     0.77820E-04 
  62524.0661     0.78187E-04 
  62556.3282     0.78677E-04 
  62588.5904     0.79293E-04 
  62620.8526     0.80034E-04 
  62653.1147     0.80904E-04 
  62685.3769     0.81903E-04 
  62717.6390     0.83034E-04 
  62749.9012     0.84297E-04 
  62782.1634     0.85694E-04 
  62814.4255     0.87228E-04 
  62846.6877     0.88899E-04 
  62878.9498     0.90709E-04 
  62911.2120     0.92660E-04 
  62943.4742     0.94754E-04 
  62975.7363     0.96992E-04 
  63007.9985     0.99377E-04 
  63040.2606     0.10191E-03 
  63072.5228     0.10459E-03 
  63104.7850     0.10743E-03 
  63137.0471     0.11042E-03 
  63169.3093     0.11356E-03 
  63201.5714     0.11686E-03 
  63233.8336     0.12033E-03 
  63266.0958     0.12395E-03 
  63298.3579     0.12774E-03 
  63330.6201     0.13169E-03 
  63362.8822     0.13582E-03 
  63395.1444     0.14011E-03 
  63427.4066     0.14458E-03 
  63459.6687     0.14922E-03 
  63491.9309     0.15404E-03 
  63524.1930     0.15904E-03 
  63556.4552     0.16422E-03 
  63588.7174     0.16959E-03 
  63620.9795     0.17514E-03 
  63653.2417     0.18088E-03 
  63685.5038     0.18682E-03 
  63717.7660     0.19295E-03 
  63750.0282     0.19927E-03 
  63782.2903     0.20580E-03 
  63814.5525     0.21253E-03 
  63846.8146     0.21947E-03 
  63879.0768     0.22661E-03 
  63911.3390     0.23397E-03 
  63943.6011     0.24154E-03 
  63975.8633     0.24932E-03 
  64008.1254     0.25733E-03 
  64040.3876     0.26556E-03 
  64072.6498     0.27401E-03 
  64104.9119     0.28270E-03 
  64137.1741     0.29161E-03 
  64169.4362     0.30076E-03 
  64201.6984     0.31015E-03 
  64233.9606     0.31978E-03 
  64266.2227     0.32966E-03 
  64298.4849     0.33979E-03 
  64330.7470     0.35016E-03 
  64363.0092     0.36079E-03 
  64395.2714     0.37168E-03 
  64427.5335     0.38284E-03 
  64459.7957     0.39426E-03 
  64492.0578     0.40594E-03 
  64524.3200     0.41791E-03 
  64556.5822     0.43014E-03 
  64588.8443     0.44266E-03 
  64621.1065     0.45547E-03 
  64653.3686     0.46856E-03 
  64685.6308     0.48194E-03 
  64717.8930     0.49562E-03 
  64750.1551     0.50961E-03 
  64782.4173     0.52389E-03 
  64814.6794     0.53849E-03 
  64846.9416     0.55339E-03 
  64879.2038     0.56862E-03 
  64911.4659     0.58416E-03 
  64943.7281     0.60003E-03 
  64975.9902     0.61623E-03 
  65008.2524     0.63277E-03 
  65040.5146     0.64964E-03 
  65072.7767     0.66686E-03 
  65105.0389     0.68442E-03 
  65137.3010     0.70234E-03 
  65169.5632     0.72062E-03 
  65201.8254     0.73925E-03 
  65234.0875     0.75826E-03 
  65266.3497     0.77764E-03 
  65298.6118     0.79739E-03 
  65330.8740     0.81752E-03 
  65363.1362     0.83805E-03 
  65395.3983     0.85896E-03 
  65427.6605     0.88027E-03 
  65459.9226     0.90199E-03 
  65492.1848     0.92411E-03 
  65524.4470     0.94664E-03 
  65556.7091     0.96959E-03 
  65588.9713     0.99297E-03 
  65621.2334     0.10168E-02 
  65653.4956     0.10410E-02 
  65685.7578     0.10657E-02 
  65718.0199     0.10908E-02 
  65750.2821     0.11164E-02 
  65782.5442     0.11424E-02 
  65814.8064     0.11689E-02 
  65847.0686     0.11959E-02 
  65879.3307     0.12234E-02 
  65911.5929     0.12513E-02 
  65943.8550     0.12797E-02 
  65976.1172     0.13086E-02 
  66008.3794     0.13380E-02 
  66040.6415     0.13679E-02 
  66072.9037     0.13983E-02 
  66105.1658     0.14293E-02 
  66137.4280     0.14608E-02 
  66169.6902     0.14928E-02 
  66201.9523     0.15253E-02 
  66234.2145     0.15584E-02 
  66266.4766     0.15920E-02 
  66298.7388     0.16262E-02 
  66331.0010     0.16610E-02 
  66363.2631     0.16963E-02 
  66395.5253     0.17322E-02 
  66427.7874     0.17687E-02 
  66460.0496     0.18058E-02 
  66492.3118     0.18435E-02 
  66524.5739     0.18818E-02 
  66556.8361     0.19207E-02 
  66589.0982     0.19602E-02 
  66621.3604     0.20004E-02 
  66653.6226     0.20412E-02 
  66685.8847     0.20826E-02 
  66718.1469     0.21247E-02 
  66750.4090     0.21674E-02 
  66782.6712     0.22108E-02 
  66814.9334     0.22549E-02 
  66847.1955     0.22997E-02 
  66879.4577     0.23452E-02 
  66911.7198     0.23913E-02 
  66943.9820     0.24382E-02 
  66976.2442     0.24857E-02 
  67008.5063     0.25340E-02 
  67040.7685     0.25831E-02 
  67073.0306     0.26328E-02 
  67105.2928     0.26833E-02 
  67137.5550     0.27346E-02 
  67169.8171     0.27866E-02 
  67202.0793     0.28394E-02 
  67234.3414     0.28930E-02 
  67266.6036     0.29473E-02 
  67298.8658     0.30025E-02 
  67331.1279     0.30584E-02 
  67363.3901     0.31152E-02 
  67395.6522     0.31728E-02 
  67427.9144     0.32312E-02 
  67460.1766     0.32904E-02 
  67492.4387     0.33505E-02 
  67524.7009     0.34115E-02 
  67556.9630     0.34733E-02 
  67589.2252     0.35360E-02 
  67621.4874     0.35996E-02 
  67653.7495     0.36641E-02 
  67686.0117     0.37294E-02 
  67718.2738     0.37957E-02 
  67750.5360     0.38629E-02 
  67782.7982     0.39310E-02 
  67815.0603     0.40001E-02 
  67847.3225     0.40701E-02 
  67879.5846     0.41411E-02 
  67911.8468     0.42130E-02 
  67944.1090     0.42859E-02 
  67976.3711     0.43598E-02 
  68008.6333     0.44347E-02 
  68040.8954     0.45106E-02 
  68073.1576     0.45875E-02 
  68105.4198     0.46654E-02 
  68137.6819     0.47444E-02 
  68169.9441     0.48243E-02 
  68202.2062     0.49054E-02 
  68234.4684     0.49875E-02 
  68266.7306     0.50707E-02 
  68298.9927     0.51549E-02 
  68331.2549     0.52403E-02 
  68363.5170     0.53267E-02 
  68395.7792     0.54143E-02 
  68428.0414     0.55029E-02 
  68460.3035     0.55927E-02 
  68492.5657     0.56837E-02 
  68524.8278     0.57757E-02 
  68557.0900     0.58690E-02 
  68589.3522     0.59634E-02 
  68621.6143     0.60590E-02 
  68653.8765     0.61558E-02 
  68686.1386     0.62537E-02 
  68718.4008     0.63529E-02 
  68750.6630     0.64533E-02 
  68782.9251     0.65550E-02 
  68815.1873     0.66578E-02 
  68847.4494     0.67619E-02 
  68879.7116     0.68673E-02 
  68911.9738     0.69740E-02 
  68944.2359     0.70819E-02 
  68976.4981     0.71911E-02 
  69008.7602     0.73016E-02 
  69041.0224     0.74134E-02 
  69073.2846     0.75266E-02 
  69105.5467     0.76410E-02 
  69137.8089     0.77568E-02 
  69170.0710     0.78740E-02 
  69202.3332     0.79925E-02 
  69234.5954     0.81124E-02 
  69266.8575     0.82336E-02 
  69299.1197     0.83563E-02 
  69331.3818     0.84803E-02 
  69363.6440     0.86058E-02 
  69395.9062     0.87326E-02 
  69428.1683     0.88609E-02 
  69460.4305     0.89907E-02 
  69492.6926     0.91218E-02 
  69524.9548     0.92545E-02 
  69557.2170     0.93886E-02 
  69589.4791     0.95242E-02 
  69621.7413     0.96613E-02 
  69654.0034     0.97998E-02 
  69686.2656     0.99399E-02 
  69718.5278     0.10081E-01 
  69750.7899     0.10225E-01 
  69783.0521     0.10369E-01 
  69815.3142     0.10515E-01 
  69847.5764     0.10663E-01 
  69879.8386     0.10813E-01 
  69912.1007     0.10963E-01 
  69944.3629     0.11116E-01 
  69976.6250     0.11270E-01 
  70008.8872     0.11426E-01 
  70041.1494     0.11583E-01 
  70073.4115     0.11742E-01 
  70105.6737     0.11902E-01 
  70137.9358     0.12065E-01 
  70170.1980     0.12228E-01 
  70202.4602     0.12394E-01 
  70234.7223     0.12561E-01 
  70266.9845     0.12730E-01 
  70299.2466     0.12900E-01 
  70331.5088     0.13072E-01 
  70363.7710     0.13246E-01 
  70396.0331     0.13422E-01 
  70428.2953     0.13599E-01 
  70460.5574     0.13778E-01 
  70492.8196     0.13959E-01 
  70525.0818     0.14141E-01 
  70557.3439     0.14326E-01 
  70589.6061     0.14512E-01 
  70621.8682     0.14699E-01 
  70654.1304     0.14889E-01 
  70686.3926     0.15080E-01 
  70718.6547     0.15273E-01 
  70750.9169     0.15468E-01 
  70783.1790     0.15665E-01 
  70815.4412     0.15864E-01 
  70847.7034     0.16064E-01 
  70879.9655     0.16266E-01 
  70912.2277     0.16470E-01 
  70944.4898     0.16676E-01 
  70976.7520     0.16884E-01 
  71009.0142     0.17093E-01 
  71041.2763     0.17305E-01 
  71073.5385     0.17518E-01 
  71105.8006     0.17733E-01 
  71138.0628     0.17950E-01 
  71170.3250     0.18169E-01 
  71202.5871     0.18390E-01 
  71234.8493     0.18612E-01 
  71267.1114     0.18837E-01 
  71299.3736     0.19063E-01 
  71331.6358     0.19292E-01 
  71363.8979     0.19522E-01 
  71396.1601     0.19754E-01 
  71428.4222     0.19989E-01 
  71460.6844     0.20225E-01 
  71492.9466     0.20463E-01 
  71525.2087     0.20703E-01 
  71557.4709     0.20945E-01 
  71589.7330     0.21189E-01 
  71621.9952     0.21434E-01 
  71654.2574     0.21682E-01 
  71686.5195     0.21932E-01 
  71718.7817     0.22184E-01 
  71751.0438     0.22437E-01 
  71783.3060     0.22693E-01 
  71815.5682     0.22951E-01 
  71847.8303     0.23210E-01 
  71880.0925     0.23472E-01 
  71912.3546     0.23736E-01 
  71944.6168     0.24001E-01 
  71976.8790     0.24269E-01 
  72009.1411     0.24538E-01 
  72041.4033     0.24810E-01 
  72073.6654     0.25084E-01 
  72105.9276     0.25359E-01 
  72138.1898     0.25637E-01 
  72170.4519     0.25916E-01 
  72202.7141     0.26198E-01 
  72234.9762     0.26482E-01 
  72267.2384     0.26767E-01 
  72299.5006     0.27055E-01 
  72331.7627     0.27344E-01 
  72364.0249     0.27636E-01 
  72396.2870     0.27930E-01 
  72428.5492     0.28225E-01 
  72460.8114     0.28523E-01 
  72493.0735     0.28823E-01 
  72525.3357     0.29124E-01 
  72557.5978     0.29428E-01 
  72589.8600     0.29733E-01 
