  32262.1600     0.43047E-04 
  32294.4222     0.43448E-04 
  32326.6843     0.43851E-04 
  32358.9465     0.44256E-04 
  32391.2086     0.44663E-04 
  32423.4708     0.45073E-04 
  32455.7330     0.45485E-04 
  32487.9951     0.45900E-04 
  32520.2573     0.46317E-04 
  32552.5194     0.46736E-04 
  32584.7816     0.47157E-04 
  32617.0438     0.47581E-04 
  32649.3059     0.48007E-04 
  32681.5681     0.48436E-04 
  32713.8302     0.48867E-04 
  32746.0924     0.49300E-04 
  32778.3546     0.49735E-04 
  32810.6167     0.50173E-04 
  32842.8789     0.50613E-04 
  32875.1410     0.51055E-04 
  32907.4032     0.51500E-04 
  32939.6654     0.51947E-04 
  32971.9275     0.52396E-04 
  33004.1897     0.52847E-04 
  33036.4518     0.53301E-04 
  33068.7140     0.53757E-04 
  33100.9762     0.54215E-04 
  33133.2383     0.54676E-04 
  33165.5005     0.55138E-04 
  33197.7626     0.55603E-04 
  33230.0248     0.56070E-04 
  33262.2870     0.56540E-04 
  33294.5491     0.57012E-04 
  33326.8113     0.57485E-04 
  33359.0734     0.57961E-04 
  33391.3356     0.58440E-04 
  33423.5978     0.58920E-04 
  33455.8599     0.59403E-04 
  33488.1221     0.59888E-04 
  33520.3842     0.60375E-04 
  33552.6464     0.60864E-04 
  33584.9086     0.61355E-04 
  33617.1707     0.61848E-04 
  33649.4329     0.62344E-04 
  33681.6950     0.62841E-04 
  33713.9572     0.63341E-04 
  33746.2194     0.63843E-04 
  33778.4815     0.64347E-04 
  33810.7437     0.64853E-04 
  33843.0058     0.65361E-04 
  33875.2680     0.65871E-04 
  33907.5302     0.66383E-04 
  33939.7923     0.66897E-04 
  33972.0545     0.67414E-04 
  34004.3166     0.67932E-04 
  34036.5788     0.68452E-04 
  34068.8410     0.68974E-04 
  34101.1031     0.69498E-04 
  34133.3653     0.70025E-04 
  34165.6274     0.70553E-04 
  34197.8896     0.71083E-04 
  34230.1518     0.71615E-04 
  34262.4139     0.72148E-04 
  34294.6761     0.72684E-04 
  34326.9382     0.73222E-04 
  34359.2004     0.73761E-04 
  34391.4626     0.74303E-04 
  34423.7247     0.74846E-04 
  34455.9869     0.75391E-04 
  34488.2490     0.75937E-04 
  34520.5112     0.76486E-04 
  34552.7734     0.77036E-04 
  34585.0355     0.77588E-04 
  34617.2977     0.78142E-04 
  34649.5598     0.78698E-04 
  34681.8220     0.79255E-04 
  34714.0842     0.79814E-04 
  34746.3463     0.80375E-04 
  34778.6085     0.80937E-04 
  34810.8706     0.81501E-04 
  34843.1328     0.82067E-04 
  34875.3950     0.82634E-04 
  34907.6571     0.83203E-04 
  34939.9193     0.83773E-04 
  34972.1814     0.84345E-04 
  35004.4436     0.84919E-04 
  35036.7058     0.85494E-04 
  35068.9679     0.86070E-04 
  35101.2301     0.86648E-04 
  35133.4922     0.87228E-04 
  35165.7544     0.87808E-04 
  35198.0166     0.88391E-04 
  35230.2787     0.88975E-04 
  35262.5409     0.89560E-04 
  35294.8030     0.90146E-04 
  35327.0652     0.90734E-04 
  35359.3274     0.91323E-04 
  35391.5895     0.91914E-04 
  35423.8517     0.92505E-04 
  35456.1138     0.93098E-04 
  35488.3760     0.93693E-04 
  35520.6382     0.94288E-04 
  35552.9003     0.94885E-04 
  35585.1625     0.95483E-04 
  35617.4246     0.96082E-04 
  35649.6868     0.96682E-04 
  35681.9490     0.97283E-04 
  35714.2111     0.97885E-04 
  35746.4733     0.98489E-04 
  35778.7354     0.99093E-04 
  35810.9976     0.99699E-04 
  35843.2598     0.10031E-03 
  35875.5219     0.10091E-03 
  35907.7841     0.10152E-03 
  35940.0462     0.10213E-03 
  35972.3084     0.10274E-03 
  36004.5706     0.10335E-03 
  36036.8327     0.10396E-03 
  36069.0949     0.10458E-03 
  36101.3570     0.10519E-03 
  36133.6192     0.10580E-03 
  36165.8814     0.10642E-03 
  36198.1435     0.10704E-03 
  36230.4057     0.10765E-03 
  36262.6678     0.10827E-03 
  36294.9300     0.10889E-03 
  36327.1922     0.10951E-03 
  36359.4543     0.11013E-03 
  36391.7165     0.11075E-03 
  36423.9786     0.11137E-03 
  36456.2408     0.11199E-03 
  36488.5030     0.11261E-03 
  36520.7651     0.11323E-03 
  36553.0273     0.11385E-03 
  36585.2894     0.11448E-03 
  36617.5516     0.11510E-03 
  36649.8138     0.11572E-03 
  36682.0759     0.11635E-03 
  36714.3381     0.11697E-03 
  36746.6002     0.11759E-03 
  36778.8624     0.11822E-03 
  36811.1246     0.11884E-03 
  36843.3867     0.11947E-03 
  36875.6489     0.12010E-03 
  36907.9110     0.12072E-03 
  36940.1732     0.12135E-03 
  36972.4354     0.12197E-03 
  37004.6975     0.12260E-03 
  37036.9597     0.12322E-03 
  37069.2218     0.12385E-03 
  37101.4840     0.12448E-03 
  37133.7462     0.12510E-03 
  37166.0083     0.12573E-03 
  37198.2705     0.12635E-03 
  37230.5326     0.12698E-03 
  37262.7948     0.12761E-03 
  37295.0570     0.12823E-03 
  37327.3191     0.12886E-03 
  37359.5813     0.12948E-03 
  37391.8434     0.13011E-03 
  37424.1056     0.13073E-03 
  37456.3678     0.13135E-03 
  37488.6299     0.13198E-03 
  37520.8921     0.13260E-03 
  37553.1542     0.13322E-03 
  37585.4164     0.13385E-03 
  37617.6786     0.13447E-03 
  37649.9407     0.13509E-03 
  37682.2029     0.13571E-03 
  37714.4650     0.13633E-03 
  37746.7272     0.13695E-03 
  37778.9894     0.13757E-03 
  37811.2515     0.13819E-03 
  37843.5137     0.13881E-03 
  37875.7758     0.13942E-03 
  37908.0380     0.14004E-03 
  37940.3002     0.14065E-03 
  37972.5623     0.14127E-03 
  38004.8245     0.14188E-03 
  38037.0866     0.14250E-03 
  38069.3488     0.14311E-03 
  38101.6110     0.14372E-03 
  38133.8731     0.14433E-03 
  38166.1353     0.14494E-03 
  38198.3974     0.14555E-03 
  38230.6596     0.14616E-03 
  38262.9218     0.14676E-03 
  38295.1839     0.14737E-03 
  38327.4461     0.14797E-03 
  38359.7082     0.14858E-03 
  38391.9704     0.14918E-03 
  38424.2326     0.14978E-03 
  38456.4947     0.15038E-03 
  38488.7569     0.15098E-03 
  38521.0190     0.15157E-03 
  38553.2812     0.15217E-03 
  38585.5434     0.15276E-03 
  38617.8055     0.15335E-03 
  38650.0677     0.15395E-03 
  38682.3298     0.15454E-03 
  38714.5920     0.15512E-03 
  38746.8542     0.15571E-03 
  38779.1163     0.15630E-03 
  38811.3785     0.15688E-03 
  38843.6406     0.15746E-03 
  38875.9028     0.15804E-03 
  38908.1650     0.15862E-03 
  38940.4271     0.15920E-03 
  38972.6893     0.15977E-03 
  39004.9514     0.16035E-03 
  39037.2136     0.16092E-03 
  39069.4758     0.16149E-03 
  39101.7379     0.16206E-03 
  39134.0001     0.16262E-03 
  39166.2622     0.16319E-03 
  39198.5244     0.16375E-03 
  39230.7866     0.16431E-03 
  39263.0487     0.16487E-03 
  39295.3109     0.16543E-03 
  39327.5730     0.16598E-03 
  39359.8352     0.16654E-03 
  39392.0974     0.16709E-03 
  39424.3595     0.16763E-03 
  39456.6217     0.16818E-03 
  39488.8838     0.16872E-03 
  39521.1460     0.16927E-03 
  39553.4082     0.16981E-03 
  39585.6703     0.17034E-03 
  39617.9325     0.17088E-03 
  39650.1946     0.17141E-03 
  39682.4568     0.17194E-03 
  39714.7190     0.17247E-03 
  39746.9811     0.17300E-03 
  39779.2433     0.17352E-03 
  39811.5054     0.17404E-03 
  39843.7676     0.17456E-03 
  39876.0298     0.17507E-03 
  39908.2919     0.17559E-03 
  39940.5541     0.17610E-03 
  39972.8162     0.17661E-03 
  40005.0784     0.17711E-03 
  40037.3406     0.17762E-03 
  40069.6027     0.17812E-03 
  40101.8649     0.17861E-03 
  40134.1270     0.17911E-03 
  40166.3892     0.17960E-03 
  40198.6514     0.18009E-03 
  40230.9135     0.18058E-03 
  40263.1757     0.18106E-03 
  40295.4378     0.18154E-03 
  40327.7000     0.18202E-03 
  40359.9622     0.18249E-03 
  40392.2243     0.18297E-03 
  40424.4865     0.18344E-03 
  40456.7486     0.18390E-03 
  40489.0108     0.18437E-03 
  40521.2730     0.18483E-03 
  40553.5351     0.18528E-03 
  40585.7973     0.18574E-03 
  40618.0594     0.18619E-03 
  40650.3216     0.18664E-03 
  40682.5838     0.18708E-03 
  40714.8459     0.18752E-03 
  40747.1081     0.18796E-03 
  40779.3702     0.18840E-03 
  40811.6324     0.18883E-03 
  40843.8946     0.18926E-03 
  40876.1567     0.18969E-03 
  40908.4189     0.19011E-03 
  40940.6810     0.19053E-03 
  40972.9432     0.19094E-03 
  41005.2054     0.19136E-03 
  41037.4675     0.19177E-03 
  41069.7297     0.19217E-03 
  41101.9918     0.19257E-03 
  41134.2540     0.19297E-03 
  41166.5162     0.19337E-03 
  41198.7783     0.19376E-03 
  41231.0405     0.19415E-03 
  41263.3026     0.19454E-03 
  41295.5648     0.19492E-03 
  41327.8270     0.19529E-03 
  41360.0891     0.19567E-03 
  41392.3513     0.19604E-03 
  41424.6134     0.19641E-03 
  41456.8756     0.19677E-03 
  41489.1378     0.19713E-03 
  41521.3999     0.19749E-03 
  41553.6621     0.19784E-03 
  41585.9242     0.19819E-03 
  41618.1864     0.19854E-03 
  41650.4486     0.19888E-03 
  41682.7107     0.19921E-03 
  41714.9729     0.19955E-03 
  41747.2350     0.19988E-03 
  41779.4972     0.20021E-03 
  41811.7594     0.20053E-03 
  41844.0215     0.20085E-03 
  41876.2837     0.20116E-03 
  41908.5458     0.20147E-03 
  41940.8080     0.20178E-03 
  41973.0702     0.20209E-03 
  42005.3323     0.20239E-03 
  42037.5945     0.20268E-03 
  42069.8566     0.20297E-03 
  42102.1188     0.20326E-03 
  42134.3810     0.20354E-03 
  42166.6431     0.20382E-03 
  42198.9053     0.20410E-03 
  42231.1674     0.20437E-03 
  42263.4296     0.20464E-03 
  42295.6918     0.20491E-03 
  42327.9539     0.20517E-03 
  42360.2161     0.20542E-03 
  42392.4782     0.20567E-03 
  42424.7404     0.20592E-03 
  42457.0026     0.20617E-03 
  42489.2647     0.20641E-03 
  42521.5269     0.20664E-03 
  42553.7890     0.20687E-03 
  42586.0512     0.20710E-03 
  42618.3134     0.20732E-03 
  42650.5755     0.20754E-03 
  42682.8377     0.20776E-03 
  42715.0998     0.20797E-03 
  42747.3620     0.20818E-03 
  42779.6242     0.20838E-03 
  42811.8863     0.20858E-03 
  42844.1485     0.20877E-03 
  42876.4106     0.20896E-03 
  42908.6728     0.20915E-03 
  42940.9350     0.20933E-03 
  42973.1971     0.20951E-03 
  43005.4593     0.20968E-03 
  43037.7214     0.20985E-03 
  43069.9836     0.21001E-03 
  43102.2458     0.21017E-03 
  43134.5079     0.21033E-03 
  43166.7701     0.21048E-03 
  43199.0322     0.21063E-03 
  43231.2944     0.21078E-03 
  43263.5566     0.21091E-03 
  43295.8187     0.21105E-03 
  43328.0809     0.21118E-03 
  43360.3430     0.21131E-03 
  43392.6052     0.21143E-03 
  43424.8674     0.21155E-03 
  43457.1295     0.21166E-03 
  43489.3917     0.21177E-03 
  43521.6538     0.21188E-03 
  43553.9160     0.21198E-03 
  43586.1782     0.21207E-03 
  43618.4403     0.21217E-03 
  43650.7025     0.21225E-03 
  43682.9646     0.21234E-03 
  43715.2268     0.21242E-03 
  43747.4890     0.21249E-03 
  43779.7511     0.21256E-03 
  43812.0133     0.21263E-03 
  43844.2754     0.21269E-03 
  43876.5376     0.21275E-03 
  43908.7998     0.21281E-03 
  43941.0619     0.21285E-03 
  43973.3241     0.21290E-03 
  44005.5862     0.21294E-03 
  44037.8484     0.21298E-03 
  44070.1106     0.21301E-03 
  44102.3727     0.21304E-03 
  44134.6349     0.21306E-03 
  44166.8970     0.21308E-03 
  44199.1592     0.21310E-03 
  44231.4214     0.21311E-03 
  44263.6835     0.21311E-03 
  44295.9457     0.21312E-03 
  44328.2078     0.21311E-03 
  44360.4700     0.21311E-03 
  44392.7322     0.21310E-03 
  44424.9943     0.21308E-03 
  44457.2565     0.21306E-03 
  44489.5186     0.21304E-03 
  44521.7808     0.21301E-03 
  44554.0430     0.21298E-03 
  44586.3051     0.21295E-03 
  44618.5673     0.21291E-03 
  44650.8294     0.21286E-03 
  44683.0916     0.21281E-03 
  44715.3538     0.21276E-03 
  44747.6159     0.21270E-03 
  44779.8781     0.21264E-03 
  44812.1402     0.21258E-03 
  44844.4024     0.21251E-03 
  44876.6646     0.21243E-03 
  44908.9267     0.21236E-03 
  44941.1889     0.21227E-03 
  44973.4510     0.21219E-03 
  45005.7132     0.21210E-03 
  45037.9754     0.21200E-03 
  45070.2375     0.21191E-03 
  45102.4997     0.21180E-03 
  45134.7618     0.21170E-03 
  45167.0240     0.21159E-03 
  45199.2862     0.21147E-03 
  45231.5483     0.21135E-03 
  45263.8105     0.21123E-03 
  45296.0726     0.21110E-03 
  45328.3348     0.21097E-03 
  45360.5970     0.21084E-03 
  45392.8591     0.21070E-03 
  45425.1213     0.21055E-03 
  45457.3834     0.21041E-03 
  45489.6456     0.21026E-03 
  45521.9078     0.21010E-03 
  45554.1699     0.20994E-03 
  45586.4321     0.20978E-03 
  45618.6942     0.20961E-03 
  45650.9564     0.20944E-03 
  45683.2186     0.20927E-03 
  45715.4807     0.20909E-03 
  45747.7429     0.20891E-03 
  45780.0050     0.20872E-03 
  45812.2672     0.20853E-03 
  45844.5294     0.20833E-03 
  45876.7915     0.20814E-03 
  45909.0537     0.20793E-03 
  45941.3158     0.20773E-03 
  45973.5780     0.20752E-03 
  46005.8402     0.20731E-03 
  46038.1023     0.20709E-03 
  46070.3645     0.20687E-03 
  46102.6266     0.20664E-03 
  46134.8888     0.20642E-03 
  46167.1510     0.20619E-03 
  46199.4131     0.20595E-03 
  46231.6753     0.20571E-03 
  46263.9374     0.20547E-03 
  46296.1996     0.20522E-03 
  46328.4618     0.20497E-03 
  46360.7239     0.20472E-03 
  46392.9861     0.20446E-03 
  46425.2482     0.20420E-03 
  46457.5104     0.20394E-03 
  46489.7726     0.20367E-03 
  46522.0347     0.20340E-03 
  46554.2969     0.20312E-03 
  46586.5590     0.20284E-03 
  46618.8212     0.20256E-03 
  46651.0834     0.20228E-03 
  46683.3455     0.20199E-03 
  46715.6077     0.20169E-03 
  46747.8698     0.20140E-03 
  46780.1320     0.20110E-03 
  46812.3942     0.20080E-03 
  46844.6563     0.20049E-03 
  46876.9185     0.20018E-03 
  46909.1806     0.19987E-03 
  46941.4428     0.19956E-03 
  46973.7050     0.19924E-03 
  47005.9671     0.19891E-03 
  47038.2293     0.19859E-03 
  47070.4914     0.19826E-03 
  47102.7536     0.19793E-03 
  47135.0158     0.19759E-03 
  47167.2779     0.19726E-03 
  47199.5401     0.19692E-03 
  47231.8022     0.19657E-03 
  47264.0644     0.19622E-03 
  47296.3266     0.19587E-03 
  47328.5887     0.19552E-03 
  47360.8509     0.19516E-03 
  47393.1130     0.19480E-03 
  47425.3752     0.19444E-03 
  47457.6374     0.19408E-03 
  47489.8995     0.19371E-03 
  47522.1617     0.19334E-03 
  47554.4238     0.19296E-03 
  47586.6860     0.19258E-03 
  47618.9482     0.19220E-03 
  47651.2103     0.19182E-03 
  47683.4725     0.19144E-03 
  47715.7346     0.19105E-03 
  47747.9968     0.19066E-03 
  47780.2590     0.19026E-03 
  47812.5211     0.18987E-03 
  47844.7833     0.18947E-03 
  47877.0454     0.18906E-03 
  47909.3076     0.18866E-03 
  47941.5698     0.18825E-03 
  47973.8319     0.18784E-03 
  48006.0941     0.18743E-03 
  48038.3562     0.18701E-03 
  48070.6184     0.18659E-03 
  48102.8806     0.18617E-03 
  48135.1427     0.18575E-03 
  48167.4049     0.18533E-03 
  48199.6670     0.18490E-03 
  48231.9292     0.18447E-03 
  48264.1914     0.18403E-03 
  48296.4535     0.18360E-03 
  48328.7157     0.18316E-03 
  48360.9778     0.18272E-03 
  48393.2400     0.18228E-03 
  48425.5022     0.18183E-03 
  48457.7643     0.18139E-03 
  48490.0265     0.18094E-03 
  48522.2886     0.18049E-03 
  48554.5508     0.18003E-03 
  48586.8130     0.17958E-03 
  48619.0751     0.17912E-03 
  48651.3373     0.17866E-03 
  48683.5994     0.17820E-03 
  48715.8616     0.17773E-03 
  48748.1238     0.17726E-03 
  48780.3859     0.17679E-03 
  48812.6481     0.17632E-03 
  48844.9102     0.17585E-03 
  48877.1724     0.17538E-03 
  48909.4346     0.17490E-03 
  48941.6967     0.17442E-03 
  48973.9589     0.17394E-03 
  49006.2210     0.17346E-03 
  49038.4832     0.17297E-03 
  49070.7454     0.17249E-03 
  49103.0075     0.17200E-03 
  49135.2697     0.17151E-03 
  49167.5318     0.17102E-03 
  49199.7940     0.17052E-03 
  49232.0562     0.17003E-03 
  49264.3183     0.16953E-03 
  49296.5805     0.16903E-03 
  49328.8426     0.16853E-03 
  49361.1048     0.16803E-03 
  49393.3670     0.16752E-03 
  49425.6291     0.16702E-03 
  49457.8913     0.16651E-03 
  49490.1534     0.16600E-03 
  49522.4156     0.16549E-03 
  49554.6778     0.16498E-03 
  49586.9399     0.16447E-03 
  49619.2021     0.16395E-03 
  49651.4642     0.16343E-03 
  49683.7264     0.16292E-03 
  49715.9886     0.16240E-03 
  49748.2507     0.16188E-03 
  49780.5129     0.16135E-03 
  49812.7750     0.16083E-03 
  49845.0372     0.16031E-03 
  49877.2994     0.15978E-03 
  49909.5615     0.15925E-03 
  49941.8237     0.15872E-03 
  49974.0858     0.15820E-03 
  50006.3480     0.15766E-03 
  50038.6102     0.15713E-03 
  50070.8723     0.15660E-03 
  50103.1345     0.15606E-03 
  50135.3966     0.15553E-03 
  50167.6588     0.15499E-03 
  50199.9210     0.15445E-03 
  50232.1831     0.15392E-03 
  50264.4453     0.15338E-03 
  50296.7074     0.15283E-03 
  50328.9696     0.15229E-03 
  50361.2318     0.15175E-03 
  50393.4939     0.15121E-03 
  50425.7561     0.15066E-03 
  50458.0182     0.15011E-03 
  50490.2804     0.14957E-03 
  50522.5426     0.14902E-03 
  50554.8047     0.14847E-03 
  50587.0669     0.14792E-03 
  50619.3290     0.14737E-03 
  50651.5912     0.14682E-03 
  50683.8534     0.14627E-03 
  50716.1155     0.14572E-03 
  50748.3777     0.14517E-03 
  50780.6398     0.14461E-03 
  50812.9020     0.14406E-03 
  50845.1642     0.14350E-03 
  50877.4263     0.14295E-03 
  50909.6885     0.14239E-03 
  50941.9506     0.14183E-03 
  50974.2128     0.14128E-03 
  51006.4750     0.14072E-03 
  51038.7371     0.14016E-03 
  51070.9993     0.13960E-03 
  51103.2614     0.13904E-03 
  51135.5236     0.13848E-03 
  51167.7858     0.13792E-03 
  51200.0479     0.13736E-03 
  51232.3101     0.13680E-03 
  51264.5722     0.13624E-03 
  51296.8344     0.13567E-03 
  51329.0966     0.13511E-03 
  51361.3587     0.13455E-03 
  51393.6209     0.13399E-03 
  51425.8830     0.13342E-03 
  51458.1452     0.13286E-03 
  51490.4074     0.13229E-03 
  51522.6695     0.13173E-03 
  51554.9317     0.13117E-03 
  51587.1938     0.13060E-03 
  51619.4560     0.13004E-03 
  51651.7182     0.12947E-03 
  51683.9803     0.12891E-03 
  51716.2425     0.12834E-03 
  51748.5046     0.12778E-03 
  51780.7668     0.12721E-03 
  51813.0290     0.12664E-03 
  51845.2911     0.12608E-03 
  51877.5533     0.12551E-03 
  51909.8154     0.12495E-03 
  51942.0776     0.12438E-03 
  51974.3398     0.12382E-03 
  52006.6019     0.12325E-03 
  52038.8641     0.12268E-03 
  52071.1262     0.12212E-03 
  52103.3884     0.12155E-03 
  52135.6506     0.12099E-03 
  52167.9127     0.12042E-03 
  52200.1749     0.11986E-03 
  52232.4370     0.11929E-03 
  52264.6992     0.11873E-03 
  52296.9614     0.11816E-03 
  52329.2235     0.11760E-03 
  52361.4857     0.11704E-03 
  52393.7478     0.11647E-03 
  52426.0100     0.11591E-03 
  52458.2722     0.11534E-03 
  52490.5343     0.11478E-03 
  52522.7965     0.11422E-03 
  52555.0586     0.11366E-03 
  52587.3208     0.11309E-03 
  52619.5830     0.11253E-03 
  52651.8451     0.11197E-03 
  52684.1073     0.11141E-03 
  52716.3694     0.11085E-03 
  52748.6316     0.11029E-03 
  52780.8938     0.10973E-03 
  52813.1559     0.10917E-03 
  52845.4181     0.10861E-03 
  52877.6802     0.10805E-03 
  52909.9424     0.10749E-03 
  52942.2046     0.10694E-03 
  52974.4667     0.10638E-03 
  53006.7289     0.10582E-03 
  53038.9910     0.10527E-03 
  53071.2532     0.10471E-03 
  53103.5154     0.10416E-03 
  53135.7775     0.10360E-03 
  53168.0397     0.10305E-03 
  53200.3018     0.10250E-03 
  53232.5640     0.10195E-03 
  53264.8262     0.10139E-03 
  53297.0883     0.10084E-03 
  53329.3505     0.10029E-03 
  53361.6126     0.99743E-04 
  53393.8748     0.99194E-04 
  53426.1370     0.98646E-04 
  53458.3991     0.98098E-04 
  53490.6613     0.97551E-04 
  53522.9234     0.97005E-04 
  53555.1856     0.96460E-04 
  53587.4478     0.95916E-04 
  53619.7099     0.95372E-04 
  53651.9721     0.94829E-04 
  53684.2342     0.94287E-04 
  53716.4964     0.93746E-04 
  53748.7586     0.93206E-04 
  53781.0207     0.92666E-04 
  53813.2829     0.92128E-04 
  53845.5450     0.91590E-04 
  53877.8072     0.91053E-04 
  53910.0694     0.90517E-04 
  53942.3315     0.89982E-04 
  53974.5937     0.89448E-04 
  54006.8558     0.88915E-04 
  54039.1180     0.88383E-04 
  54071.3802     0.87851E-04 
  54103.6423     0.87321E-04 
  54135.9045     0.86792E-04 
  54168.1666     0.86263E-04 
  54200.4288     0.85736E-04 
  54232.6910     0.85210E-04 
  54264.9531     0.84684E-04 
  54297.2153     0.84160E-04 
  54329.4774     0.83637E-04 
  54361.7396     0.83115E-04 
  54394.0018     0.82593E-04 
  54426.2639     0.82073E-04 
  54458.5261     0.81554E-04 
  54490.7882     0.81037E-04 
  54523.0504     0.80520E-04 
  54555.3126     0.80004E-04 
  54587.5747     0.79490E-04 
  54619.8369     0.78976E-04 
  54652.0990     0.78464E-04 
  54684.3612     0.77953E-04 
  54716.6234     0.77443E-04 
  54748.8855     0.76934E-04 
  54781.1477     0.76427E-04 
  54813.4098     0.75920E-04 
  54845.6720     0.75415E-04 
  54877.9342     0.74911E-04 
  54910.1963     0.74408E-04 
  54942.4585     0.73907E-04 
  54974.7206     0.73406E-04 
  55006.9828     0.72907E-04 
  55039.2450     0.72409E-04 
  55071.5071     0.71913E-04 
  55103.7693     0.71418E-04 
  55136.0314     0.70924E-04 
  55168.2936     0.70431E-04 
  55200.5558     0.69939E-04 
  55232.8179     0.69449E-04 
  55265.0801     0.68960E-04 
  55297.3422     0.68473E-04 
  55329.6044     0.67987E-04 
  55361.8666     0.67502E-04 
  55394.1287     0.67018E-04 
  55426.3909     0.66536E-04 
  55458.6530     0.66055E-04 
  55490.9152     0.65576E-04 
  55523.1774     0.65098E-04 
  55555.4395     0.64621E-04 
  55587.7017     0.64146E-04 
  55619.9638     0.63672E-04 
  55652.2260     0.63200E-04 
  55684.4882     0.62728E-04 
  55716.7503     0.62259E-04 
  55749.0125     0.61790E-04 
  55781.2746     0.61324E-04 
  55813.5368     0.60858E-04 
  55845.7990     0.60394E-04 
  55878.0611     0.59932E-04 
  55910.3233     0.59471E-04 
  55942.5854     0.59011E-04 
  55974.8476     0.58553E-04 
  56007.1098     0.58096E-04 
  56039.3719     0.57641E-04 
  56071.6341     0.57188E-04 
  56103.8962     0.56736E-04 
  56136.1584     0.56285E-04 
  56168.4206     0.55836E-04 
  56200.6827     0.55388E-04 
  56232.9449     0.54942E-04 
  56265.2070     0.54497E-04 
  56297.4692     0.54054E-04 
  56329.7314     0.53613E-04 
  56361.9935     0.53173E-04 
  56394.2557     0.52735E-04 
  56426.5178     0.52298E-04 
  56458.7800     0.51863E-04 
  56491.0422     0.51429E-04 
  56523.3043     0.50997E-04 
  56555.5665     0.50566E-04 
  56587.8286     0.50137E-04 
  56620.0908     0.49710E-04 
  56652.3530     0.49284E-04 
  56684.6151     0.48860E-04 
  56716.8773     0.48438E-04 
  56749.1394     0.48017E-04 
  56781.4016     0.47598E-04 
  56813.6638     0.47180E-04 
  56845.9259     0.46764E-04 
  56878.1881     0.46350E-04 
  56910.4502     0.45937E-04 
  56942.7124     0.45526E-04 
  56974.9746     0.45117E-04 
  57007.2367     0.44709E-04 
  57039.4989     0.44303E-04 
  57071.7610     0.43899E-04 
  57104.0232     0.43497E-04 
  57136.2854     0.43096E-04 
  57168.5475     0.42697E-04 
  57200.8097     0.42299E-04 
  57233.0718     0.41903E-04 
  57265.3340     0.41509E-04 
  57297.5962     0.41117E-04 
  57329.8583     0.40726E-04 
  57362.1205     0.40338E-04 
  57394.3826     0.39951E-04 
  57426.6448     0.39565E-04 
  57458.9070     0.39182E-04 
  57491.1691     0.38800E-04 
  57523.4313     0.38420E-04 
  57555.6934     0.38042E-04 
  57587.9556     0.37665E-04 
  57620.2178     0.37290E-04 
  57652.4799     0.36918E-04 
  57684.7421     0.36546E-04 
  57717.0042     0.36177E-04 
  57749.2664     0.35810E-04 
  57781.5286     0.35444E-04 
  57813.7907     0.35080E-04 
  57846.0529     0.34718E-04 
  57878.3150     0.34358E-04 
  57910.5772     0.34000E-04 
  57942.8394     0.33644E-04 
  57975.1015     0.33289E-04 
  58007.3637     0.32937E-04 
  58039.6258     0.32586E-04 
  58071.8880     0.32237E-04 
  58104.1502     0.31890E-04 
  58136.4123     0.31545E-04 
  58168.6745     0.31202E-04 
  58200.9366     0.30861E-04 
  58233.1988     0.30521E-04 
  58265.4610     0.30184E-04 
  58297.7231     0.29849E-04 
  58329.9853     0.29515E-04 
  58362.2474     0.29184E-04 
  58394.5096     0.28854E-04 
  58426.7718     0.28527E-04 
  58459.0339     0.28201E-04 
  58491.2961     0.27878E-04 
  58523.5582     0.27556E-04 
  58555.8204     0.27237E-04 
  58588.0826     0.26919E-04 
  58620.3447     0.26604E-04 
  58652.6069     0.26290E-04 
  58684.8690     0.25979E-04 
  58717.1312     0.25670E-04 
  58749.3934     0.25362E-04 
  58781.6555     0.25057E-04 
  58813.9177     0.24754E-04 
  58846.1798     0.24453E-04 
  58878.4420     0.24154E-04 
  58910.7042     0.23858E-04 
  58942.9663     0.23563E-04 
  58975.2285     0.23271E-04 
  59007.4906     0.22980E-04 
  59039.7528     0.22692E-04 
  59072.0150     0.22406E-04 
  59104.2771     0.22123E-04 
  59136.5393     0.21841E-04 
  59168.8014     0.21562E-04 
  59201.0636     0.21285E-04 
  59233.3258     0.21010E-04 
  59265.5879     0.20737E-04 
  59297.8501     0.20467E-04 
  59330.1122     0.20199E-04 
  59362.3744     0.19933E-04 
  59394.6366     0.19669E-04 
  59426.8987     0.19408E-04 
  59459.1609     0.19149E-04 
  59491.4230     0.18893E-04 
  59523.6852     0.18639E-04 
  59555.9474     0.18387E-04 
  59588.2095     0.18138E-04 
  59620.4717     0.17891E-04 
  59652.7338     0.17646E-04 
  59684.9960     0.17404E-04 
  59717.2582     0.17164E-04 
  59749.5203     0.16927E-04 
  59781.7825     0.16692E-04 
  59814.0446     0.16460E-04 
  59846.3068     0.16231E-04 
  59878.5690     0.16003E-04 
  59910.8311     0.15779E-04 
  59943.0933     0.15557E-04 
  59975.3554     0.15337E-04 
  60007.6176     0.15120E-04 
  60039.8798     0.14906E-04 
  60072.1419     0.14694E-04 
  60104.4041     0.14485E-04 
  60136.6662     0.14279E-04 
  60168.9284     0.14076E-04 
  60201.1906     0.13875E-04 
  60233.4527     0.13677E-04 
  60265.7149     0.13481E-04 
  60297.9770     0.13289E-04 
  60330.2392     0.13099E-04 
  60362.5014     0.12912E-04 
  60394.7635     0.12728E-04 
  60427.0257     0.12546E-04 
  60459.2878     0.12368E-04 
  60491.5500     0.12192E-04 
  60523.8122     0.12020E-04 
  60556.0743     0.11850E-04 
  60588.3365     0.11684E-04 
  60620.5986     0.11520E-04 
  60652.8608     0.11359E-04 
  60685.1230     0.11202E-04 
  60717.3851     0.11047E-04 
  60749.6473     0.10896E-04 
  60781.9094     0.10748E-04 
  60814.1716     0.10603E-04 
  60846.4338     0.10461E-04 
  60878.6959     0.10322E-04 
  60910.9581     0.10186E-04 
  60943.2202     0.10054E-04 
  60975.4824     0.99253E-05 
  61007.7446     0.97998E-05 
  61040.0067     0.96775E-05 
  61072.2689     0.95587E-05 
  61104.5310     0.94432E-05 
  61136.7932     0.93312E-05 
  61169.0554     0.92227E-05 
  61201.3175     0.91177E-05 
  61233.5797     0.90162E-05 
  61265.8418     0.89183E-05 
  61298.1040     0.88240E-05 
  61330.3662     0.87333E-05 
  61362.6283     0.86463E-05 
  61394.8905     0.85630E-05 
  61427.1526     0.84834E-05 
  61459.4148     0.84076E-05 
  61491.6770     0.83356E-05 
  61523.9391     0.82675E-05 
  61556.2013     0.82032E-05 
  61588.4634     0.81428E-05 
  61620.7256     0.80864E-05 
  61652.9878     0.80340E-05 
  61685.2499     0.79857E-05 
  61717.5121     0.79414E-05 
  61749.7742     0.79012E-05 
  61782.0364     0.78652E-05 
  61814.2986     0.78333E-05 
  61846.5607     0.78057E-05 
  61878.8229     0.77824E-05 
  61911.0850     0.77633E-05 
  61943.3472     0.77487E-05 
  61975.6094     0.77384E-05 
  62007.8715     0.77326E-05 
  62040.1337     0.77313E-05 
  62072.3958     0.77345E-05 
  62104.6580     0.77424E-05 
  62136.9202     0.77548E-05 
  62169.1823     0.77719E-05 
  62201.4445     0.77937E-05 
  62233.7066     0.78204E-05 
  62265.9688     0.78518E-05 
  62298.2310     0.78881E-05 
  62330.4931     0.79293E-05 
  62362.7553     0.79755E-05 
  62395.0174     0.80267E-05 
  62427.2796     0.80830E-05 
  62459.5418     0.81444E-05 
  62491.8039     0.82110E-05 
  62524.0661     0.82828E-05 
  62556.3282     0.83599E-05 
  62588.5904     0.84424E-05 
  62620.8526     0.85302E-05 
  62653.1147     0.86235E-05 
  62685.3769     0.87223E-05 
  62717.6390     0.88267E-05 
  62749.9012     0.89367E-05 
  62782.1634     0.90524E-05 
  62814.4255     0.91738E-05 
  62846.6877     0.93011E-05 
  62878.9498     0.94341E-05 
  62911.2120     0.95732E-05 
  62943.4742     0.97182E-05 
  62975.7363     0.98692E-05 
  63007.9985     0.10026E-04 
  63040.2606     0.10190E-04 
  63072.5228     0.10359E-04 
  63104.7850     0.10535E-04 
  63137.0471     0.10718E-04 
  63169.3093     0.10906E-04 
  63201.5714     0.11101E-04 
  63233.8336     0.11303E-04 
  63266.0958     0.11512E-04 
  63298.3579     0.11727E-04 
  63330.6201     0.11949E-04 
  63362.8822     0.12178E-04 
  63395.1444     0.12413E-04 
  63427.4066     0.12656E-04 
  63459.6687     0.12906E-04 
  63491.9309     0.13163E-04 
  63524.1930     0.13427E-04 
  63556.4552     0.13699E-04 
  63588.7174     0.13977E-04 
  63620.9795     0.14264E-04 
  63653.2417     0.14558E-04 
  63685.5038     0.14859E-04 
  63717.7660     0.15168E-04 
  63750.0282     0.15485E-04 
  63782.2903     0.15810E-04 
  63814.5525     0.16143E-04 
  63846.8146     0.16483E-04 
  63879.0768     0.16832E-04 
  63911.3390     0.17189E-04 
  63943.6011     0.17555E-04 
  63975.8633     0.17928E-04 
  64008.1254     0.18310E-04 
  64040.3876     0.18701E-04 
  64072.6498     0.19100E-04 
  64104.9119     0.19508E-04 
  64137.1741     0.19925E-04 
  64169.4362     0.20351E-04 
  64201.6984     0.20785E-04 
  64233.9606     0.21229E-04 
  64266.2227     0.21682E-04 
  64298.4849     0.22144E-04 
  64330.7470     0.22615E-04 
  64363.0092     0.23096E-04 
  64395.2714     0.23586E-04 
  64427.5335     0.24086E-04 
  64459.7957     0.24596E-04 
  64492.0578     0.25116E-04 
  64524.3200     0.25645E-04 
  64556.5822     0.26185E-04 
  64588.8443     0.26734E-04 
  64621.1065     0.27294E-04 
  64653.3686     0.27864E-04 
  64685.6308     0.28445E-04 
  64717.8930     0.29036E-04 
  64750.1551     0.29638E-04 
  64782.4173     0.30251E-04 
  64814.6794     0.30874E-04 
  64846.9416     0.31508E-04 
  64879.2038     0.32154E-04 
  64911.4659     0.32811E-04 
  64943.7281     0.33478E-04 
  64975.9902     0.34158E-04 
  65008.2524     0.34849E-04 
  65040.5146     0.35551E-04 
  65072.7767     0.36265E-04 
  65105.0389     0.36991E-04 
  65137.3010     0.37729E-04 
  65169.5632     0.38479E-04 
  65201.8254     0.39241E-04 
  65234.0875     0.40016E-04 
  65266.3497     0.40803E-04 
  65298.6118     0.41602E-04 
  65330.8740     0.42414E-04 
  65363.1362     0.43239E-04 
  65395.3983     0.44077E-04 
  65427.6605     0.44928E-04 
  65459.9226     0.45791E-04 
  65492.1848     0.46669E-04 
  65524.4470     0.47559E-04 
  65556.7091     0.48463E-04 
  65588.9713     0.49381E-04 
  65621.2334     0.50312E-04 
  65653.4956     0.51257E-04 
  65685.7578     0.52216E-04 
  65718.0199     0.53190E-04 
  65750.2821     0.54177E-04 
  65782.5442     0.55179E-04 
  65814.8064     0.56196E-04 
  65847.0686     0.57227E-04 
  65879.3307     0.58273E-04 
  65911.5929     0.59334E-04 
  65943.8550     0.60410E-04 
  65976.1172     0.61501E-04 
  66008.3794     0.62607E-04 
  66040.6415     0.63729E-04 
  66072.9037     0.64866E-04 
  66105.1658     0.66019E-04 
  66137.4280     0.67188E-04 
  66169.6902     0.68372E-04 
  66201.9523     0.69573E-04 
  66234.2145     0.70790E-04 
  66266.4766     0.72024E-04 
  66298.7388     0.73274E-04 
  66331.0010     0.74541E-04 
  66363.2631     0.75824E-04 
  66395.5253     0.77124E-04 
  66427.7874     0.78442E-04 
  66460.0496     0.79776E-04 
  66492.3118     0.81128E-04 
  66524.5739     0.82498E-04 
  66556.8361     0.83885E-04 
  66589.0982     0.85290E-04 
  66621.3604     0.86713E-04 
  66653.6226     0.88154E-04 
  66685.8847     0.89613E-04 
  66718.1469     0.91091E-04 
  66750.4090     0.92587E-04 
  66782.6712     0.94101E-04 
  66814.9334     0.95635E-04 
  66847.1955     0.97187E-04 
  66879.4577     0.98759E-04 
  66911.7198     0.10035E-03 
  66943.9820     0.10196E-03 
  66976.2442     0.10359E-03 
  67008.5063     0.10524E-03 
  67040.7685     0.10691E-03 
  67073.0306     0.10860E-03 
  67105.2928     0.11031E-03 
  67137.5550     0.11204E-03 
  67169.8171     0.11379E-03 
  67202.0793     0.11556E-03 
  67234.3414     0.11735E-03 
  67266.6036     0.11916E-03 
  67298.8658     0.12099E-03 
  67331.1279     0.12285E-03 
  67363.3901     0.12472E-03 
  67395.6522     0.12662E-03 
  67427.9144     0.12854E-03 
  67460.1766     0.13048E-03 
  67492.4387     0.13244E-03 
  67524.7009     0.13443E-03 
  67556.9630     0.13643E-03 
  67589.2252     0.13846E-03 
  67621.4874     0.14051E-03 
  67653.7495     0.14259E-03 
  67686.0117     0.14469E-03 
  67718.2738     0.14681E-03 
  67750.5360     0.14895E-03 
  67782.7982     0.15112E-03 
  67815.0603     0.15331E-03 
  67847.3225     0.15552E-03 
  67879.5846     0.15776E-03 
  67911.8468     0.16002E-03 
  67944.1090     0.16231E-03 
  67976.3711     0.16462E-03 
  68008.6333     0.16695E-03 
  68040.8954     0.16931E-03 
  68073.1576     0.17169E-03 
  68105.4198     0.17410E-03 
  68137.6819     0.17653E-03 
  68169.9441     0.17899E-03 
  68202.2062     0.18148E-03 
  68234.4684     0.18399E-03 
  68266.7306     0.18652E-03 
  68298.9927     0.18908E-03 
  68331.2549     0.19167E-03 
  68363.5170     0.19428E-03 
  68395.7792     0.19692E-03 
  68428.0414     0.19958E-03 
  68460.3035     0.20227E-03 
  68492.5657     0.20499E-03 
  68524.8278     0.20774E-03 
  68557.0900     0.21051E-03 
  68589.3522     0.21331E-03 
  68621.6143     0.21613E-03 
  68653.8765     0.21899E-03 
  68686.1386     0.22187E-03 
  68718.4008     0.22478E-03 
  68750.6630     0.22771E-03 
  68782.9251     0.23068E-03 
  68815.1873     0.23367E-03 
  68847.4494     0.23669E-03 
  68879.7116     0.23974E-03 
  68911.9738     0.24282E-03 
  68944.2359     0.24592E-03 
  68976.4981     0.24906E-03 
  69008.7602     0.25222E-03 
  69041.0224     0.25542E-03 
  69073.2846     0.25864E-03 
  69105.5467     0.26189E-03 
  69137.8089     0.26517E-03 
  69170.0710     0.26848E-03 
  69202.3332     0.27182E-03 
  69234.5954     0.27519E-03 
  69266.8575     0.27859E-03 
  69299.1197     0.28202E-03 
  69331.3818     0.28548E-03 
  69363.6440     0.28898E-03 
  69395.9062     0.29250E-03 
  69428.1683     0.29605E-03 
  69460.4305     0.29963E-03 
  69492.6926     0.30325E-03 
  69524.9548     0.30689E-03 
  69557.2170     0.31057E-03 
  69589.4791     0.31428E-03 
  69621.7413     0.31802E-03 
  69654.0034     0.32179E-03 
  69686.2656     0.32559E-03 
  69718.5278     0.32942E-03 
  69750.7899     0.33329E-03 
  69783.0521     0.33719E-03 
  69815.3142     0.34112E-03 
  69847.5764     0.34508E-03 
  69879.8386     0.34907E-03 
  69912.1007     0.35310E-03 
  69944.3629     0.35716E-03 
  69976.6250     0.36125E-03 
  70008.8872     0.36538E-03 
  70041.1494     0.36954E-03 
  70073.4115     0.37373E-03 
  70105.6737     0.37795E-03 
  70137.9358     0.38221E-03 
  70170.1980     0.38650E-03 
  70202.4602     0.39082E-03 
  70234.7223     0.39518E-03 
  70266.9845     0.39957E-03 
  70299.2466     0.40399E-03 
  70331.5088     0.40845E-03 
  70363.7710     0.41294E-03 
  70396.0331     0.41747E-03 
  70428.2953     0.42203E-03 
  70460.5574     0.42662E-03 
  70492.8196     0.43125E-03 
  70525.0818     0.43591E-03 
  70557.3439     0.44061E-03 
  70589.6061     0.44534E-03 
  70621.8682     0.45011E-03 
  70654.1304     0.45491E-03 
  70686.3926     0.45974E-03 
  70718.6547     0.46461E-03 
  70750.9169     0.46952E-03 
  70783.1790     0.47446E-03 
  70815.4412     0.47943E-03 
  70847.7034     0.48444E-03 
  70879.9655     0.48948E-03 
  70912.2277     0.49456E-03 
  70944.4898     0.49967E-03 
  70976.7520     0.50482E-03 
  71009.0142     0.51001E-03 
  71041.2763     0.51523E-03 
  71073.5385     0.52048E-03 
  71105.8006     0.52577E-03 
  71138.0628     0.53110E-03 
  71170.3250     0.53646E-03 
  71202.5871     0.54185E-03 
  71234.8493     0.54729E-03 
  71267.1114     0.55275E-03 
  71299.3736     0.55826E-03 
  71331.6358     0.56379E-03 
  71363.8979     0.56937E-03 
  71396.1601     0.57498E-03 
  71428.4222     0.58062E-03 
  71460.6844     0.58630E-03 
  71492.9466     0.59202E-03 
  71525.2087     0.59777E-03 
  71557.4709     0.60356E-03 
  71589.7330     0.60938E-03 
  71621.9952     0.61524E-03 
  71654.2574     0.62114E-03 
  71686.5195     0.62707E-03 
  71718.7817     0.63304E-03 
  71751.0438     0.63904E-03 
  71783.3060     0.64508E-03 
  71815.5682     0.65115E-03 
  71847.8303     0.65726E-03 
  71880.0925     0.66340E-03 
  71912.3546     0.66958E-03 
  71944.6168     0.67580E-03 
  71976.8790     0.68205E-03 
  72009.1411     0.68834E-03 
  72041.4033     0.69466E-03 
  72073.6654     0.70102E-03 
  72105.9276     0.70741E-03 
  72138.1898     0.71384E-03 
  72170.4519     0.72030E-03 
  72202.7141     0.72680E-03 
  72234.9762     0.73334E-03 
  72267.2384     0.73991E-03 
  72299.5006     0.74651E-03 
  72331.7627     0.75315E-03 
  72364.0249     0.75983E-03 
  72396.2870     0.76654E-03 
  72428.5492     0.77329E-03 
  72460.8114     0.78007E-03 
  72493.0735     0.78688E-03 
  72525.3357     0.79373E-03 
  72557.5978     0.80061E-03 
  72589.8600     0.80753E-03 
