  32262.1600     0.11406E-03 
  32294.4222     0.11502E-03 
  32326.6843     0.11599E-03 
  32358.9465     0.11696E-03 
  32391.2086     0.11794E-03 
  32423.4708     0.11892E-03 
  32455.7330     0.11991E-03 
  32487.9951     0.12090E-03 
  32520.2573     0.12190E-03 
  32552.5194     0.12290E-03 
  32584.7816     0.12391E-03 
  32617.0438     0.12492E-03 
  32649.3059     0.12594E-03 
  32681.5681     0.12697E-03 
  32713.8302     0.12799E-03 
  32746.0924     0.12903E-03 
  32778.3546     0.13006E-03 
  32810.6167     0.13111E-03 
  32842.8789     0.13215E-03 
  32875.1410     0.13321E-03 
  32907.4032     0.13426E-03 
  32939.6654     0.13532E-03 
  32971.9275     0.13639E-03 
  33004.1897     0.13746E-03 
  33036.4518     0.13854E-03 
  33068.7140     0.13962E-03 
  33100.9762     0.14071E-03 
  33133.2383     0.14180E-03 
  33165.5005     0.14290E-03 
  33197.7626     0.14400E-03 
  33230.0248     0.14510E-03 
  33262.2870     0.14621E-03 
  33294.5491     0.14733E-03 
  33326.8113     0.14845E-03 
  33359.0734     0.14957E-03 
  33391.3356     0.15070E-03 
  33423.5978     0.15184E-03 
  33455.8599     0.15297E-03 
  33488.1221     0.15412E-03 
  33520.3842     0.15527E-03 
  33552.6464     0.15642E-03 
  33584.9086     0.15758E-03 
  33617.1707     0.15874E-03 
  33649.4329     0.15991E-03 
  33681.6950     0.16108E-03 
  33713.9572     0.16225E-03 
  33746.2194     0.16343E-03 
  33778.4815     0.16462E-03 
  33810.7437     0.16581E-03 
  33843.0058     0.16700E-03 
  33875.2680     0.16820E-03 
  33907.5302     0.16940E-03 
  33939.7923     0.17061E-03 
  33972.0545     0.17182E-03 
  34004.3166     0.17303E-03 
  34036.5788     0.17425E-03 
  34068.8410     0.17548E-03 
  34101.1031     0.17671E-03 
  34133.3653     0.17794E-03 
  34165.6274     0.17918E-03 
  34197.8896     0.18042E-03 
  34230.1518     0.18166E-03 
  34262.4139     0.18291E-03 
  34294.6761     0.18417E-03 
  34326.9382     0.18542E-03 
  34359.2004     0.18668E-03 
  34391.4626     0.18795E-03 
  34423.7247     0.18922E-03 
  34455.9869     0.19049E-03 
  34488.2490     0.19177E-03 
  34520.5112     0.19305E-03 
  34552.7734     0.19434E-03 
  34585.0355     0.19563E-03 
  34617.2977     0.19692E-03 
  34649.5598     0.19822E-03 
  34681.8220     0.19952E-03 
  34714.0842     0.20082E-03 
  34746.3463     0.20213E-03 
  34778.6085     0.20345E-03 
  34810.8706     0.20476E-03 
  34843.1328     0.20608E-03 
  34875.3950     0.20740E-03 
  34907.6571     0.20873E-03 
  34939.9193     0.21006E-03 
  34972.1814     0.21139E-03 
  35004.4436     0.21273E-03 
  35036.7058     0.21407E-03 
  35068.9679     0.21541E-03 
  35101.2301     0.21676E-03 
  35133.4922     0.21811E-03 
  35165.7544     0.21947E-03 
  35198.0166     0.22082E-03 
  35230.2787     0.22218E-03 
  35262.5409     0.22355E-03 
  35294.8030     0.22491E-03 
  35327.0652     0.22628E-03 
  35359.3274     0.22765E-03 
  35391.5895     0.22903E-03 
  35423.8517     0.23041E-03 
  35456.1138     0.23179E-03 
  35488.3760     0.23317E-03 
  35520.6382     0.23456E-03 
  35552.9003     0.23595E-03 
  35585.1625     0.23734E-03 
  35617.4246     0.23874E-03 
  35649.6868     0.24014E-03 
  35681.9490     0.24154E-03 
  35714.2111     0.24294E-03 
  35746.4733     0.24435E-03 
  35778.7354     0.24576E-03 
  35810.9976     0.24717E-03 
  35843.2598     0.24858E-03 
  35875.5219     0.25000E-03 
  35907.7841     0.25142E-03 
  35940.0462     0.25284E-03 
  35972.3084     0.25426E-03 
  36004.5706     0.25569E-03 
  36036.8327     0.25711E-03 
  36069.0949     0.25854E-03 
  36101.3570     0.25997E-03 
  36133.6192     0.26141E-03 
  36165.8814     0.26284E-03 
  36198.1435     0.26428E-03 
  36230.4057     0.26572E-03 
  36262.6678     0.26716E-03 
  36294.9300     0.26860E-03 
  36327.1922     0.27005E-03 
  36359.4543     0.27149E-03 
  36391.7165     0.27294E-03 
  36423.9786     0.27439E-03 
  36456.2408     0.27584E-03 
  36488.5030     0.27730E-03 
  36520.7651     0.27875E-03 
  36553.0273     0.28021E-03 
  36585.2894     0.28166E-03 
  36617.5516     0.28312E-03 
  36649.8138     0.28458E-03 
  36682.0759     0.28604E-03 
  36714.3381     0.28750E-03 
  36746.6002     0.28897E-03 
  36778.8624     0.29043E-03 
  36811.1246     0.29189E-03 
  36843.3867     0.29336E-03 
  36875.6489     0.29483E-03 
  36907.9110     0.29629E-03 
  36940.1732     0.29776E-03 
  36972.4354     0.29923E-03 
  37004.6975     0.30070E-03 
  37036.9597     0.30217E-03 
  37069.2218     0.30364E-03 
  37101.4840     0.30512E-03 
  37133.7462     0.30659E-03 
  37166.0083     0.30806E-03 
  37198.2705     0.30953E-03 
  37230.5326     0.31101E-03 
  37262.7948     0.31248E-03 
  37295.0570     0.31395E-03 
  37327.3191     0.31543E-03 
  37359.5813     0.31690E-03 
  37391.8434     0.31837E-03 
  37424.1056     0.31985E-03 
  37456.3678     0.32132E-03 
  37488.6299     0.32280E-03 
  37520.8921     0.32427E-03 
  37553.1542     0.32574E-03 
  37585.4164     0.32721E-03 
  37617.6786     0.32869E-03 
  37649.9407     0.33016E-03 
  37682.2029     0.33163E-03 
  37714.4650     0.33310E-03 
  37746.7272     0.33457E-03 
  37778.9894     0.33604E-03 
  37811.2515     0.33751E-03 
  37843.5137     0.33898E-03 
  37875.7758     0.34045E-03 
  37908.0380     0.34191E-03 
  37940.3002     0.34338E-03 
  37972.5623     0.34484E-03 
  38004.8245     0.34631E-03 
  38037.0866     0.34777E-03 
  38069.3488     0.34923E-03 
  38101.6110     0.35069E-03 
  38133.8731     0.35215E-03 
  38166.1353     0.35361E-03 
  38198.3974     0.35506E-03 
  38230.6596     0.35652E-03 
  38262.9218     0.35797E-03 
  38295.1839     0.35942E-03 
  38327.4461     0.36087E-03 
  38359.7082     0.36232E-03 
  38391.9704     0.36377E-03 
  38424.2326     0.36521E-03 
  38456.4947     0.36665E-03 
  38488.7569     0.36809E-03 
  38521.0190     0.36953E-03 
  38553.2812     0.37097E-03 
  38585.5434     0.37240E-03 
  38617.8055     0.37384E-03 
  38650.0677     0.37527E-03 
  38682.3298     0.37669E-03 
  38714.5920     0.37812E-03 
  38746.8542     0.37954E-03 
  38779.1163     0.38096E-03 
  38811.3785     0.38238E-03 
  38843.6406     0.38380E-03 
  38875.9028     0.38521E-03 
  38908.1650     0.38662E-03 
  38940.4271     0.38803E-03 
  38972.6893     0.38943E-03 
  39004.9514     0.39083E-03 
  39037.2136     0.39223E-03 
  39069.4758     0.39363E-03 
  39101.7379     0.39502E-03 
  39134.0001     0.39641E-03 
  39166.2622     0.39780E-03 
  39198.5244     0.39918E-03 
  39230.7866     0.40056E-03 
  39263.0487     0.40193E-03 
  39295.3109     0.40331E-03 
  39327.5730     0.40468E-03 
  39359.8352     0.40604E-03 
  39392.0974     0.40740E-03 
  39424.3595     0.40876E-03 
  39456.6217     0.41012E-03 
  39488.8838     0.41147E-03 
  39521.1460     0.41282E-03 
  39553.4082     0.41416E-03 
  39585.6703     0.41550E-03 
  39617.9325     0.41683E-03 
  39650.1946     0.41816E-03 
  39682.4568     0.41949E-03 
  39714.7190     0.42081E-03 
  39746.9811     0.42213E-03 
  39779.2433     0.42345E-03 
  39811.5054     0.42476E-03 
  39843.7676     0.42606E-03 
  39876.0298     0.42736E-03 
  39908.2919     0.42866E-03 
  39940.5541     0.42995E-03 
  39972.8162     0.43124E-03 
  40005.0784     0.43252E-03 
  40037.3406     0.43380E-03 
  40069.6027     0.43507E-03 
  40101.8649     0.43634E-03 
  40134.1270     0.43760E-03 
  40166.3892     0.43886E-03 
  40198.6514     0.44012E-03 
  40230.9135     0.44136E-03 
  40263.1757     0.44261E-03 
  40295.4378     0.44385E-03 
  40327.7000     0.44508E-03 
  40359.9622     0.44630E-03 
  40392.2243     0.44753E-03 
  40424.4865     0.44874E-03 
  40456.7486     0.44995E-03 
  40489.0108     0.45116E-03 
  40521.2730     0.45236E-03 
  40553.5351     0.45355E-03 
  40585.7973     0.45474E-03 
  40618.0594     0.45592E-03 
  40650.3216     0.45710E-03 
  40682.5838     0.45827E-03 
  40714.8459     0.45944E-03 
  40747.1081     0.46060E-03 
  40779.3702     0.46175E-03 
  40811.6324     0.46290E-03 
  40843.8946     0.46404E-03 
  40876.1567     0.46517E-03 
  40908.4189     0.46630E-03 
  40940.6810     0.46742E-03 
  40972.9432     0.46854E-03 
  41005.2054     0.46965E-03 
  41037.4675     0.47075E-03 
  41069.7297     0.47185E-03 
  41101.9918     0.47294E-03 
  41134.2540     0.47402E-03 
  41166.5162     0.47510E-03 
  41198.7783     0.47617E-03 
  41231.0405     0.47724E-03 
  41263.3026     0.47829E-03 
  41295.5648     0.47934E-03 
  41327.8270     0.48039E-03 
  41360.0891     0.48142E-03 
  41392.3513     0.48245E-03 
  41424.6134     0.48348E-03 
  41456.8756     0.48449E-03 
  41489.1378     0.48550E-03 
  41521.3999     0.48650E-03 
  41553.6621     0.48750E-03 
  41585.9242     0.48848E-03 
  41618.1864     0.48946E-03 
  41650.4486     0.49043E-03 
  41682.7107     0.49140E-03 
  41714.9729     0.49236E-03 
  41747.2350     0.49331E-03 
  41779.4972     0.49425E-03 
  41811.7594     0.49519E-03 
  41844.0215     0.49611E-03 
  41876.2837     0.49703E-03 
  41908.5458     0.49795E-03 
  41940.8080     0.49885E-03 
  41973.0702     0.49975E-03 
  42005.3323     0.50064E-03 
  42037.5945     0.50152E-03 
  42069.8566     0.50239E-03 
  42102.1188     0.50326E-03 
  42134.3810     0.50412E-03 
  42166.6431     0.50497E-03 
  42198.9053     0.50581E-03 
  42231.1674     0.50665E-03 
  42263.4296     0.50747E-03 
  42295.6918     0.50829E-03 
  42327.9539     0.50910E-03 
  42360.2161     0.50990E-03 
  42392.4782     0.51070E-03 
  42424.7404     0.51148E-03 
  42457.0026     0.51226E-03 
  42489.2647     0.51303E-03 
  42521.5269     0.51379E-03 
  42553.7890     0.51454E-03 
  42586.0512     0.51528E-03 
  42618.3134     0.51602E-03 
  42650.5755     0.51675E-03 
  42682.8377     0.51746E-03 
  42715.0998     0.51817E-03 
  42747.3620     0.51887E-03 
  42779.6242     0.51957E-03 
  42811.8863     0.52025E-03 
  42844.1485     0.52093E-03 
  42876.4106     0.52159E-03 
  42908.6728     0.52225E-03 
  42940.9350     0.52290E-03 
  42973.1971     0.52354E-03 
  43005.4593     0.52417E-03 
  43037.7214     0.52480E-03 
  43069.9836     0.52541E-03 
  43102.2458     0.52602E-03 
  43134.5079     0.52661E-03 
  43166.7701     0.52720E-03 
  43199.0322     0.52778E-03 
  43231.2944     0.52835E-03 
  43263.5566     0.52891E-03 
  43295.8187     0.52946E-03 
  43328.0809     0.53000E-03 
  43360.3430     0.53054E-03 
  43392.6052     0.53106E-03 
  43424.8674     0.53158E-03 
  43457.1295     0.53209E-03 
  43489.3917     0.53258E-03 
  43521.6538     0.53307E-03 
  43553.9160     0.53355E-03 
  43586.1782     0.53402E-03 
  43618.4403     0.53448E-03 
  43650.7025     0.53493E-03 
  43682.9646     0.53537E-03 
  43715.2268     0.53581E-03 
  43747.4890     0.53623E-03 
  43779.7511     0.53665E-03 
  43812.0133     0.53705E-03 
  43844.2754     0.53745E-03 
  43876.5376     0.53783E-03 
  43908.7998     0.53821E-03 
  43941.0619     0.53858E-03 
  43973.3241     0.53894E-03 
  44005.5862     0.53929E-03 
  44037.8484     0.53962E-03 
  44070.1106     0.53995E-03 
  44102.3727     0.54028E-03 
  44134.6349     0.54059E-03 
  44166.8970     0.54089E-03 
  44199.1592     0.54118E-03 
  44231.4214     0.54146E-03 
  44263.6835     0.54174E-03 
  44295.9457     0.54200E-03 
  44328.2078     0.54226E-03 
  44360.4700     0.54250E-03 
  44392.7322     0.54274E-03 
  44424.9943     0.54296E-03 
  44457.2565     0.54318E-03 
  44489.5186     0.54339E-03 
  44521.7808     0.54359E-03 
  44554.0430     0.54377E-03 
  44586.3051     0.54395E-03 
  44618.5673     0.54412E-03 
  44650.8294     0.54428E-03 
  44683.0916     0.54443E-03 
  44715.3538     0.54457E-03 
  44747.6159     0.54470E-03 
  44779.8781     0.54482E-03 
  44812.1402     0.54494E-03 
  44844.4024     0.54504E-03 
  44876.6646     0.54513E-03 
  44908.9267     0.54521E-03 
  44941.1889     0.54529E-03 
  44973.4510     0.54535E-03 
  45005.7132     0.54541E-03 
  45037.9754     0.54545E-03 
  45070.2375     0.54549E-03 
  45102.4997     0.54551E-03 
  45134.7618     0.54553E-03 
  45167.0240     0.54554E-03 
  45199.2862     0.54553E-03 
  45231.5483     0.54552E-03 
  45263.8105     0.54550E-03 
  45296.0726     0.54547E-03 
  45328.3348     0.54543E-03 
  45360.5970     0.54538E-03 
  45392.8591     0.54532E-03 
  45425.1213     0.54525E-03 
  45457.3834     0.54517E-03 
  45489.6456     0.54508E-03 
  45521.9078     0.54498E-03 
  45554.1699     0.54488E-03 
  45586.4321     0.54476E-03 
  45618.6942     0.54463E-03 
  45650.9564     0.54450E-03 
  45683.2186     0.54435E-03 
  45715.4807     0.54420E-03 
  45747.7429     0.54404E-03 
  45780.0050     0.54386E-03 
  45812.2672     0.54368E-03 
  45844.5294     0.54349E-03 
  45876.7915     0.54329E-03 
  45909.0537     0.54308E-03 
  45941.3158     0.54286E-03 
  45973.5780     0.54263E-03 
  46005.8402     0.54239E-03 
  46038.1023     0.54215E-03 
  46070.3645     0.54189E-03 
  46102.6266     0.54163E-03 
  46134.8888     0.54135E-03 
  46167.1510     0.54107E-03 
  46199.4131     0.54077E-03 
  46231.6753     0.54047E-03 
  46263.9374     0.54016E-03 
  46296.1996     0.53984E-03 
  46328.4618     0.53951E-03 
  46360.7239     0.53917E-03 
  46392.9861     0.53882E-03 
  46425.2482     0.53847E-03 
  46457.5104     0.53810E-03 
  46489.7726     0.53773E-03 
  46522.0347     0.53734E-03 
  46554.2969     0.53695E-03 
  46586.5590     0.53655E-03 
  46618.8212     0.53614E-03 
  46651.0834     0.53572E-03 
  46683.3455     0.53529E-03 
  46715.6077     0.53485E-03 
  46747.8698     0.53441E-03 
  46780.1320     0.53395E-03 
  46812.3942     0.53349E-03 
  46844.6563     0.53302E-03 
  46876.9185     0.53254E-03 
  46909.1806     0.53205E-03 
  46941.4428     0.53155E-03 
  46973.7050     0.53104E-03 
  47005.9671     0.53053E-03 
  47038.2293     0.53001E-03 
  47070.4914     0.52947E-03 
  47102.7536     0.52893E-03 
  47135.0158     0.52838E-03 
  47167.2779     0.52782E-03 
  47199.5401     0.52726E-03 
  47231.8022     0.52668E-03 
  47264.0644     0.52610E-03 
  47296.3266     0.52551E-03 
  47328.5887     0.52491E-03 
  47360.8509     0.52430E-03 
  47393.1130     0.52369E-03 
  47425.3752     0.52306E-03 
  47457.6374     0.52243E-03 
  47489.8995     0.52179E-03 
  47522.1617     0.52114E-03 
  47554.4238     0.52048E-03 
  47586.6860     0.51982E-03 
  47618.9482     0.51915E-03 
  47651.2103     0.51846E-03 
  47683.4725     0.51778E-03 
  47715.7346     0.51708E-03 
  47747.9968     0.51637E-03 
  47780.2590     0.51566E-03 
  47812.5211     0.51494E-03 
  47844.7833     0.51421E-03 
  47877.0454     0.51348E-03 
  47909.3076     0.51273E-03 
  47941.5698     0.51198E-03 
  47973.8319     0.51122E-03 
  48006.0941     0.51046E-03 
  48038.3562     0.50968E-03 
  48070.6184     0.50890E-03 
  48102.8806     0.50811E-03 
  48135.1427     0.50732E-03 
  48167.4049     0.50651E-03 
  48199.6670     0.50570E-03 
  48231.9292     0.50488E-03 
  48264.1914     0.50406E-03 
  48296.4535     0.50322E-03 
  48328.7157     0.50238E-03 
  48360.9778     0.50154E-03 
  48393.2400     0.50068E-03 
  48425.5022     0.49982E-03 
  48457.7643     0.49895E-03 
  48490.0265     0.49807E-03 
  48522.2886     0.49719E-03 
  48554.5508     0.49630E-03 
  48586.8130     0.49540E-03 
  48619.0751     0.49450E-03 
  48651.3373     0.49359E-03 
  48683.5994     0.49267E-03 
  48715.8616     0.49175E-03 
  48748.1238     0.49082E-03 
  48780.3859     0.48988E-03 
  48812.6481     0.48894E-03 
  48844.9102     0.48799E-03 
  48877.1724     0.48703E-03 
  48909.4346     0.48607E-03 
  48941.6967     0.48510E-03 
  48973.9589     0.48412E-03 
  49006.2210     0.48314E-03 
  49038.4832     0.48215E-03 
  49070.7454     0.48115E-03 
  49103.0075     0.48015E-03 
  49135.2697     0.47914E-03 
  49167.5318     0.47813E-03 
  49199.7940     0.47711E-03 
  49232.0562     0.47608E-03 
  49264.3183     0.47505E-03 
  49296.5805     0.47401E-03 
  49328.8426     0.47297E-03 
  49361.1048     0.47192E-03 
  49393.3670     0.47087E-03 
  49425.6291     0.46980E-03 
  49457.8913     0.46874E-03 
  49490.1534     0.46766E-03 
  49522.4156     0.46659E-03 
  49554.6778     0.46550E-03 
  49586.9399     0.46441E-03 
  49619.2021     0.46332E-03 
  49651.4642     0.46222E-03 
  49683.7264     0.46111E-03 
  49715.9886     0.46000E-03 
  49748.2507     0.45888E-03 
  49780.5129     0.45776E-03 
  49812.7750     0.45663E-03 
  49845.0372     0.45550E-03 
  49877.2994     0.45436E-03 
  49909.5615     0.45322E-03 
  49941.8237     0.45207E-03 
  49974.0858     0.45092E-03 
  50006.3480     0.44976E-03 
  50038.6102     0.44860E-03 
  50070.8723     0.44743E-03 
  50103.1345     0.44626E-03 
  50135.3966     0.44508E-03 
  50167.6588     0.44390E-03 
  50199.9210     0.44271E-03 
  50232.1831     0.44152E-03 
  50264.4453     0.44032E-03 
  50296.7074     0.43912E-03 
  50328.9696     0.43792E-03 
  50361.2318     0.43671E-03 
  50393.4939     0.43549E-03 
  50425.7561     0.43427E-03 
  50458.0182     0.43305E-03 
  50490.2804     0.43182E-03 
  50522.5426     0.43059E-03 
  50554.8047     0.42936E-03 
  50587.0669     0.42812E-03 
  50619.3290     0.42687E-03 
  50651.5912     0.42563E-03 
  50683.8534     0.42437E-03 
  50716.1155     0.42312E-03 
  50748.3777     0.42186E-03 
  50780.6398     0.42060E-03 
  50812.9020     0.41933E-03 
  50845.1642     0.41806E-03 
  50877.4263     0.41678E-03 
  50909.6885     0.41550E-03 
  50941.9506     0.41422E-03 
  50974.2128     0.41294E-03 
  51006.4750     0.41165E-03 
  51038.7371     0.41036E-03 
  51070.9993     0.40906E-03 
  51103.2614     0.40776E-03 
  51135.5236     0.40646E-03 
  51167.7858     0.40515E-03 
  51200.0479     0.40384E-03 
  51232.3101     0.40253E-03 
  51264.5722     0.40121E-03 
  51296.8344     0.39990E-03 
  51329.0966     0.39857E-03 
  51361.3587     0.39725E-03 
  51393.6209     0.39592E-03 
  51425.8830     0.39459E-03 
  51458.1452     0.39326E-03 
  51490.4074     0.39192E-03 
  51522.6695     0.39058E-03 
  51554.9317     0.38924E-03 
  51587.1938     0.38790E-03 
  51619.4560     0.38655E-03 
  51651.7182     0.38520E-03 
  51683.9803     0.38385E-03 
  51716.2425     0.38249E-03 
  51748.5046     0.38114E-03 
  51780.7668     0.37978E-03 
  51813.0290     0.37841E-03 
  51845.2911     0.37705E-03 
  51877.5533     0.37568E-03 
  51909.8154     0.37431E-03 
  51942.0776     0.37294E-03 
  51974.3398     0.37157E-03 
  52006.6019     0.37020E-03 
  52038.8641     0.36882E-03 
  52071.1262     0.36744E-03 
  52103.3884     0.36606E-03 
  52135.6506     0.36467E-03 
  52167.9127     0.36329E-03 
  52200.1749     0.36190E-03 
  52232.4370     0.36051E-03 
  52264.6992     0.35912E-03 
  52296.9614     0.35773E-03 
  52329.2235     0.35634E-03 
  52361.4857     0.35494E-03 
  52393.7478     0.35355E-03 
  52426.0100     0.35215E-03 
  52458.2722     0.35075E-03 
  52490.5343     0.34935E-03 
  52522.7965     0.34795E-03 
  52555.0586     0.34654E-03 
  52587.3208     0.34514E-03 
  52619.5830     0.34373E-03 
  52651.8451     0.34232E-03 
  52684.1073     0.34092E-03 
  52716.3694     0.33951E-03 
  52748.6316     0.33810E-03 
  52780.8938     0.33668E-03 
  52813.1559     0.33527E-03 
  52845.4181     0.33386E-03 
  52877.6802     0.33244E-03 
  52909.9424     0.33103E-03 
  52942.2046     0.32961E-03 
  52974.4667     0.32819E-03 
  53006.7289     0.32678E-03 
  53038.9910     0.32536E-03 
  53071.2532     0.32394E-03 
  53103.5154     0.32252E-03 
  53135.7775     0.32110E-03 
  53168.0397     0.31968E-03 
  53200.3018     0.31826E-03 
  53232.5640     0.31684E-03 
  53264.8262     0.31542E-03 
  53297.0883     0.31399E-03 
  53329.3505     0.31257E-03 
  53361.6126     0.31115E-03 
  53393.8748     0.30973E-03 
  53426.1370     0.30830E-03 
  53458.3991     0.30688E-03 
  53490.6613     0.30546E-03 
  53522.9234     0.30403E-03 
  53555.1856     0.30261E-03 
  53587.4478     0.30119E-03 
  53619.7099     0.29976E-03 
  53651.9721     0.29834E-03 
  53684.2342     0.29692E-03 
  53716.4964     0.29549E-03 
  53748.7586     0.29407E-03 
  53781.0207     0.29265E-03 
  53813.2829     0.29123E-03 
  53845.5450     0.28981E-03 
  53877.8072     0.28839E-03 
  53910.0694     0.28696E-03 
  53942.3315     0.28554E-03 
  53974.5937     0.28413E-03 
  54006.8558     0.28271E-03 
  54039.1180     0.28129E-03 
  54071.3802     0.27987E-03 
  54103.6423     0.27845E-03 
  54135.9045     0.27704E-03 
  54168.1666     0.27562E-03 
  54200.4288     0.27421E-03 
  54232.6910     0.27279E-03 
  54264.9531     0.27138E-03 
  54297.2153     0.26997E-03 
  54329.4774     0.26856E-03 
  54361.7396     0.26715E-03 
  54394.0018     0.26574E-03 
  54426.2639     0.26433E-03 
  54458.5261     0.26292E-03 
  54490.7882     0.26152E-03 
  54523.0504     0.26011E-03 
  54555.3126     0.25871E-03 
  54587.5747     0.25731E-03 
  54619.8369     0.25590E-03 
  54652.0990     0.25451E-03 
  54684.3612     0.25311E-03 
  54716.6234     0.25171E-03 
  54748.8855     0.25032E-03 
  54781.1477     0.24892E-03 
  54813.4098     0.24753E-03 
  54845.6720     0.24614E-03 
  54877.9342     0.24475E-03 
  54910.1963     0.24336E-03 
  54942.4585     0.24198E-03 
  54974.7206     0.24059E-03 
  55006.9828     0.23921E-03 
  55039.2450     0.23783E-03 
  55071.5071     0.23645E-03 
  55103.7693     0.23507E-03 
  55136.0314     0.23370E-03 
  55168.2936     0.23233E-03 
  55200.5558     0.23096E-03 
  55232.8179     0.22959E-03 
  55265.0801     0.22822E-03 
  55297.3422     0.22685E-03 
  55329.6044     0.22549E-03 
  55361.8666     0.22413E-03 
  55394.1287     0.22277E-03 
  55426.3909     0.22142E-03 
  55458.6530     0.22006E-03 
  55490.9152     0.21871E-03 
  55523.1774     0.21736E-03 
  55555.4395     0.21602E-03 
  55587.7017     0.21467E-03 
  55619.9638     0.21333E-03 
  55652.2260     0.21199E-03 
  55684.4882     0.21065E-03 
  55716.7503     0.20932E-03 
  55749.0125     0.20799E-03 
  55781.2746     0.20666E-03 
  55813.5368     0.20533E-03 
  55845.7990     0.20401E-03 
  55878.0611     0.20269E-03 
  55910.3233     0.20137E-03 
  55942.5854     0.20006E-03 
  55974.8476     0.19874E-03 
  56007.1098     0.19743E-03 
  56039.3719     0.19613E-03 
  56071.6341     0.19482E-03 
  56103.8962     0.19352E-03 
  56136.1584     0.19223E-03 
  56168.4206     0.19093E-03 
  56200.6827     0.18964E-03 
  56232.9449     0.18835E-03 
  56265.2070     0.18707E-03 
  56297.4692     0.18579E-03 
  56329.7314     0.18451E-03 
  56361.9935     0.18323E-03 
  56394.2557     0.18196E-03 
  56426.5178     0.18069E-03 
  56458.7800     0.17943E-03 
  56491.0422     0.17817E-03 
  56523.3043     0.17691E-03 
  56555.5665     0.17565E-03 
  56587.8286     0.17440E-03 
  56620.0908     0.17315E-03 
  56652.3530     0.17191E-03 
  56684.6151     0.17067E-03 
  56716.8773     0.16944E-03 
  56749.1394     0.16820E-03 
  56781.4016     0.16697E-03 
  56813.6638     0.16575E-03 
  56845.9259     0.16453E-03 
  56878.1881     0.16331E-03 
  56910.4502     0.16210E-03 
  56942.7124     0.16089E-03 
  56974.9746     0.15969E-03 
  57007.2367     0.15848E-03 
  57039.4989     0.15729E-03 
  57071.7610     0.15610E-03 
  57104.0232     0.15491E-03 
  57136.2854     0.15372E-03 
  57168.5475     0.15254E-03 
  57200.8097     0.15137E-03 
  57233.0718     0.15020E-03 
  57265.3340     0.14903E-03 
  57297.5962     0.14787E-03 
  57329.8583     0.14671E-03 
  57362.1205     0.14556E-03 
  57394.3826     0.14441E-03 
  57426.6448     0.14327E-03 
  57458.9070     0.14213E-03 
  57491.1691     0.14099E-03 
  57523.4313     0.13986E-03 
  57555.6934     0.13874E-03 
  57587.9556     0.13762E-03 
  57620.2178     0.13650E-03 
  57652.4799     0.13539E-03 
  57684.7421     0.13429E-03 
  57717.0042     0.13319E-03 
  57749.2664     0.13209E-03 
  57781.5286     0.13100E-03 
  57813.7907     0.12992E-03 
  57846.0529     0.12884E-03 
  57878.3150     0.12776E-03 
  57910.5772     0.12669E-03 
  57942.8394     0.12563E-03 
  57975.1015     0.12457E-03 
  58007.3637     0.12352E-03 
  58039.6258     0.12247E-03 
  58071.8880     0.12143E-03 
  58104.1502     0.12039E-03 
  58136.4123     0.11936E-03 
  58168.6745     0.11834E-03 
  58200.9366     0.11732E-03 
  58233.1988     0.11630E-03 
  58265.4610     0.11530E-03 
  58297.7231     0.11429E-03 
  58329.9853     0.11330E-03 
  58362.2474     0.11231E-03 
  58394.5096     0.11132E-03 
  58426.7718     0.11035E-03 
  58459.0339     0.10937E-03 
  58491.2961     0.10841E-03 
  58523.5582     0.10745E-03 
  58555.8204     0.10650E-03 
  58588.0826     0.10555E-03 
  58620.3447     0.10461E-03 
  58652.6069     0.10368E-03 
  58684.8690     0.10275E-03 
  58717.1312     0.10183E-03 
  58749.3934     0.10092E-03 
  58781.6555     0.10001E-03 
  58813.9177     0.99109E-04 
  58846.1798     0.98216E-04 
  58878.4420     0.97329E-04 
  58910.7042     0.96450E-04 
  58942.9663     0.95577E-04 
  58975.2285     0.94712E-04 
  59007.4906     0.93853E-04 
  59039.7528     0.93002E-04 
  59072.0150     0.92158E-04 
  59104.2771     0.91322E-04 
  59136.5393     0.90492E-04 
  59168.8014     0.89671E-04 
  59201.0636     0.88856E-04 
  59233.3258     0.88050E-04 
  59265.5879     0.87251E-04 
  59297.8501     0.86460E-04 
  59330.1122     0.85676E-04 
  59362.3744     0.84900E-04 
  59394.6366     0.84133E-04 
  59426.8987     0.83373E-04 
  59459.1609     0.82621E-04 
  59491.4230     0.81878E-04 
  59523.6852     0.81142E-04 
  59555.9474     0.80415E-04 
  59588.2095     0.79696E-04 
  59620.4717     0.78986E-04 
  59652.7338     0.78284E-04 
  59684.9960     0.77591E-04 
  59717.2582     0.76906E-04 
  59749.5203     0.76230E-04 
  59781.7825     0.75563E-04 
  59814.0446     0.74905E-04 
  59846.3068     0.74256E-04 
  59878.5690     0.73615E-04 
  59910.8311     0.72984E-04 
  59943.0933     0.72362E-04 
  59975.3554     0.71750E-04 
  60007.6176     0.71146E-04 
  60039.8798     0.70553E-04 
  60072.1419     0.69968E-04 
  60104.4041     0.69393E-04 
  60136.6662     0.68828E-04 
  60168.9284     0.68273E-04 
  60201.1906     0.67728E-04 
  60233.4527     0.67192E-04 
  60265.7149     0.66667E-04 
  60297.9770     0.66152E-04 
  60330.2392     0.65647E-04 
  60362.5014     0.65152E-04 
  60394.7635     0.64668E-04 
  60427.0257     0.64194E-04 
  60459.2878     0.63731E-04 
  60491.5500     0.63278E-04 
  60523.8122     0.62836E-04 
  60556.0743     0.62405E-04 
  60588.3365     0.61986E-04 
  60620.5986     0.61577E-04 
  60652.8608     0.61179E-04 
  60685.1230     0.60793E-04 
  60717.3851     0.60418E-04 
  60749.6473     0.60054E-04 
  60781.9094     0.59703E-04 
  60814.1716     0.59362E-04 
  60846.4338     0.59034E-04 
  60878.6959     0.58717E-04 
  60910.9581     0.58413E-04 
  60943.2202     0.58121E-04 
  60975.4824     0.57840E-04 
  61007.7446     0.57573E-04 
  61040.0067     0.57317E-04 
  61072.2689     0.57074E-04 
  61104.5310     0.56844E-04 
  61136.7932     0.56627E-04 
  61169.0554     0.56422E-04 
  61201.3175     0.56231E-04 
  61233.5797     0.56053E-04 
  61265.8418     0.55888E-04 
  61298.1040     0.55736E-04 
  61330.3662     0.55598E-04 
  61362.6283     0.55473E-04 
  61394.8905     0.55362E-04 
  61427.1526     0.55265E-04 
  61459.4148     0.55182E-04 
  61491.6770     0.55113E-04 
  61523.9391     0.55059E-04 
  61556.2013     0.55018E-04 
  61588.4634     0.54993E-04 
  61620.7256     0.54981E-04 
  61652.9878     0.54985E-04 
  61685.2499     0.55003E-04 
  61717.5121     0.55037E-04 
  61749.7742     0.55086E-04 
  61782.0364     0.55149E-04 
  61814.2986     0.55229E-04 
  61846.5607     0.55324E-04 
  61878.8229     0.55434E-04 
  61911.0850     0.55561E-04 
  61943.3472     0.55703E-04 
  61975.6094     0.55862E-04 
  62007.8715     0.56037E-04 
  62040.1337     0.56228E-04 
  62072.3958     0.56436E-04 
  62104.6580     0.56660E-04 
  62136.9202     0.56901E-04 
  62169.1823     0.57160E-04 
  62201.4445     0.57435E-04 
  62233.7066     0.57728E-04 
  62265.9688     0.58038E-04 
  62298.2310     0.58366E-04 
  62330.4931     0.58712E-04 
  62362.7553     0.59076E-04 
  62395.0174     0.59457E-04 
  62427.2796     0.59857E-04 
  62459.5418     0.60276E-04 
  62491.8039     0.60713E-04 
  62524.0661     0.61168E-04 
  62556.3282     0.61643E-04 
  62588.5904     0.62136E-04 
  62620.8526     0.62649E-04 
  62653.1147     0.63181E-04 
  62685.3769     0.63733E-04 
  62717.6390     0.64305E-04 
  62749.9012     0.64896E-04 
  62782.1634     0.65508E-04 
  62814.4255     0.66140E-04 
  62846.6877     0.66792E-04 
  62878.9498     0.67465E-04 
  62911.2120     0.68158E-04 
  62943.4742     0.68873E-04 
  62975.7363     0.69608E-04 
  63007.9985     0.70365E-04 
  63040.2606     0.71144E-04 
  63072.5228     0.71944E-04 
  63104.7850     0.72766E-04 
  63137.0471     0.73610E-04 
  63169.3093     0.74477E-04 
  63201.5714     0.75365E-04 
  63233.8336     0.76277E-04 
  63266.0958     0.77211E-04 
  63298.3579     0.78168E-04 
  63330.6201     0.79149E-04 
  63362.8822     0.80153E-04 
  63395.1444     0.81180E-04 
  63427.4066     0.82232E-04 
  63459.6687     0.83307E-04 
  63491.9309     0.84406E-04 
  63524.1930     0.85530E-04 
  63556.4552     0.86679E-04 
  63588.7174     0.87852E-04 
  63620.9795     0.89050E-04 
  63653.2417     0.90274E-04 
  63685.5038     0.91522E-04 
  63717.7660     0.92797E-04 
  63750.0282     0.94097E-04 
  63782.2903     0.95424E-04 
  63814.5525     0.96776E-04 
  63846.8146     0.98155E-04 
  63879.0768     0.99561E-04 
  63911.3390     0.10099E-03 
  63943.6011     0.10245E-03 
  63975.8633     0.10394E-03 
  64008.1254     0.10546E-03 
  64040.3876     0.10700E-03 
  64072.6498     0.10857E-03 
  64104.9119     0.11017E-03 
  64137.1741     0.11179E-03 
  64169.4362     0.11345E-03 
  64201.6984     0.11514E-03 
  64233.9606     0.11685E-03 
  64266.2227     0.11859E-03 
  64298.4849     0.12037E-03 
  64330.7470     0.12217E-03 
  64363.0092     0.12400E-03 
  64395.2714     0.12586E-03 
  64427.5335     0.12776E-03 
  64459.7957     0.12968E-03 
  64492.0578     0.13164E-03 
  64524.3200     0.13362E-03 
  64556.5822     0.13564E-03 
  64588.8443     0.13769E-03 
  64621.1065     0.13977E-03 
  64653.3686     0.14189E-03 
  64685.6308     0.14403E-03 
  64717.8930     0.14621E-03 
  64750.1551     0.14842E-03 
  64782.4173     0.15067E-03 
  64814.6794     0.15295E-03 
  64846.9416     0.15526E-03 
  64879.2038     0.15760E-03 
  64911.4659     0.15998E-03 
  64943.7281     0.16240E-03 
  64975.9902     0.16485E-03 
  65008.2524     0.16733E-03 
  65040.5146     0.16985E-03 
  65072.7767     0.17240E-03 
  65105.0389     0.17499E-03 
  65137.3010     0.17762E-03 
  65169.5632     0.18028E-03 
  65201.8254     0.18298E-03 
  65234.0875     0.18572E-03 
  65266.3497     0.18849E-03 
  65298.6118     0.19130E-03 
  65330.8740     0.19415E-03 
  65363.1362     0.19703E-03 
  65395.3983     0.19995E-03 
  65427.6605     0.20292E-03 
  65459.9226     0.20591E-03 
  65492.1848     0.20895E-03 
  65524.4470     0.21203E-03 
  65556.7091     0.21515E-03 
  65588.9713     0.21830E-03 
  65621.2334     0.22150E-03 
  65653.4956     0.22474E-03 
  65685.7578     0.22801E-03 
  65718.0199     0.23133E-03 
  65750.2821     0.23469E-03 
  65782.5442     0.23809E-03 
  65814.8064     0.24153E-03 
  65847.0686     0.24501E-03 
  65879.3307     0.24854E-03 
  65911.5929     0.25210E-03 
  65943.8550     0.25571E-03 
  65976.1172     0.25937E-03 
  66008.3794     0.26306E-03 
  66040.6415     0.26680E-03 
  66072.9037     0.27058E-03 
  66105.1658     0.27441E-03 
  66137.4280     0.27828E-03 
  66169.6902     0.28220E-03 
  66201.9523     0.28616E-03 
  66234.2145     0.29016E-03 
  66266.4766     0.29421E-03 
  66298.7388     0.29831E-03 
  66331.0010     0.30245E-03 
  66363.2631     0.30664E-03 
  66395.5253     0.31087E-03 
  66427.7874     0.31515E-03 
  66460.0496     0.31948E-03 
  66492.3118     0.32385E-03 
  66524.5739     0.32828E-03 
  66556.8361     0.33275E-03 
  66589.0982     0.33727E-03 
  66621.3604     0.34183E-03 
  66653.6226     0.34645E-03 
  66685.8847     0.35111E-03 
  66718.1469     0.35583E-03 
  66750.4090     0.36059E-03 
  66782.6712     0.36540E-03 
  66814.9334     0.37026E-03 
  66847.1955     0.37518E-03 
  66879.4577     0.38014E-03 
  66911.7198     0.38516E-03 
  66943.9820     0.39022E-03 
  66976.2442     0.39534E-03 
  67008.5063     0.40051E-03 
  67040.7685     0.40573E-03 
  67073.0306     0.41100E-03 
  67105.2928     0.41633E-03 
  67137.5550     0.42171E-03 
  67169.8171     0.42714E-03 
  67202.0793     0.43262E-03 
  67234.3414     0.43816E-03 
  67266.6036     0.44375E-03 
  67298.8658     0.44940E-03 
  67331.1279     0.45510E-03 
  67363.3901     0.46086E-03 
  67395.6522     0.46667E-03 
  67427.9144     0.47253E-03 
  67460.1766     0.47845E-03 
  67492.4387     0.48443E-03 
  67524.7009     0.49046E-03 
  67556.9630     0.49655E-03 
  67589.2252     0.50270E-03 
  67621.4874     0.50890E-03 
  67653.7495     0.51516E-03 
  67686.0117     0.52148E-03 
  67718.2738     0.52785E-03 
  67750.5360     0.53429E-03 
  67782.7982     0.54078E-03 
  67815.0603     0.54733E-03 
  67847.3225     0.55393E-03 
  67879.5846     0.56060E-03 
  67911.8468     0.56733E-03 
  67944.1090     0.57411E-03 
  67976.3711     0.58096E-03 
  68008.6333     0.58786E-03 
  68040.8954     0.59483E-03 
  68073.1576     0.60186E-03 
  68105.4198     0.60894E-03 
  68137.6819     0.61609E-03 
  68169.9441     0.62330E-03 
  68202.2062     0.63057E-03 
  68234.4684     0.63790E-03 
  68266.7306     0.64530E-03 
  68298.9927     0.65275E-03 
  68331.2549     0.66027E-03 
  68363.5170     0.66785E-03 
  68395.7792     0.67550E-03 
  68428.0414     0.68320E-03 
  68460.3035     0.69097E-03 
  68492.5657     0.69881E-03 
  68524.8278     0.70671E-03 
  68557.0900     0.71467E-03 
  68589.3522     0.72269E-03 
  68621.6143     0.73079E-03 
  68653.8765     0.73894E-03 
  68686.1386     0.74716E-03 
  68718.4008     0.75545E-03 
  68750.6630     0.76380E-03 
  68782.9251     0.77222E-03 
  68815.1873     0.78070E-03 
  68847.4494     0.78925E-03 
  68879.7116     0.79786E-03 
  68911.9738     0.80654E-03 
  68944.2359     0.81529E-03 
  68976.4981     0.82411E-03 
  69008.7602     0.83299E-03 
  69041.0224     0.84194E-03 
  69073.2846     0.85095E-03 
  69105.5467     0.86004E-03 
  69137.8089     0.86919E-03 
  69170.0710     0.87841E-03 
  69202.3332     0.88770E-03 
  69234.5954     0.89705E-03 
  69266.8575     0.90648E-03 
  69299.1197     0.91597E-03 
  69331.3818     0.92554E-03 
  69363.6440     0.93517E-03 
  69395.9062     0.94487E-03 
  69428.1683     0.95464E-03 
  69460.4305     0.96448E-03 
  69492.6926     0.97439E-03 
  69524.9548     0.98437E-03 
  69557.2170     0.99442E-03 
  69589.4791     0.10045E-02 
  69621.7413     0.10147E-02 
  69654.0034     0.10250E-02 
  69686.2656     0.10353E-02 
  69718.5278     0.10457E-02 
  69750.7899     0.10562E-02 
  69783.0521     0.10667E-02 
  69815.3142     0.10774E-02 
  69847.5764     0.10880E-02 
  69879.8386     0.10988E-02 
  69912.1007     0.11096E-02 
  69944.3629     0.11205E-02 
  69976.6250     0.11315E-02 
  70008.8872     0.11426E-02 
  70041.1494     0.11537E-02 
  70073.4115     0.11649E-02 
  70105.6737     0.11761E-02 
  70137.9358     0.11875E-02 
  70170.1980     0.11989E-02 
  70202.4602     0.12104E-02 
  70234.7223     0.12219E-02 
  70266.9845     0.12335E-02 
  70299.2466     0.12452E-02 
  70331.5088     0.12570E-02 
  70363.7710     0.12688E-02 
  70396.0331     0.12808E-02 
  70428.2953     0.12928E-02 
  70460.5574     0.13048E-02 
  70492.8196     0.13170E-02 
  70525.0818     0.13292E-02 
  70557.3439     0.13414E-02 
  70589.6061     0.13538E-02 
  70621.8682     0.13662E-02 
  70654.1304     0.13787E-02 
  70686.3926     0.13913E-02 
  70718.6547     0.14040E-02 
  70750.9169     0.14167E-02 
  70783.1790     0.14295E-02 
  70815.4412     0.14424E-02 
  70847.7034     0.14553E-02 
  70879.9655     0.14683E-02 
  70912.2277     0.14814E-02 
  70944.4898     0.14946E-02 
  70976.7520     0.15078E-02 
  71009.0142     0.15211E-02 
  71041.2763     0.15345E-02 
  71073.5385     0.15480E-02 
  71105.8006     0.15615E-02 
  71138.0628     0.15751E-02 
  71170.3250     0.15888E-02 
  71202.5871     0.16026E-02 
  71234.8493     0.16164E-02 
  71267.1114     0.16303E-02 
  71299.3736     0.16443E-02 
  71331.6358     0.16583E-02 
  71363.8979     0.16724E-02 
  71396.1601     0.16866E-02 
  71428.4222     0.17009E-02 
  71460.6844     0.17153E-02 
  71492.9466     0.17297E-02 
  71525.2087     0.17442E-02 
  71557.4709     0.17587E-02 
  71589.7330     0.17734E-02 
  71621.9952     0.17881E-02 
  71654.2574     0.18028E-02 
  71686.5195     0.18177E-02 
  71718.7817     0.18326E-02 
  71751.0438     0.18476E-02 
  71783.3060     0.18627E-02 
  71815.5682     0.18778E-02 
  71847.8303     0.18930E-02 
  71880.0925     0.19083E-02 
  71912.3546     0.19237E-02 
  71944.6168     0.19391E-02 
  71976.8790     0.19546E-02 
  72009.1411     0.19702E-02 
  72041.4033     0.19858E-02 
  72073.6654     0.20015E-02 
  72105.9276     0.20173E-02 
  72138.1898     0.20332E-02 
  72170.4519     0.20491E-02 
  72202.7141     0.20651E-02 
  72234.9762     0.20812E-02 
  72267.2384     0.20973E-02 
  72299.5006     0.21135E-02 
  72331.7627     0.21298E-02 
  72364.0249     0.21461E-02 
  72396.2870     0.21626E-02 
  72428.5492     0.21790E-02 
  72460.8114     0.21956E-02 
  72493.0735     0.22122E-02 
  72525.3357     0.22289E-02 
  72557.5978     0.22457E-02 
  72589.8600     0.22625E-02 
