  32262.1600     0.72236E-05 
  32294.4222     0.72503E-05 
  32326.6843     0.72770E-05 
  32358.9465     0.73038E-05 
  32391.2086     0.73306E-05 
  32423.4708     0.73575E-05 
  32455.7330     0.73844E-05 
  32487.9951     0.74114E-05 
  32520.2573     0.74384E-05 
  32552.5194     0.74655E-05 
  32584.7816     0.74926E-05 
  32617.0438     0.75197E-05 
  32649.3059     0.75469E-05 
  32681.5681     0.75741E-05 
  32713.8302     0.76014E-05 
  32746.0924     0.76287E-05 
  32778.3546     0.76561E-05 
  32810.6167     0.76835E-05 
  32842.8789     0.77109E-05 
  32875.1410     0.77384E-05 
  32907.4032     0.77659E-05 
  32939.6654     0.77935E-05 
  32971.9275     0.78211E-05 
  33004.1897     0.78487E-05 
  33036.4518     0.78764E-05 
  33068.7140     0.79041E-05 
  33100.9762     0.79319E-05 
  33133.2383     0.79597E-05 
  33165.5005     0.79876E-05 
  33197.7626     0.80154E-05 
  33230.0248     0.80434E-05 
  33262.2870     0.80713E-05 
  33294.5491     0.80993E-05 
  33326.8113     0.81273E-05 
  33359.0734     0.81554E-05 
  33391.3356     0.81835E-05 
  33423.5978     0.82117E-05 
  33455.8599     0.82399E-05 
  33488.1221     0.82681E-05 
  33520.3842     0.82964E-05 
  33552.6464     0.83246E-05 
  33584.9086     0.83530E-05 
  33617.1707     0.83813E-05 
  33649.4329     0.84098E-05 
  33681.6950     0.84382E-05 
  33713.9572     0.84667E-05 
  33746.2194     0.84952E-05 
  33778.4815     0.85237E-05 
  33810.7437     0.85523E-05 
  33843.0058     0.85809E-05 
  33875.2680     0.86096E-05 
  33907.5302     0.86382E-05 
  33939.7923     0.86670E-05 
  33972.0545     0.86957E-05 
  34004.3166     0.87245E-05 
  34036.5788     0.87533E-05 
  34068.8410     0.87821E-05 
  34101.1031     0.88110E-05 
  34133.3653     0.88399E-05 
  34165.6274     0.88689E-05 
  34197.8896     0.88978E-05 
  34230.1518     0.89269E-05 
  34262.4139     0.89559E-05 
  34294.6761     0.89850E-05 
  34326.9382     0.90141E-05 
  34359.2004     0.90432E-05 
  34391.4626     0.90723E-05 
  34423.7247     0.91015E-05 
  34455.9869     0.91308E-05 
  34488.2490     0.91600E-05 
  34520.5112     0.91893E-05 
  34552.7734     0.92186E-05 
  34585.0355     0.92479E-05 
  34617.2977     0.92773E-05 
  34649.5598     0.93067E-05 
  34681.8220     0.93361E-05 
  34714.0842     0.93655E-05 
  34746.3463     0.93950E-05 
  34778.6085     0.94245E-05 
  34810.8706     0.94541E-05 
  34843.1328     0.94836E-05 
  34875.3950     0.95132E-05 
  34907.6571     0.95428E-05 
  34939.9193     0.95724E-05 
  34972.1814     0.96021E-05 
  35004.4436     0.96318E-05 
  35036.7058     0.96615E-05 
  35068.9679     0.96912E-05 
  35101.2301     0.97210E-05 
  35133.4922     0.97508E-05 
  35165.7544     0.97806E-05 
  35198.0166     0.98104E-05 
  35230.2787     0.98403E-05 
  35262.5409     0.98702E-05 
  35294.8030     0.99001E-05 
  35327.0652     0.99300E-05 
  35359.3274     0.99600E-05 
  35391.5895     0.99900E-05 
  35423.8517     0.10020E-04 
  35456.1138     0.10050E-04 
  35488.3760     0.10080E-04 
  35520.6382     0.10110E-04 
  35552.9003     0.10140E-04 
  35585.1625     0.10170E-04 
  35617.4246     0.10200E-04 
  35649.6868     0.10231E-04 
  35681.9490     0.10261E-04 
  35714.2111     0.10291E-04 
  35746.4733     0.10321E-04 
  35778.7354     0.10352E-04 
  35810.9976     0.10382E-04 
  35843.2598     0.10412E-04 
  35875.5219     0.10442E-04 
  35907.7841     0.10473E-04 
  35940.0462     0.10503E-04 
  35972.3084     0.10533E-04 
  36004.5706     0.10564E-04 
  36036.8327     0.10594E-04 
  36069.0949     0.10625E-04 
  36101.3570     0.10655E-04 
  36133.6192     0.10686E-04 
  36165.8814     0.10716E-04 
  36198.1435     0.10747E-04 
  36230.4057     0.10777E-04 
  36262.6678     0.10808E-04 
  36294.9300     0.10838E-04 
  36327.1922     0.10869E-04 
  36359.4543     0.10899E-04 
  36391.7165     0.10930E-04 
  36423.9786     0.10961E-04 
  36456.2408     0.10991E-04 
  36488.5030     0.11022E-04 
  36520.7651     0.11053E-04 
  36553.0273     0.11083E-04 
  36585.2894     0.11114E-04 
  36617.5516     0.11145E-04 
  36649.8138     0.11175E-04 
  36682.0759     0.11206E-04 
  36714.3381     0.11237E-04 
  36746.6002     0.11268E-04 
  36778.8624     0.11299E-04 
  36811.1246     0.11329E-04 
  36843.3867     0.11360E-04 
  36875.6489     0.11391E-04 
  36907.9110     0.11422E-04 
  36940.1732     0.11453E-04 
  36972.4354     0.11484E-04 
  37004.6975     0.11515E-04 
  37036.9597     0.11546E-04 
  37069.2218     0.11577E-04 
  37101.4840     0.11608E-04 
  37133.7462     0.11639E-04 
  37166.0083     0.11670E-04 
  37198.2705     0.11701E-04 
  37230.5326     0.11732E-04 
  37262.7948     0.11763E-04 
  37295.0570     0.11794E-04 
  37327.3191     0.11825E-04 
  37359.5813     0.11856E-04 
  37391.8434     0.11887E-04 
  37424.1056     0.11918E-04 
  37456.3678     0.11949E-04 
  37488.6299     0.11980E-04 
  37520.8921     0.12011E-04 
  37553.1542     0.12043E-04 
  37585.4164     0.12074E-04 
  37617.6786     0.12105E-04 
  37649.9407     0.12136E-04 
  37682.2029     0.12167E-04 
  37714.4650     0.12199E-04 
  37746.7272     0.12230E-04 
  37778.9894     0.12261E-04 
  37811.2515     0.12292E-04 
  37843.5137     0.12324E-04 
  37875.7758     0.12355E-04 
  37908.0380     0.12386E-04 
  37940.3002     0.12417E-04 
  37972.5623     0.12449E-04 
  38004.8245     0.12480E-04 
  38037.0866     0.12511E-04 
  38069.3488     0.12543E-04 
  38101.6110     0.12574E-04 
  38133.8731     0.12606E-04 
  38166.1353     0.12637E-04 
  38198.3974     0.12668E-04 
  38230.6596     0.12700E-04 
  38262.9218     0.12731E-04 
  38295.1839     0.12763E-04 
  38327.4461     0.12794E-04 
  38359.7082     0.12826E-04 
  38391.9704     0.12857E-04 
  38424.2326     0.12889E-04 
  38456.4947     0.12920E-04 
  38488.7569     0.12952E-04 
  38521.0190     0.12983E-04 
  38553.2812     0.13015E-04 
  38585.5434     0.13046E-04 
  38617.8055     0.13078E-04 
  38650.0677     0.13109E-04 
  38682.3298     0.13141E-04 
  38714.5920     0.13172E-04 
  38746.8542     0.13204E-04 
  38779.1163     0.13236E-04 
  38811.3785     0.13267E-04 
  38843.6406     0.13299E-04 
  38875.9028     0.13331E-04 
  38908.1650     0.13362E-04 
  38940.4271     0.13394E-04 
  38972.6893     0.13426E-04 
  39004.9514     0.13457E-04 
  39037.2136     0.13489E-04 
  39069.4758     0.13521E-04 
  39101.7379     0.13552E-04 
  39134.0001     0.13584E-04 
  39166.2622     0.13616E-04 
  39198.5244     0.13648E-04 
  39230.7866     0.13679E-04 
  39263.0487     0.13711E-04 
  39295.3109     0.13743E-04 
  39327.5730     0.13775E-04 
  39359.8352     0.13806E-04 
  39392.0974     0.13838E-04 
  39424.3595     0.13870E-04 
  39456.6217     0.13902E-04 
  39488.8838     0.13934E-04 
  39521.1460     0.13966E-04 
  39553.4082     0.13997E-04 
  39585.6703     0.14029E-04 
  39617.9325     0.14061E-04 
  39650.1946     0.14093E-04 
  39682.4568     0.14125E-04 
  39714.7190     0.14157E-04 
  39746.9811     0.14189E-04 
  39779.2433     0.14221E-04 
  39811.5054     0.14253E-04 
  39843.7676     0.14285E-04 
  39876.0298     0.14317E-04 
  39908.2919     0.14349E-04 
  39940.5541     0.14381E-04 
  39972.8162     0.14412E-04 
  40005.0784     0.14444E-04 
  40037.3406     0.14476E-04 
  40069.6027     0.14509E-04 
  40101.8649     0.14541E-04 
  40134.1270     0.14573E-04 
  40166.3892     0.14605E-04 
  40198.6514     0.14637E-04 
  40230.9135     0.14669E-04 
  40263.1757     0.14701E-04 
  40295.4378     0.14733E-04 
  40327.7000     0.14765E-04 
  40359.9622     0.14797E-04 
  40392.2243     0.14829E-04 
  40424.4865     0.14861E-04 
  40456.7486     0.14893E-04 
  40489.0108     0.14926E-04 
  40521.2730     0.14958E-04 
  40553.5351     0.14990E-04 
  40585.7973     0.15022E-04 
  40618.0594     0.15054E-04 
  40650.3216     0.15087E-04 
  40682.5838     0.15119E-04 
  40714.8459     0.15151E-04 
  40747.1081     0.15183E-04 
  40779.3702     0.15215E-04 
  40811.6324     0.15248E-04 
  40843.8946     0.15280E-04 
  40876.1567     0.15312E-04 
  40908.4189     0.15344E-04 
  40940.6810     0.15377E-04 
  40972.9432     0.15409E-04 
  41005.2054     0.15441E-04 
  41037.4675     0.15474E-04 
  41069.7297     0.15506E-04 
  41101.9918     0.15538E-04 
  41134.2540     0.15571E-04 
  41166.5162     0.15603E-04 
  41198.7783     0.15636E-04 
  41231.0405     0.15668E-04 
  41263.3026     0.15700E-04 
  41295.5648     0.15733E-04 
  41327.8270     0.15765E-04 
  41360.0891     0.15798E-04 
  41392.3513     0.15830E-04 
  41424.6134     0.15863E-04 
  41456.8756     0.15895E-04 
  41489.1378     0.15928E-04 
  41521.3999     0.15960E-04 
  41553.6621     0.15993E-04 
  41585.9242     0.16025E-04 
  41618.1864     0.16058E-04 
  41650.4486     0.16090E-04 
  41682.7107     0.16123E-04 
  41714.9729     0.16155E-04 
  41747.2350     0.16188E-04 
  41779.4972     0.16221E-04 
  41811.7594     0.16253E-04 
  41844.0215     0.16286E-04 
  41876.2837     0.16318E-04 
  41908.5458     0.16351E-04 
  41940.8080     0.16384E-04 
  41973.0702     0.16416E-04 
  42005.3323     0.16449E-04 
  42037.5945     0.16482E-04 
  42069.8566     0.16515E-04 
  42102.1188     0.16547E-04 
  42134.3810     0.16580E-04 
  42166.6431     0.16613E-04 
  42198.9053     0.16646E-04 
  42231.1674     0.16679E-04 
  42263.4296     0.16711E-04 
  42295.6918     0.16744E-04 
  42327.9539     0.16777E-04 
  42360.2161     0.16810E-04 
  42392.4782     0.16843E-04 
  42424.7404     0.16876E-04 
  42457.0026     0.16909E-04 
  42489.2647     0.16942E-04 
  42521.5269     0.16975E-04 
  42553.7890     0.17008E-04 
  42586.0512     0.17041E-04 
  42618.3134     0.17074E-04 
  42650.5755     0.17107E-04 
  42682.8377     0.17140E-04 
  42715.0998     0.17173E-04 
  42747.3620     0.17206E-04 
  42779.6242     0.17239E-04 
  42811.8863     0.17273E-04 
  42844.1485     0.17306E-04 
  42876.4106     0.17339E-04 
  42908.6728     0.17372E-04 
  42940.9350     0.17405E-04 
  42973.1971     0.17439E-04 
  43005.4593     0.17472E-04 
  43037.7214     0.17505E-04 
  43069.9836     0.17539E-04 
  43102.2458     0.17572E-04 
  43134.5079     0.17606E-04 
  43166.7701     0.17639E-04 
  43199.0322     0.17673E-04 
  43231.2944     0.17706E-04 
  43263.5566     0.17740E-04 
  43295.8187     0.17773E-04 
  43328.0809     0.17807E-04 
  43360.3430     0.17840E-04 
  43392.6052     0.17874E-04 
  43424.8674     0.17908E-04 
  43457.1295     0.17941E-04 
  43489.3917     0.17975E-04 
  43521.6538     0.18009E-04 
  43553.9160     0.18043E-04 
  43586.1782     0.18076E-04 
  43618.4403     0.18110E-04 
  43650.7025     0.18144E-04 
  43682.9646     0.18178E-04 
  43715.2268     0.18212E-04 
  43747.4890     0.18246E-04 
  43779.7511     0.18280E-04 
  43812.0133     0.18314E-04 
  43844.2754     0.18348E-04 
  43876.5376     0.18383E-04 
  43908.7998     0.18417E-04 
  43941.0619     0.18451E-04 
  43973.3241     0.18485E-04 
  44005.5862     0.18520E-04 
  44037.8484     0.18554E-04 
  44070.1106     0.18588E-04 
  44102.3727     0.18623E-04 
  44134.6349     0.18657E-04 
  44166.8970     0.18692E-04 
  44199.1592     0.18726E-04 
  44231.4214     0.18761E-04 
  44263.6835     0.18796E-04 
  44295.9457     0.18831E-04 
  44328.2078     0.18865E-04 
  44360.4700     0.18900E-04 
  44392.7322     0.18935E-04 
  44424.9943     0.18970E-04 
  44457.2565     0.19005E-04 
  44489.5186     0.19040E-04 
  44521.7808     0.19075E-04 
  44554.0430     0.19110E-04 
  44586.3051     0.19146E-04 
  44618.5673     0.19181E-04 
  44650.8294     0.19216E-04 
  44683.0916     0.19252E-04 
  44715.3538     0.19287E-04 
  44747.6159     0.19323E-04 
  44779.8781     0.19358E-04 
  44812.1402     0.19394E-04 
  44844.4024     0.19429E-04 
  44876.6646     0.19465E-04 
  44908.9267     0.19501E-04 
  44941.1889     0.19537E-04 
  44973.4510     0.19573E-04 
  45005.7132     0.19609E-04 
  45037.9754     0.19645E-04 
  45070.2375     0.19681E-04 
  45102.4997     0.19718E-04 
  45134.7618     0.19754E-04 
  45167.0240     0.19790E-04 
  45199.2862     0.19827E-04 
  45231.5483     0.19863E-04 
  45263.8105     0.19900E-04 
  45296.0726     0.19937E-04 
  45328.3348     0.19974E-04 
  45360.5970     0.20011E-04 
  45392.8591     0.20048E-04 
  45425.1213     0.20085E-04 
  45457.3834     0.20122E-04 
  45489.6456     0.20159E-04 
  45521.9078     0.20196E-04 
  45554.1699     0.20234E-04 
  45586.4321     0.20271E-04 
  45618.6942     0.20309E-04 
  45650.9564     0.20347E-04 
  45683.2186     0.20384E-04 
  45715.4807     0.20422E-04 
  45747.7429     0.20460E-04 
  45780.0050     0.20498E-04 
  45812.2672     0.20537E-04 
  45844.5294     0.20575E-04 
  45876.7915     0.20613E-04 
  45909.0537     0.20652E-04 
  45941.3158     0.20690E-04 
  45973.5780     0.20729E-04 
  46005.8402     0.20768E-04 
  46038.1023     0.20807E-04 
  46070.3645     0.20846E-04 
  46102.6266     0.20885E-04 
  46134.8888     0.20925E-04 
  46167.1510     0.20964E-04 
  46199.4131     0.21004E-04 
  46231.6753     0.21043E-04 
  46263.9374     0.21083E-04 
  46296.1996     0.21123E-04 
  46328.4618     0.21163E-04 
  46360.7239     0.21203E-04 
  46392.9861     0.21243E-04 
  46425.2482     0.21284E-04 
  46457.5104     0.21324E-04 
  46489.7726     0.21365E-04 
  46522.0347     0.21406E-04 
  46554.2969     0.21447E-04 
  46586.5590     0.21488E-04 
  46618.8212     0.21529E-04 
  46651.0834     0.21571E-04 
  46683.3455     0.21612E-04 
  46715.6077     0.21654E-04 
  46747.8698     0.21696E-04 
  46780.1320     0.21738E-04 
  46812.3942     0.21780E-04 
  46844.6563     0.21822E-04 
  46876.9185     0.21865E-04 
  46909.1806     0.21907E-04 
  46941.4428     0.21950E-04 
  46973.7050     0.21993E-04 
  47005.9671     0.22036E-04 
  47038.2293     0.22079E-04 
  47070.4914     0.22123E-04 
  47102.7536     0.22166E-04 
  47135.0158     0.22210E-04 
  47167.2779     0.22254E-04 
  47199.5401     0.22298E-04 
  47231.8022     0.22343E-04 
  47264.0644     0.22387E-04 
  47296.3266     0.22432E-04 
  47328.5887     0.22477E-04 
  47360.8509     0.22522E-04 
  47393.1130     0.22567E-04 
  47425.3752     0.22612E-04 
  47457.6374     0.22658E-04 
  47489.8995     0.22704E-04 
  47522.1617     0.22750E-04 
  47554.4238     0.22796E-04 
  47586.6860     0.22842E-04 
  47618.9482     0.22889E-04 
  47651.2103     0.22935E-04 
  47683.4725     0.22982E-04 
  47715.7346     0.23030E-04 
  47747.9968     0.23077E-04 
  47780.2590     0.23125E-04 
  47812.5211     0.23173E-04 
  47844.7833     0.23221E-04 
  47877.0454     0.23269E-04 
  47909.3076     0.23317E-04 
  47941.5698     0.23366E-04 
  47973.8319     0.23415E-04 
  48006.0941     0.23464E-04 
  48038.3562     0.23514E-04 
  48070.6184     0.23563E-04 
  48102.8806     0.23613E-04 
  48135.1427     0.23663E-04 
  48167.4049     0.23714E-04 
  48199.6670     0.23764E-04 
  48231.9292     0.23815E-04 
  48264.1914     0.23866E-04 
  48296.4535     0.23917E-04 
  48328.7157     0.23969E-04 
  48360.9778     0.24021E-04 
  48393.2400     0.24073E-04 
  48425.5022     0.24125E-04 
  48457.7643     0.24178E-04 
  48490.0265     0.24231E-04 
  48522.2886     0.24284E-04 
  48554.5508     0.24337E-04 
  48586.8130     0.24391E-04 
  48619.0751     0.24445E-04 
  48651.3373     0.24499E-04 
  48683.5994     0.24553E-04 
  48715.8616     0.24608E-04 
  48748.1238     0.24663E-04 
  48780.3859     0.24718E-04 
  48812.6481     0.24774E-04 
  48844.9102     0.24830E-04 
  48877.1724     0.24886E-04 
  48909.4346     0.24942E-04 
  48941.6967     0.24999E-04 
  48973.9589     0.25056E-04 
  49006.2210     0.25113E-04 
  49038.4832     0.25171E-04 
  49070.7454     0.25229E-04 
  49103.0075     0.25287E-04 
  49135.2697     0.25346E-04 
  49167.5318     0.25404E-04 
  49199.7940     0.25464E-04 
  49232.0562     0.25523E-04 
  49264.3183     0.25583E-04 
  49296.5805     0.25643E-04 
  49328.8426     0.25703E-04 
  49361.1048     0.25764E-04 
  49393.3670     0.25825E-04 
  49425.6291     0.25886E-04 
  49457.8913     0.25948E-04 
  49490.1534     0.26010E-04 
  49522.4156     0.26073E-04 
  49554.6778     0.26135E-04 
  49586.9399     0.26198E-04 
  49619.2021     0.26262E-04 
  49651.4642     0.26325E-04 
  49683.7264     0.26389E-04 
  49715.9886     0.26454E-04 
  49748.2507     0.26519E-04 
  49780.5129     0.26584E-04 
  49812.7750     0.26649E-04 
  49845.0372     0.26715E-04 
  49877.2994     0.26781E-04 
  49909.5615     0.26848E-04 
  49941.8237     0.26915E-04 
  49974.0858     0.26982E-04 
  50006.3480     0.27049E-04 
  50038.6102     0.27117E-04 
  50070.8723     0.27186E-04 
  50103.1345     0.27255E-04 
  50135.3966     0.27324E-04 
  50167.6588     0.27393E-04 
  50199.9210     0.27463E-04 
  50232.1831     0.27533E-04 
  50264.4453     0.27604E-04 
  50296.7074     0.27675E-04 
  50328.9696     0.27746E-04 
  50361.2318     0.27818E-04 
  50393.4939     0.27890E-04 
  50425.7561     0.27963E-04 
  50458.0182     0.28036E-04 
  50490.2804     0.28109E-04 
  50522.5426     0.28183E-04 
  50554.8047     0.28257E-04 
  50587.0669     0.28332E-04 
  50619.3290     0.28407E-04 
  50651.5912     0.28482E-04 
  50683.8534     0.28558E-04 
  50716.1155     0.28634E-04 
  50748.3777     0.28710E-04 
  50780.6398     0.28787E-04 
  50812.9020     0.28865E-04 
  50845.1642     0.28943E-04 
  50877.4263     0.29021E-04 
  50909.6885     0.29100E-04 
  50941.9506     0.29179E-04 
  50974.2128     0.29258E-04 
  51006.4750     0.29338E-04 
  51038.7371     0.29419E-04 
  51070.9993     0.29500E-04 
  51103.2614     0.29581E-04 
  51135.5236     0.29663E-04 
  51167.7858     0.29745E-04 
  51200.0479     0.29827E-04 
  51232.3101     0.29910E-04 
  51264.5722     0.29994E-04 
  51296.8344     0.30078E-04 
  51329.0966     0.30162E-04 
  51361.3587     0.30247E-04 
  51393.6209     0.30332E-04 
  51425.8830     0.30418E-04 
  51458.1452     0.30504E-04 
  51490.4074     0.30591E-04 
  51522.6695     0.30678E-04 
  51554.9317     0.30765E-04 
  51587.1938     0.30853E-04 
  51619.4560     0.30942E-04 
  51651.7182     0.31031E-04 
  51683.9803     0.31120E-04 
  51716.2425     0.31210E-04 
  51748.5046     0.31300E-04 
  51780.7668     0.31391E-04 
  51813.0290     0.31482E-04 
  51845.2911     0.31574E-04 
  51877.5533     0.31666E-04 
  51909.8154     0.31759E-04 
  51942.0776     0.31852E-04 
  51974.3398     0.31946E-04 
  52006.6019     0.32040E-04 
  52038.8641     0.32134E-04 
  52071.1262     0.32229E-04 
  52103.3884     0.32325E-04 
  52135.6506     0.32421E-04 
  52167.9127     0.32518E-04 
  52200.1749     0.32615E-04 
  52232.4370     0.32712E-04 
  52264.6992     0.32810E-04 
  52296.9614     0.32908E-04 
  52329.2235     0.33007E-04 
  52361.4857     0.33107E-04 
  52393.7478     0.33207E-04 
  52426.0100     0.33307E-04 
  52458.2722     0.33408E-04 
  52490.5343     0.33510E-04 
  52522.7965     0.33612E-04 
  52555.0586     0.33714E-04 
  52587.3208     0.33817E-04 
  52619.5830     0.33920E-04 
  52651.8451     0.34024E-04 
  52684.1073     0.34129E-04 
  52716.3694     0.34234E-04 
  52748.6316     0.34339E-04 
  52780.8938     0.34445E-04 
  52813.1559     0.34552E-04 
  52845.4181     0.34659E-04 
  52877.6802     0.34766E-04 
  52909.9424     0.34874E-04 
  52942.2046     0.34983E-04 
  52974.4667     0.35092E-04 
  53006.7289     0.35201E-04 
  53038.9910     0.35311E-04 
  53071.2532     0.35422E-04 
  53103.5154     0.35533E-04 
  53135.7775     0.35645E-04 
  53168.0397     0.35757E-04 
  53200.3018     0.35869E-04 
  53232.5640     0.35983E-04 
  53264.8262     0.36096E-04 
  53297.0883     0.36211E-04 
  53329.3505     0.36325E-04 
  53361.6126     0.36440E-04 
  53393.8748     0.36556E-04 
  53426.1370     0.36673E-04 
  53458.3991     0.36789E-04 
  53490.6613     0.36907E-04 
  53522.9234     0.37025E-04 
  53555.1856     0.37143E-04 
  53587.4478     0.37262E-04 
  53619.7099     0.37381E-04 
  53651.9721     0.37501E-04 
  53684.2342     0.37622E-04 
  53716.4964     0.37743E-04 
  53748.7586     0.37865E-04 
  53781.0207     0.37987E-04 
  53813.2829     0.38109E-04 
  53845.5450     0.38232E-04 
  53877.8072     0.38356E-04 
  53910.0694     0.38480E-04 
  53942.3315     0.38605E-04 
  53974.5937     0.38730E-04 
  54006.8558     0.38856E-04 
  54039.1180     0.38983E-04 
  54071.3802     0.39110E-04 
  54103.6423     0.39237E-04 
  54135.9045     0.39365E-04 
  54168.1666     0.39493E-04 
  54200.4288     0.39622E-04 
  54232.6910     0.39752E-04 
  54264.9531     0.39882E-04 
  54297.2153     0.40013E-04 
  54329.4774     0.40144E-04 
  54361.7396     0.40276E-04 
  54394.0018     0.40408E-04 
  54426.2639     0.40541E-04 
  54458.5261     0.40674E-04 
  54490.7882     0.40808E-04 
  54523.0504     0.40942E-04 
  54555.3126     0.41077E-04 
  54587.5747     0.41213E-04 
  54619.8369     0.41349E-04 
  54652.0990     0.41486E-04 
  54684.3612     0.41623E-04 
  54716.6234     0.41760E-04 
  54748.8855     0.41899E-04 
  54781.1477     0.42037E-04 
  54813.4098     0.42177E-04 
  54845.6720     0.42316E-04 
  54877.9342     0.42457E-04 
  54910.1963     0.42598E-04 
  54942.4585     0.42739E-04 
  54974.7206     0.42881E-04 
  55006.9828     0.43024E-04 
  55039.2450     0.43167E-04 
  55071.5071     0.43311E-04 
  55103.7693     0.43455E-04 
  55136.0314     0.43599E-04 
  55168.2936     0.43745E-04 
  55200.5558     0.43891E-04 
  55232.8179     0.44037E-04 
  55265.0801     0.44184E-04 
  55297.3422     0.44331E-04 
  55329.6044     0.44479E-04 
  55361.8666     0.44628E-04 
  55394.1287     0.44777E-04 
  55426.3909     0.44926E-04 
  55458.6530     0.45077E-04 
  55490.9152     0.45227E-04 
  55523.1774     0.45379E-04 
  55555.4395     0.45530E-04 
  55587.7017     0.45683E-04 
  55619.9638     0.45836E-04 
  55652.2260     0.45989E-04 
  55684.4882     0.46143E-04 
  55716.7503     0.46298E-04 
  55749.0125     0.46453E-04 
  55781.2746     0.46608E-04 
  55813.5368     0.46765E-04 
  55845.7990     0.46921E-04 
  55878.0611     0.47079E-04 
  55910.3233     0.47237E-04 
  55942.5854     0.47395E-04 
  55974.8476     0.47554E-04 
  56007.1098     0.47713E-04 
  56039.3719     0.47873E-04 
  56071.6341     0.48034E-04 
  56103.8962     0.48195E-04 
  56136.1584     0.48357E-04 
  56168.4206     0.48519E-04 
  56200.6827     0.48682E-04 
  56232.9449     0.48845E-04 
  56265.2070     0.49009E-04 
  56297.4692     0.49173E-04 
  56329.7314     0.49338E-04 
  56361.9935     0.49504E-04 
  56394.2557     0.49670E-04 
  56426.5178     0.49837E-04 
  56458.7800     0.50004E-04 
  56491.0422     0.50172E-04 
  56523.3043     0.50340E-04 
  56555.5665     0.50509E-04 
  56587.8286     0.50678E-04 
  56620.0908     0.50848E-04 
  56652.3530     0.51019E-04 
  56684.6151     0.51190E-04 
  56716.8773     0.51361E-04 
  56749.1394     0.51533E-04 
  56781.4016     0.51706E-04 
  56813.6638     0.51879E-04 
  56845.9259     0.52053E-04 
  56878.1881     0.52228E-04 
  56910.4502     0.52403E-04 
  56942.7124     0.52578E-04 
  56974.9746     0.52754E-04 
  57007.2367     0.52931E-04 
  57039.4989     0.53108E-04 
  57071.7610     0.53286E-04 
  57104.0232     0.53464E-04 
  57136.2854     0.53643E-04 
  57168.5475     0.53822E-04 
  57200.8097     0.54002E-04 
  57233.0718     0.54183E-04 
  57265.3340     0.54364E-04 
  57297.5962     0.54546E-04 
  57329.8583     0.54728E-04 
  57362.1205     0.54911E-04 
  57394.3826     0.55094E-04 
  57426.6448     0.55278E-04 
  57458.9070     0.55462E-04 
  57491.1691     0.55648E-04 
  57523.4313     0.55833E-04 
  57555.6934     0.56019E-04 
  57587.9556     0.56206E-04 
  57620.2178     0.56393E-04 
  57652.4799     0.56581E-04 
  57684.7421     0.56770E-04 
  57717.0042     0.56959E-04 
  57749.2664     0.57148E-04 
  57781.5286     0.57338E-04 
  57813.7907     0.57529E-04 
  57846.0529     0.57721E-04 
  57878.3150     0.57912E-04 
  57910.5772     0.58105E-04 
  57942.8394     0.58298E-04 
  57975.1015     0.58491E-04 
  58007.3637     0.58686E-04 
  58039.6258     0.58880E-04 
  58071.8880     0.59076E-04 
  58104.1502     0.59272E-04 
  58136.4123     0.59468E-04 
  58168.6745     0.59665E-04 
  58200.9366     0.59863E-04 
  58233.1988     0.60061E-04 
  58265.4610     0.60260E-04 
  58297.7231     0.60459E-04 
  58329.9853     0.60659E-04 
  58362.2474     0.60860E-04 
  58394.5096     0.61061E-04 
  58426.7718     0.61262E-04 
  58459.0339     0.61465E-04 
  58491.2961     0.61667E-04 
  58523.5582     0.61871E-04 
  58555.8204     0.62075E-04 
  58588.0826     0.62280E-04 
  58620.3447     0.62485E-04 
  58652.6069     0.62691E-04 
  58684.8690     0.62897E-04 
  58717.1312     0.63104E-04 
  58749.3934     0.63311E-04 
  58781.6555     0.63520E-04 
  58813.9177     0.63728E-04 
  58846.1798     0.63938E-04 
  58878.4420     0.64148E-04 
  58910.7042     0.64358E-04 
  58942.9663     0.64569E-04 
  58975.2285     0.64781E-04 
  59007.4906     0.64993E-04 
  59039.7528     0.65206E-04 
  59072.0150     0.65420E-04 
  59104.2771     0.65634E-04 
  59136.5393     0.65849E-04 
  59168.8014     0.66064E-04 
  59201.0636     0.66280E-04 
  59233.3258     0.66496E-04 
  59265.5879     0.66713E-04 
  59297.8501     0.66931E-04 
  59330.1122     0.67149E-04 
  59362.3744     0.67368E-04 
  59394.6366     0.67588E-04 
  59426.8987     0.67808E-04 
  59459.1609     0.68029E-04 
  59491.4230     0.68250E-04 
  59523.6852     0.68472E-04 
  59555.9474     0.68695E-04 
  59588.2095     0.68918E-04 
  59620.4717     0.69142E-04 
  59652.7338     0.69366E-04 
  59684.9960     0.69591E-04 
  59717.2582     0.69817E-04 
  59749.5203     0.70043E-04 
  59781.7825     0.70270E-04 
  59814.0446     0.70497E-04 
  59846.3068     0.70725E-04 
  59878.5690     0.70954E-04 
  59910.8311     0.71183E-04 
  59943.0933     0.71413E-04 
  59975.3554     0.71644E-04 
  60007.6176     0.71875E-04 
  60039.8798     0.72106E-04 
  60072.1419     0.72339E-04 
  60104.4041     0.72572E-04 
  60136.6662     0.72805E-04 
  60168.9284     0.73040E-04 
  60201.1906     0.73275E-04 
  60233.4527     0.73510E-04 
  60265.7149     0.73746E-04 
  60297.9770     0.73983E-04 
  60330.2392     0.74220E-04 
  60362.5014     0.74458E-04 
  60394.7635     0.74697E-04 
  60427.0257     0.74936E-04 
  60459.2878     0.75176E-04 
  60491.5500     0.75416E-04 
  60523.8122     0.75657E-04 
  60556.0743     0.75899E-04 
  60588.3365     0.76141E-04 
  60620.5986     0.76384E-04 
  60652.8608     0.76627E-04 
  60685.1230     0.76871E-04 
  60717.3851     0.77116E-04 
  60749.6473     0.77362E-04 
  60781.9094     0.77608E-04 
  60814.1716     0.77854E-04 
  60846.4338     0.78102E-04 
  60878.6959     0.78349E-04 
  60910.9581     0.78598E-04 
  60943.2202     0.78847E-04 
  60975.4824     0.79097E-04 
  61007.7446     0.79347E-04 
  61040.0067     0.79598E-04 
  61072.2689     0.79850E-04 
  61104.5310     0.80102E-04 
  61136.7932     0.80355E-04 
  61169.0554     0.80608E-04 
  61201.3175     0.80862E-04 
  61233.5797     0.81117E-04 
  61265.8418     0.81372E-04 
  61298.1040     0.81628E-04 
  61330.3662     0.81885E-04 
  61362.6283     0.82142E-04 
  61394.8905     0.82399E-04 
  61427.1526     0.82658E-04 
  61459.4148     0.82917E-04 
  61491.6770     0.83176E-04 
  61523.9391     0.83437E-04 
  61556.2013     0.83697E-04 
  61588.4634     0.83959E-04 
  61620.7256     0.84221E-04 
  61652.9878     0.84484E-04 
  61685.2499     0.84747E-04 
  61717.5121     0.85011E-04 
  61749.7742     0.85275E-04 
  61782.0364     0.85540E-04 
  61814.2986     0.85806E-04 
  61846.5607     0.86072E-04 
  61878.8229     0.86339E-04 
  61911.0850     0.86606E-04 
  61943.3472     0.86875E-04 
  61975.6094     0.87143E-04 
  62007.8715     0.87412E-04 
  62040.1337     0.87682E-04 
  62072.3958     0.87953E-04 
  62104.6580     0.88224E-04 
  62136.9202     0.88495E-04 
  62169.1823     0.88768E-04 
  62201.4445     0.89040E-04 
  62233.7066     0.89314E-04 
  62265.9688     0.89588E-04 
  62298.2310     0.89862E-04 
  62330.4931     0.90137E-04 
  62362.7553     0.90413E-04 
  62395.0174     0.90689E-04 
  62427.2796     0.90966E-04 
  62459.5418     0.91244E-04 
  62491.8039     0.91522E-04 
  62524.0661     0.91800E-04 
  62556.3282     0.92079E-04 
  62588.5904     0.92359E-04 
  62620.8526     0.92639E-04 
  62653.1147     0.92920E-04 
  62685.3769     0.93201E-04 
  62717.6390     0.93483E-04 
  62749.9012     0.93766E-04 
  62782.1634     0.94049E-04 
  62814.4255     0.94332E-04 
  62846.6877     0.94617E-04 
  62878.9498     0.94901E-04 
  62911.2120     0.95186E-04 
  62943.4742     0.95472E-04 
  62975.7363     0.95758E-04 
  63007.9985     0.96045E-04 
  63040.2606     0.96333E-04 
  63072.5228     0.96621E-04 
  63104.7850     0.96909E-04 
  63137.0471     0.97198E-04 
  63169.3093     0.97487E-04 
  63201.5714     0.97777E-04 
  63233.8336     0.98068E-04 
  63266.0958     0.98359E-04 
  63298.3579     0.98650E-04 
  63330.6201     0.98942E-04 
  63362.8822     0.99235E-04 
  63395.1444     0.99528E-04 
  63427.4066     0.99821E-04 
  63459.6687     0.10012E-03 
  63491.9309     0.10041E-03 
  63524.1930     0.10070E-03 
  63556.4552     0.10100E-03 
  63588.7174     0.10130E-03 
  63620.9795     0.10159E-03 
  63653.2417     0.10189E-03 
  63685.5038     0.10219E-03 
  63717.7660     0.10248E-03 
  63750.0282     0.10278E-03 
  63782.2903     0.10308E-03 
  63814.5525     0.10338E-03 
  63846.8146     0.10368E-03 
  63879.0768     0.10398E-03 
  63911.3390     0.10428E-03 
  63943.6011     0.10458E-03 
  63975.8633     0.10488E-03 
  64008.1254     0.10519E-03 
  64040.3876     0.10549E-03 
  64072.6498     0.10579E-03 
  64104.9119     0.10609E-03 
  64137.1741     0.10640E-03 
  64169.4362     0.10670E-03 
  64201.6984     0.10701E-03 
  64233.9606     0.10731E-03 
  64266.2227     0.10762E-03 
  64298.4849     0.10792E-03 
  64330.7470     0.10823E-03 
  64363.0092     0.10853E-03 
  64395.2714     0.10884E-03 
  64427.5335     0.10915E-03 
  64459.7957     0.10946E-03 
  64492.0578     0.10976E-03 
  64524.3200     0.11007E-03 
  64556.5822     0.11038E-03 
  64588.8443     0.11069E-03 
  64621.1065     0.11100E-03 
  64653.3686     0.11131E-03 
  64685.6308     0.11162E-03 
  64717.8930     0.11193E-03 
  64750.1551     0.11224E-03 
  64782.4173     0.11255E-03 
  64814.6794     0.11286E-03 
  64846.9416     0.11318E-03 
  64879.2038     0.11349E-03 
  64911.4659     0.11380E-03 
  64943.7281     0.11411E-03 
  64975.9902     0.11443E-03 
  65008.2524     0.11474E-03 
  65040.5146     0.11505E-03 
  65072.7767     0.11537E-03 
  65105.0389     0.11568E-03 
  65137.3010     0.11600E-03 
  65169.5632     0.11631E-03 
  65201.8254     0.11663E-03 
  65234.0875     0.11694E-03 
  65266.3497     0.11726E-03 
  65298.6118     0.11757E-03 
  65330.8740     0.11789E-03 
  65363.1362     0.11821E-03 
  65395.3983     0.11852E-03 
  65427.6605     0.11884E-03 
  65459.9226     0.11916E-03 
  65492.1848     0.11948E-03 
  65524.4470     0.11980E-03 
  65556.7091     0.12011E-03 
  65588.9713     0.12043E-03 
  65621.2334     0.12075E-03 
  65653.4956     0.12107E-03 
  65685.7578     0.12139E-03 
  65718.0199     0.12171E-03 
  65750.2821     0.12203E-03 
  65782.5442     0.12235E-03 
  65814.8064     0.12267E-03 
  65847.0686     0.12299E-03 
  65879.3307     0.12331E-03 
  65911.5929     0.12363E-03 
  65943.8550     0.12395E-03 
  65976.1172     0.12427E-03 
  66008.3794     0.12459E-03 
  66040.6415     0.12491E-03 
  66072.9037     0.12524E-03 
  66105.1658     0.12556E-03 
  66137.4280     0.12588E-03 
  66169.6902     0.12620E-03 
  66201.9523     0.12652E-03 
  66234.2145     0.12685E-03 
  66266.4766     0.12717E-03 
  66298.7388     0.12749E-03 
  66331.0010     0.12781E-03 
  66363.2631     0.12814E-03 
  66395.5253     0.12846E-03 
  66427.7874     0.12878E-03 
  66460.0496     0.12911E-03 
  66492.3118     0.12943E-03 
  66524.5739     0.12975E-03 
  66556.8361     0.13008E-03 
  66589.0982     0.13040E-03 
  66621.3604     0.13073E-03 
  66653.6226     0.13105E-03 
  66685.8847     0.13137E-03 
  66718.1469     0.13170E-03 
  66750.4090     0.13202E-03 
  66782.6712     0.13235E-03 
  66814.9334     0.13267E-03 
  66847.1955     0.13300E-03 
  66879.4577     0.13332E-03 
  66911.7198     0.13365E-03 
  66943.9820     0.13397E-03 
  66976.2442     0.13430E-03 
  67008.5063     0.13462E-03 
  67040.7685     0.13495E-03 
  67073.0306     0.13527E-03 
  67105.2928     0.13560E-03 
  67137.5550     0.13592E-03 
  67169.8171     0.13625E-03 
  67202.0793     0.13658E-03 
  67234.3414     0.13690E-03 
  67266.6036     0.13723E-03 
  67298.8658     0.13755E-03 
  67331.1279     0.13788E-03 
  67363.3901     0.13820E-03 
  67395.6522     0.13853E-03 
  67427.9144     0.13886E-03 
  67460.1766     0.13918E-03 
  67492.4387     0.13951E-03 
  67524.7009     0.13983E-03 
  67556.9630     0.14016E-03 
  67589.2252     0.14049E-03 
  67621.4874     0.14081E-03 
  67653.7495     0.14114E-03 
  67686.0117     0.14146E-03 
  67718.2738     0.14179E-03 
  67750.5360     0.14212E-03 
  67782.7982     0.14244E-03 
  67815.0603     0.14277E-03 
  67847.3225     0.14310E-03 
  67879.5846     0.14342E-03 
  67911.8468     0.14375E-03 
  67944.1090     0.14407E-03 
  67976.3711     0.14440E-03 
  68008.6333     0.14473E-03 
  68040.8954     0.14505E-03 
  68073.1576     0.14538E-03 
  68105.4198     0.14570E-03 
  68137.6819     0.14603E-03 
  68169.9441     0.14636E-03 
  68202.2062     0.14668E-03 
  68234.4684     0.14701E-03 
  68266.7306     0.14733E-03 
  68298.9927     0.14766E-03 
  68331.2549     0.14799E-03 
  68363.5170     0.14831E-03 
  68395.7792     0.14864E-03 
  68428.0414     0.14896E-03 
  68460.3035     0.14929E-03 
  68492.5657     0.14962E-03 
  68524.8278     0.14994E-03 
  68557.0900     0.15027E-03 
  68589.3522     0.15059E-03 
  68621.6143     0.15092E-03 
  68653.8765     0.15124E-03 
  68686.1386     0.15157E-03 
  68718.4008     0.15189E-03 
  68750.6630     0.15222E-03 
  68782.9251     0.15254E-03 
  68815.1873     0.15287E-03 
  68847.4494     0.15320E-03 
  68879.7116     0.15352E-03 
  68911.9738     0.15385E-03 
  68944.2359     0.15417E-03 
  68976.4981     0.15450E-03 
  69008.7602     0.15482E-03 
  69041.0224     0.15515E-03 
  69073.2846     0.15547E-03 
  69105.5467     0.15579E-03 
  69137.8089     0.15612E-03 
  69170.0710     0.15644E-03 
  69202.3332     0.15677E-03 
  69234.5954     0.15709E-03 
  69266.8575     0.15742E-03 
  69299.1197     0.15774E-03 
  69331.3818     0.15807E-03 
  69363.6440     0.15839E-03 
  69395.9062     0.15871E-03 
  69428.1683     0.15904E-03 
  69460.4305     0.15936E-03 
  69492.6926     0.15968E-03 
  69524.9548     0.16001E-03 
  69557.2170     0.16033E-03 
  69589.4791     0.16066E-03 
  69621.7413     0.16098E-03 
  69654.0034     0.16130E-03 
  69686.2656     0.16163E-03 
  69718.5278     0.16195E-03 
  69750.7899     0.16227E-03 
  69783.0521     0.16259E-03 
  69815.3142     0.16292E-03 
  69847.5764     0.16324E-03 
  69879.8386     0.16356E-03 
  69912.1007     0.16388E-03 
  69944.3629     0.16421E-03 
  69976.6250     0.16453E-03 
  70008.8872     0.16485E-03 
  70041.1494     0.16517E-03 
  70073.4115     0.16550E-03 
  70105.6737     0.16582E-03 
  70137.9358     0.16614E-03 
  70170.1980     0.16646E-03 
  70202.4602     0.16678E-03 
  70234.7223     0.16710E-03 
  70266.9845     0.16743E-03 
  70299.2466     0.16775E-03 
  70331.5088     0.16807E-03 
  70363.7710     0.16839E-03 
  70396.0331     0.16871E-03 
  70428.2953     0.16903E-03 
  70460.5574     0.16935E-03 
  70492.8196     0.16967E-03 
  70525.0818     0.16999E-03 
  70557.3439     0.17031E-03 
  70589.6061     0.17063E-03 
  70621.8682     0.17095E-03 
  70654.1304     0.17127E-03 
  70686.3926     0.17159E-03 
  70718.6547     0.17191E-03 
  70750.9169     0.17223E-03 
  70783.1790     0.17255E-03 
  70815.4412     0.17287E-03 
  70847.7034     0.17319E-03 
  70879.9655     0.17351E-03 
  70912.2277     0.17383E-03 
  70944.4898     0.17415E-03 
  70976.7520     0.17446E-03 
  71009.0142     0.17478E-03 
  71041.2763     0.17510E-03 
  71073.5385     0.17542E-03 
  71105.8006     0.17574E-03 
  71138.0628     0.17606E-03 
  71170.3250     0.17637E-03 
  71202.5871     0.17669E-03 
  71234.8493     0.17701E-03 
  71267.1114     0.17732E-03 
  71299.3736     0.17764E-03 
  71331.6358     0.17796E-03 
  71363.8979     0.17828E-03 
  71396.1601     0.17859E-03 
  71428.4222     0.17891E-03 
  71460.6844     0.17922E-03 
  71492.9466     0.17954E-03 
  71525.2087     0.17986E-03 
  71557.4709     0.18017E-03 
  71589.7330     0.18049E-03 
  71621.9952     0.18080E-03 
  71654.2574     0.18112E-03 
  71686.5195     0.18143E-03 
  71718.7817     0.18175E-03 
  71751.0438     0.18206E-03 
  71783.3060     0.18238E-03 
  71815.5682     0.18269E-03 
  71847.8303     0.18301E-03 
  71880.0925     0.18332E-03 
  71912.3546     0.18363E-03 
  71944.6168     0.18395E-03 
  71976.8790     0.18426E-03 
  72009.1411     0.18457E-03 
  72041.4033     0.18489E-03 
  72073.6654     0.18520E-03 
  72105.9276     0.18551E-03 
  72138.1898     0.18583E-03 
  72170.4519     0.18614E-03 
  72202.7141     0.18645E-03 
  72234.9762     0.18676E-03 
  72267.2384     0.18707E-03 
  72299.5006     0.18738E-03 
  72331.7627     0.18769E-03 
  72364.0249     0.18801E-03 
  72396.2870     0.18832E-03 
  72428.5492     0.18863E-03 
  72460.8114     0.18894E-03 
  72493.0735     0.18925E-03 
  72525.3357     0.18956E-03 
  72557.5978     0.18987E-03 
  72589.8600     0.19018E-03 
