  32262.1600     0.76775E+00 
  32294.4222     0.77299E+00 
  32326.6843     0.77825E+00 
  32358.9465     0.78353E+00 
  32391.2086     0.78884E+00 
  32423.4708     0.79416E+00 
  32455.7330     0.79951E+00 
  32487.9951     0.80488E+00 
  32520.2573     0.81028E+00 
  32552.5194     0.81570E+00 
  32584.7816     0.82113E+00 
  32617.0438     0.82660E+00 
  32649.3059     0.83208E+00 
  32681.5681     0.83759E+00 
  32713.8302     0.84311E+00 
  32746.0924     0.84866E+00 
  32778.3546     0.85424E+00 
  32810.6167     0.85983E+00 
  32842.8789     0.86545E+00 
  32875.1410     0.87109E+00 
  32907.4032     0.87675E+00 
  32939.6654     0.88243E+00 
  32971.9275     0.88814E+00 
  33004.1897     0.89386E+00 
  33036.4518     0.89961E+00 
  33068.7140     0.90538E+00 
  33100.9762     0.91117E+00 
  33133.2383     0.91699E+00 
  33165.5005     0.92282E+00 
  33197.7626     0.92868E+00 
  33230.0248     0.93456E+00 
  33262.2870     0.94046E+00 
  33294.5491     0.94638E+00 
  33326.8113     0.95233E+00 
  33359.0734     0.95829E+00 
  33391.3356     0.96428E+00 
  33423.5978     0.97029E+00 
  33455.8599     0.97631E+00 
  33488.1221     0.98236E+00 
  33520.3842     0.98844E+00 
  33552.6464     0.99453E+00 
  33584.9086     0.10006E+01 
  33617.1707     0.10068E+01 
  33649.4329     0.10129E+01 
  33681.6950     0.10191E+01 
  33713.9572     0.10253E+01 
  33746.2194     0.10315E+01 
  33778.4815     0.10378E+01 
  33810.7437     0.10440E+01 
  33843.0058     0.10503E+01 
  33875.2680     0.10566E+01 
  33907.5302     0.10629E+01 
  33939.7923     0.10693E+01 
  33972.0545     0.10756E+01 
  34004.3166     0.10820E+01 
  34036.5788     0.10884E+01 
  34068.8410     0.10948E+01 
  34101.1031     0.11013E+01 
  34133.3653     0.11077E+01 
  34165.6274     0.11142E+01 
  34197.8896     0.11207E+01 
  34230.1518     0.11272E+01 
  34262.4139     0.11338E+01 
  34294.6761     0.11403E+01 
  34326.9382     0.11469E+01 
  34359.2004     0.11535E+01 
  34391.4626     0.11601E+01 
  34423.7247     0.11668E+01 
  34455.9869     0.11734E+01 
  34488.2490     0.11801E+01 
  34520.5112     0.11868E+01 
  34552.7734     0.11935E+01 
  34585.0355     0.12002E+01 
  34617.2977     0.12070E+01 
  34649.5598     0.12138E+01 
  34681.8220     0.12205E+01 
  34714.0842     0.12274E+01 
  34746.3463     0.12342E+01 
  34778.6085     0.12410E+01 
  34810.8706     0.12479E+01 
  34843.1328     0.12548E+01 
  34875.3950     0.12617E+01 
  34907.6571     0.12686E+01 
  34939.9193     0.12755E+01 
  34972.1814     0.12824E+01 
  35004.4436     0.12894E+01 
  35036.7058     0.12964E+01 
  35068.9679     0.13034E+01 
  35101.2301     0.13104E+01 
  35133.4922     0.13174E+01 
  35165.7544     0.13245E+01 
  35198.0166     0.13316E+01 
  35230.2787     0.13386E+01 
  35262.5409     0.13457E+01 
  35294.8030     0.13529E+01 
  35327.0652     0.13600E+01 
  35359.3274     0.13671E+01 
  35391.5895     0.13743E+01 
  35423.8517     0.13815E+01 
  35456.1138     0.13887E+01 
  35488.3760     0.13959E+01 
  35520.6382     0.14031E+01 
  35552.9003     0.14104E+01 
  35585.1625     0.14176E+01 
  35617.4246     0.14249E+01 
  35649.6868     0.14322E+01 
  35681.9490     0.14395E+01 
  35714.2111     0.14468E+01 
  35746.4733     0.14541E+01 
  35778.7354     0.14615E+01 
  35810.9976     0.14689E+01 
  35843.2598     0.14762E+01 
  35875.5219     0.14836E+01 
  35907.7841     0.14910E+01 
  35940.0462     0.14984E+01 
  35972.3084     0.15059E+01 
  36004.5706     0.15133E+01 
  36036.8327     0.15208E+01 
  36069.0949     0.15282E+01 
  36101.3570     0.15357E+01 
  36133.6192     0.15432E+01 
  36165.8814     0.15507E+01 
  36198.1435     0.15582E+01 
  36230.4057     0.15658E+01 
  36262.6678     0.15733E+01 
  36294.9300     0.15809E+01 
  36327.1922     0.15885E+01 
  36359.4543     0.15960E+01 
  36391.7165     0.16036E+01 
  36423.9786     0.16112E+01 
  36456.2408     0.16189E+01 
  36488.5030     0.16265E+01 
  36520.7651     0.16341E+01 
  36553.0273     0.16418E+01 
  36585.2894     0.16494E+01 
  36617.5516     0.16571E+01 
  36649.8138     0.16648E+01 
  36682.0759     0.16725E+01 
  36714.3381     0.16802E+01 
  36746.6002     0.16879E+01 
  36778.8624     0.16956E+01 
  36811.1246     0.17033E+01 
  36843.3867     0.17111E+01 
  36875.6489     0.17188E+01 
  36907.9110     0.17266E+01 
  36940.1732     0.17343E+01 
  36972.4354     0.17421E+01 
  37004.6975     0.17499E+01 
  37036.9597     0.17577E+01 
  37069.2218     0.17655E+01 
  37101.4840     0.17733E+01 
  37133.7462     0.17811E+01 
  37166.0083     0.17889E+01 
  37198.2705     0.17968E+01 
  37230.5326     0.18046E+01 
  37262.7948     0.18125E+01 
  37295.0570     0.18203E+01 
  37327.3191     0.18282E+01 
  37359.5813     0.18360E+01 
  37391.8434     0.18439E+01 
  37424.1056     0.18518E+01 
  37456.3678     0.18597E+01 
  37488.6299     0.18675E+01 
  37520.8921     0.18754E+01 
  37553.1542     0.18833E+01 
  37585.4164     0.18912E+01 
  37617.6786     0.18992E+01 
  37649.9407     0.19071E+01 
  37682.2029     0.19150E+01 
  37714.4650     0.19229E+01 
  37746.7272     0.19308E+01 
  37778.9894     0.19388E+01 
  37811.2515     0.19467E+01 
  37843.5137     0.19546E+01 
  37875.7758     0.19626E+01 
  37908.0380     0.19705E+01 
  37940.3002     0.19785E+01 
  37972.5623     0.19864E+01 
  38004.8245     0.19944E+01 
  38037.0866     0.20023E+01 
  38069.3488     0.20103E+01 
  38101.6110     0.20183E+01 
  38133.8731     0.20262E+01 
  38166.1353     0.20342E+01 
  38198.3974     0.20422E+01 
  38230.6596     0.20501E+01 
  38262.9218     0.20581E+01 
  38295.1839     0.20661E+01 
  38327.4461     0.20740E+01 
  38359.7082     0.20820E+01 
  38391.9704     0.20900E+01 
  38424.2326     0.20979E+01 
  38456.4947     0.21059E+01 
  38488.7569     0.21139E+01 
  38521.0190     0.21218E+01 
  38553.2812     0.21298E+01 
  38585.5434     0.21378E+01 
  38617.8055     0.21457E+01 
  38650.0677     0.21537E+01 
  38682.3298     0.21617E+01 
  38714.5920     0.21696E+01 
  38746.8542     0.21776E+01 
  38779.1163     0.21855E+01 
  38811.3785     0.21935E+01 
  38843.6406     0.22014E+01 
  38875.9028     0.22094E+01 
  38908.1650     0.22173E+01 
  38940.4271     0.22253E+01 
  38972.6893     0.22332E+01 
  39004.9514     0.22411E+01 
  39037.2136     0.22491E+01 
  39069.4758     0.22570E+01 
  39101.7379     0.22649E+01 
  39134.0001     0.22728E+01 
  39166.2622     0.22807E+01 
  39198.5244     0.22886E+01 
  39230.7866     0.22965E+01 
  39263.0487     0.23044E+01 
  39295.3109     0.23123E+01 
  39327.5730     0.23202E+01 
  39359.8352     0.23281E+01 
  39392.0974     0.23360E+01 
  39424.3595     0.23438E+01 
  39456.6217     0.23517E+01 
  39488.8838     0.23595E+01 
  39521.1460     0.23674E+01 
  39553.4082     0.23752E+01 
  39585.6703     0.23830E+01 
  39617.9325     0.23908E+01 
  39650.1946     0.23986E+01 
  39682.4568     0.24064E+01 
  39714.7190     0.24142E+01 
  39746.9811     0.24220E+01 
  39779.2433     0.24298E+01 
  39811.5054     0.24376E+01 
  39843.7676     0.24453E+01 
  39876.0298     0.24531E+01 
  39908.2919     0.24608E+01 
  39940.5541     0.24685E+01 
  39972.8162     0.24762E+01 
  40005.0784     0.24839E+01 
  40037.3406     0.24916E+01 
  40069.6027     0.24993E+01 
  40101.8649     0.25070E+01 
  40134.1270     0.25146E+01 
  40166.3892     0.25223E+01 
  40198.6514     0.25299E+01 
  40230.9135     0.25375E+01 
  40263.1757     0.25451E+01 
  40295.4378     0.25527E+01 
  40327.7000     0.25603E+01 
  40359.9622     0.25679E+01 
  40392.2243     0.25754E+01 
  40424.4865     0.25830E+01 
  40456.7486     0.25905E+01 
  40489.0108     0.25980E+01 
  40521.2730     0.26055E+01 
  40553.5351     0.26130E+01 
  40585.7973     0.26205E+01 
  40618.0594     0.26279E+01 
  40650.3216     0.26353E+01 
  40682.5838     0.26428E+01 
  40714.8459     0.26502E+01 
  40747.1081     0.26576E+01 
  40779.3702     0.26649E+01 
  40811.6324     0.26723E+01 
  40843.8946     0.26796E+01 
  40876.1567     0.26870E+01 
  40908.4189     0.26943E+01 
  40940.6810     0.27016E+01 
  40972.9432     0.27088E+01 
  41005.2054     0.27161E+01 
  41037.4675     0.27233E+01 
  41069.7297     0.27306E+01 
  41101.9918     0.27378E+01 
  41134.2540     0.27449E+01 
  41166.5162     0.27521E+01 
  41198.7783     0.27592E+01 
  41231.0405     0.27664E+01 
  41263.3026     0.27735E+01 
  41295.5648     0.27806E+01 
  41327.8270     0.27876E+01 
  41360.0891     0.27947E+01 
  41392.3513     0.28017E+01 
  41424.6134     0.28087E+01 
  41456.8756     0.28157E+01 
  41489.1378     0.28226E+01 
  41521.3999     0.28296E+01 
  41553.6621     0.28365E+01 
  41585.9242     0.28434E+01 
  41618.1864     0.28503E+01 
  41650.4486     0.28571E+01 
  41682.7107     0.28639E+01 
  41714.9729     0.28708E+01 
  41747.2350     0.28775E+01 
  41779.4972     0.28843E+01 
  41811.7594     0.28910E+01 
  41844.0215     0.28978E+01 
  41876.2837     0.29044E+01 
  41908.5458     0.29111E+01 
  41940.8080     0.29178E+01 
  41973.0702     0.29244E+01 
  42005.3323     0.29310E+01 
  42037.5945     0.29375E+01 
  42069.8566     0.29441E+01 
  42102.1188     0.29506E+01 
  42134.3810     0.29571E+01 
  42166.6431     0.29636E+01 
  42198.9053     0.29700E+01 
  42231.1674     0.29764E+01 
  42263.4296     0.29828E+01 
  42295.6918     0.29892E+01 
  42327.9539     0.29955E+01 
  42360.2161     0.30018E+01 
  42392.4782     0.30081E+01 
  42424.7404     0.30144E+01 
  42457.0026     0.30206E+01 
  42489.2647     0.30268E+01 
  42521.5269     0.30330E+01 
  42553.7890     0.30391E+01 
  42586.0512     0.30452E+01 
  42618.3134     0.30513E+01 
  42650.5755     0.30574E+01 
  42682.8377     0.30634E+01 
  42715.0998     0.30694E+01 
  42747.3620     0.30754E+01 
  42779.6242     0.30813E+01 
  42811.8863     0.30872E+01 
  42844.1485     0.30931E+01 
  42876.4106     0.30990E+01 
  42908.6728     0.31048E+01 
  42940.9350     0.31106E+01 
  42973.1971     0.31164E+01 
  43005.4593     0.31221E+01 
  43037.7214     0.31278E+01 
  43069.9836     0.31335E+01 
  43102.2458     0.31391E+01 
  43134.5079     0.31447E+01 
  43166.7701     0.31503E+01 
  43199.0322     0.31558E+01 
  43231.2944     0.31613E+01 
  43263.5566     0.31668E+01 
  43295.8187     0.31723E+01 
  43328.0809     0.31777E+01 
  43360.3430     0.31831E+01 
  43392.6052     0.31884E+01 
  43424.8674     0.31937E+01 
  43457.1295     0.31990E+01 
  43489.3917     0.32043E+01 
  43521.6538     0.32095E+01 
  43553.9160     0.32147E+01 
  43586.1782     0.32198E+01 
  43618.4403     0.32249E+01 
  43650.7025     0.32300E+01 
  43682.9646     0.32350E+01 
  43715.2268     0.32401E+01 
  43747.4890     0.32450E+01 
  43779.7511     0.32500E+01 
  43812.0133     0.32549E+01 
  43844.2754     0.32597E+01 
  43876.5376     0.32646E+01 
  43908.7998     0.32694E+01 
  43941.0619     0.32741E+01 
  43973.3241     0.32789E+01 
  44005.5862     0.32836E+01 
  44037.8484     0.32882E+01 
  44070.1106     0.32928E+01 
  44102.3727     0.32974E+01 
  44134.6349     0.33020E+01 
  44166.8970     0.33065E+01 
  44199.1592     0.33109E+01 
  44231.4214     0.33154E+01 
  44263.6835     0.33198E+01 
  44295.9457     0.33241E+01 
  44328.2078     0.33285E+01 
  44360.4700     0.33327E+01 
  44392.7322     0.33370E+01 
  44424.9943     0.33412E+01 
  44457.2565     0.33454E+01 
  44489.5186     0.33495E+01 
  44521.7808     0.33536E+01 
  44554.0430     0.33576E+01 
  44586.3051     0.33617E+01 
  44618.5673     0.33656E+01 
  44650.8294     0.33696E+01 
  44683.0916     0.33735E+01 
  44715.3538     0.33773E+01 
  44747.6159     0.33812E+01 
  44779.8781     0.33849E+01 
  44812.1402     0.33887E+01 
  44844.4024     0.33924E+01 
  44876.6646     0.33961E+01 
  44908.9267     0.33997E+01 
  44941.1889     0.34033E+01 
  44973.4510     0.34068E+01 
  45005.7132     0.34103E+01 
  45037.9754     0.34138E+01 
  45070.2375     0.34172E+01 
  45102.4997     0.34206E+01 
  45134.7618     0.34239E+01 
  45167.0240     0.34272E+01 
  45199.2862     0.34305E+01 
  45231.5483     0.34337E+01 
  45263.8105     0.34369E+01 
  45296.0726     0.34400E+01 
  45328.3348     0.34431E+01 
  45360.5970     0.34461E+01 
  45392.8591     0.34492E+01 
  45425.1213     0.34521E+01 
  45457.3834     0.34551E+01 
  45489.6456     0.34579E+01 
  45521.9078     0.34608E+01 
  45554.1699     0.34636E+01 
  45586.4321     0.34663E+01 
  45618.6942     0.34691E+01 
  45650.9564     0.34717E+01 
  45683.2186     0.34744E+01 
  45715.4807     0.34770E+01 
  45747.7429     0.34795E+01 
  45780.0050     0.34820E+01 
  45812.2672     0.34845E+01 
  45844.5294     0.34869E+01 
  45876.7915     0.34893E+01 
  45909.0537     0.34916E+01 
  45941.3158     0.34939E+01 
  45973.5780     0.34961E+01 
  46005.8402     0.34984E+01 
  46038.1023     0.35005E+01 
  46070.3645     0.35026E+01 
  46102.6266     0.35047E+01 
  46134.8888     0.35067E+01 
  46167.1510     0.35087E+01 
  46199.4131     0.35107E+01 
  46231.6753     0.35126E+01 
  46263.9374     0.35144E+01 
  46296.1996     0.35163E+01 
  46328.4618     0.35180E+01 
  46360.7239     0.35197E+01 
  46392.9861     0.35214E+01 
  46425.2482     0.35231E+01 
  46457.5104     0.35247E+01 
  46489.7726     0.35262E+01 
  46522.0347     0.35277E+01 
  46554.2969     0.35292E+01 
  46586.5590     0.35306E+01 
  46618.8212     0.35320E+01 
  46651.0834     0.35333E+01 
  46683.3455     0.35346E+01 
  46715.6077     0.35358E+01 
  46747.8698     0.35370E+01 
  46780.1320     0.35382E+01 
  46812.3942     0.35393E+01 
  46844.6563     0.35404E+01 
  46876.9185     0.35414E+01 
  46909.1806     0.35424E+01 
  46941.4428     0.35433E+01 
  46973.7050     0.35442E+01 
  47005.9671     0.35450E+01 
  47038.2293     0.35458E+01 
  47070.4914     0.35466E+01 
  47102.7536     0.35473E+01 
  47135.0158     0.35480E+01 
  47167.2779     0.35486E+01 
  47199.5401     0.35492E+01 
  47231.8022     0.35497E+01 
  47264.0644     0.35502E+01 
  47296.3266     0.35506E+01 
  47328.5887     0.35510E+01 
  47360.8509     0.35514E+01 
  47393.1130     0.35517E+01 
  47425.3752     0.35519E+01 
  47457.6374     0.35522E+01 
  47489.8995     0.35523E+01 
  47522.1617     0.35525E+01 
  47554.4238     0.35525E+01 
  47586.6860     0.35526E+01 
  47618.9482     0.35526E+01 
  47651.2103     0.35525E+01 
  47683.4725     0.35524E+01 
  47715.7346     0.35523E+01 
  47747.9968     0.35521E+01 
  47780.2590     0.35519E+01 
  47812.5211     0.35516E+01 
  47844.7833     0.35513E+01 
  47877.0454     0.35510E+01 
  47909.3076     0.35506E+01 
  47941.5698     0.35501E+01 
  47973.8319     0.35496E+01 
  48006.0941     0.35491E+01 
  48038.3562     0.35485E+01 
  48070.6184     0.35479E+01 
  48102.8806     0.35472E+01 
  48135.1427     0.35465E+01 
  48167.4049     0.35457E+01 
  48199.6670     0.35449E+01 
  48231.9292     0.35441E+01 
  48264.1914     0.35432E+01 
  48296.4535     0.35423E+01 
  48328.7157     0.35413E+01 
  48360.9778     0.35403E+01 
  48393.2400     0.35392E+01 
  48425.5022     0.35381E+01 
  48457.7643     0.35370E+01 
  48490.0265     0.35358E+01 
  48522.2886     0.35345E+01 
  48554.5508     0.35332E+01 
  48586.8130     0.35319E+01 
  48619.0751     0.35305E+01 
  48651.3373     0.35291E+01 
  48683.5994     0.35277E+01 
  48715.8616     0.35262E+01 
  48748.1238     0.35246E+01 
  48780.3859     0.35231E+01 
  48812.6481     0.35214E+01 
  48844.9102     0.35198E+01 
  48877.1724     0.35181E+01 
  48909.4346     0.35163E+01 
  48941.6967     0.35145E+01 
  48973.9589     0.35127E+01 
  49006.2210     0.35108E+01 
  49038.4832     0.35089E+01 
  49070.7454     0.35069E+01 
  49103.0075     0.35049E+01 
  49135.2697     0.35028E+01 
  49167.5318     0.35007E+01 
  49199.7940     0.34986E+01 
  49232.0562     0.34964E+01 
  49264.3183     0.34942E+01 
  49296.5805     0.34920E+01 
  49328.8426     0.34897E+01 
  49361.1048     0.34873E+01 
  49393.3670     0.34849E+01 
  49425.6291     0.34825E+01 
  49457.8913     0.34800E+01 
  49490.1534     0.34775E+01 
  49522.4156     0.34750E+01 
  49554.6778     0.34724E+01 
  49586.9399     0.34698E+01 
  49619.2021     0.34671E+01 
  49651.4642     0.34644E+01 
  49683.7264     0.34616E+01 
  49715.9886     0.34589E+01 
  49748.2507     0.34560E+01 
  49780.5129     0.34532E+01 
  49812.7750     0.34502E+01 
  49845.0372     0.34473E+01 
  49877.2994     0.34443E+01 
  49909.5615     0.34413E+01 
  49941.8237     0.34382E+01 
  49974.0858     0.34351E+01 
  50006.3480     0.34320E+01 
  50038.6102     0.34288E+01 
  50070.8723     0.34256E+01 
  50103.1345     0.34223E+01 
  50135.3966     0.34190E+01 
  50167.6588     0.34157E+01 
  50199.9210     0.34123E+01 
  50232.1831     0.34089E+01 
  50264.4453     0.34054E+01 
  50296.7074     0.34020E+01 
  50328.9696     0.33984E+01 
  50361.2318     0.33949E+01 
  50393.4939     0.33913E+01 
  50425.7561     0.33876E+01 
  50458.0182     0.33840E+01 
  50490.2804     0.33803E+01 
  50522.5426     0.33765E+01 
  50554.8047     0.33727E+01 
  50587.0669     0.33689E+01 
  50619.3290     0.33651E+01 
  50651.5912     0.33612E+01 
  50683.8534     0.33572E+01 
  50716.1155     0.33533E+01 
  50748.3777     0.33493E+01 
  50780.6398     0.33453E+01 
  50812.9020     0.33412E+01 
  50845.1642     0.33371E+01 
  50877.4263     0.33330E+01 
  50909.6885     0.33288E+01 
  50941.9506     0.33246E+01 
  50974.2128     0.33203E+01 
  51006.4750     0.33161E+01 
  51038.7371     0.33118E+01 
  51070.9993     0.33074E+01 
  51103.2614     0.33031E+01 
  51135.5236     0.32987E+01 
  51167.7858     0.32942E+01 
  51200.0479     0.32898E+01 
  51232.3101     0.32853E+01 
  51264.5722     0.32807E+01 
  51296.8344     0.32762E+01 
  51329.0966     0.32716E+01 
  51361.3587     0.32669E+01 
  51393.6209     0.32623E+01 
  51425.8830     0.32576E+01 
  51458.1452     0.32529E+01 
  51490.4074     0.32481E+01 
  51522.6695     0.32433E+01 
  51554.9317     0.32385E+01 
  51587.1938     0.32337E+01 
  51619.4560     0.32288E+01 
  51651.7182     0.32239E+01 
  51683.9803     0.32189E+01 
  51716.2425     0.32140E+01 
  51748.5046     0.32090E+01 
  51780.7668     0.32040E+01 
  51813.0290     0.31989E+01 
  51845.2911     0.31939E+01 
  51877.5533     0.31887E+01 
  51909.8154     0.31836E+01 
  51942.0776     0.31785E+01 
  51974.3398     0.31733E+01 
  52006.6019     0.31681E+01 
  52038.8641     0.31628E+01 
  52071.1262     0.31575E+01 
  52103.3884     0.31523E+01 
  52135.6506     0.31469E+01 
  52167.9127     0.31416E+01 
  52200.1749     0.31362E+01 
  52232.4370     0.31308E+01 
  52264.6992     0.31254E+01 
  52296.9614     0.31200E+01 
  52329.2235     0.31145E+01 
  52361.4857     0.31090E+01 
  52393.7478     0.31035E+01 
  52426.0100     0.30979E+01 
  52458.2722     0.30924E+01 
  52490.5343     0.30868E+01 
  52522.7965     0.30812E+01 
  52555.0586     0.30755E+01 
  52587.3208     0.30699E+01 
  52619.5830     0.30642E+01 
  52651.8451     0.30585E+01 
  52684.1073     0.30528E+01 
  52716.3694     0.30470E+01 
  52748.6316     0.30413E+01 
  52780.8938     0.30355E+01 
  52813.1559     0.30297E+01 
  52845.4181     0.30239E+01 
  52877.6802     0.30180E+01 
  52909.9424     0.30121E+01 
  52942.2046     0.30063E+01 
  52974.4667     0.30004E+01 
  53006.7289     0.29944E+01 
  53038.9910     0.29885E+01 
  53071.2532     0.29825E+01 
  53103.5154     0.29766E+01 
  53135.7775     0.29706E+01 
  53168.0397     0.29645E+01 
  53200.3018     0.29585E+01 
  53232.5640     0.29525E+01 
  53264.8262     0.29464E+01 
  53297.0883     0.29403E+01 
  53329.3505     0.29342E+01 
  53361.6126     0.29281E+01 
  53393.8748     0.29220E+01 
  53426.1370     0.29159E+01 
  53458.3991     0.29097E+01 
  53490.6613     0.29036E+01 
  53522.9234     0.28974E+01 
  53555.1856     0.28912E+01 
  53587.4478     0.28850E+01 
  53619.7099     0.28788E+01 
  53651.9721     0.28725E+01 
  53684.2342     0.28663E+01 
  53716.4964     0.28600E+01 
  53748.7586     0.28538E+01 
  53781.0207     0.28475E+01 
  53813.2829     0.28412E+01 
  53845.5450     0.28349E+01 
  53877.8072     0.28286E+01 
  53910.0694     0.28223E+01 
  53942.3315     0.28159E+01 
  53974.5937     0.28096E+01 
  54006.8558     0.28033E+01 
  54039.1180     0.27969E+01 
  54071.3802     0.27905E+01 
  54103.6423     0.27842E+01 
  54135.9045     0.27778E+01 
  54168.1666     0.27714E+01 
  54200.4288     0.27650E+01 
  54232.6910     0.27586E+01 
  54264.9531     0.27522E+01 
  54297.2153     0.27458E+01 
  54329.4774     0.27394E+01 
  54361.7396     0.27330E+01 
  54394.0018     0.27266E+01 
  54426.2639     0.27201E+01 
  54458.5261     0.27137E+01 
  54490.7882     0.27073E+01 
  54523.0504     0.27008E+01 
  54555.3126     0.26944E+01 
  54587.5747     0.26880E+01 
  54619.8369     0.26815E+01 
  54652.0990     0.26751E+01 
  54684.3612     0.26686E+01 
  54716.6234     0.26622E+01 
  54748.8855     0.26557E+01 
  54781.1477     0.26493E+01 
  54813.4098     0.26428E+01 
  54845.6720     0.26364E+01 
  54877.9342     0.26300E+01 
  54910.1963     0.26235E+01 
  54942.4585     0.26171E+01 
  54974.7206     0.26106E+01 
  55006.9828     0.26042E+01 
  55039.2450     0.25978E+01 
  55071.5071     0.25913E+01 
  55103.7693     0.25849E+01 
  55136.0314     0.25785E+01 
  55168.2936     0.25721E+01 
  55200.5558     0.25657E+01 
  55232.8179     0.25593E+01 
  55265.0801     0.25529E+01 
  55297.3422     0.25465E+01 
  55329.6044     0.25401E+01 
  55361.8666     0.25338E+01 
  55394.1287     0.25274E+01 
  55426.3909     0.25210E+01 
  55458.6530     0.25147E+01 
  55490.9152     0.25083E+01 
  55523.1774     0.25020E+01 
  55555.4395     0.24957E+01 
  55587.7017     0.24894E+01 
  55619.9638     0.24831E+01 
  55652.2260     0.24768E+01 
  55684.4882     0.24705E+01 
  55716.7503     0.24643E+01 
  55749.0125     0.24580E+01 
  55781.2746     0.24518E+01 
  55813.5368     0.24456E+01 
  55845.7990     0.24394E+01 
  55878.0611     0.24332E+01 
  55910.3233     0.24270E+01 
  55942.5854     0.24208E+01 
  55974.8476     0.24147E+01 
  56007.1098     0.24086E+01 
  56039.3719     0.24024E+01 
  56071.6341     0.23963E+01 
  56103.8962     0.23903E+01 
  56136.1584     0.23842E+01 
  56168.4206     0.23782E+01 
  56200.6827     0.23722E+01 
  56232.9449     0.23662E+01 
  56265.2070     0.23602E+01 
  56297.4692     0.23542E+01 
  56329.7314     0.23483E+01 
  56361.9935     0.23424E+01 
  56394.2557     0.23365E+01 
  56426.5178     0.23306E+01 
  56458.7800     0.23248E+01 
  56491.0422     0.23189E+01 
  56523.3043     0.23131E+01 
  56555.5665     0.23074E+01 
  56587.8286     0.23016E+01 
  56620.0908     0.22959E+01 
  56652.3530     0.22902E+01 
  56684.6151     0.22845E+01 
  56716.8773     0.22789E+01 
  56749.1394     0.22733E+01 
  56781.4016     0.22677E+01 
  56813.6638     0.22621E+01 
  56845.9259     0.22566E+01 
  56878.1881     0.22511E+01 
  56910.4502     0.22456E+01 
  56942.7124     0.22402E+01 
  56974.9746     0.22348E+01 
  57007.2367     0.22294E+01 
  57039.4989     0.22241E+01 
  57071.7610     0.22188E+01 
  57104.0232     0.22135E+01 
  57136.2854     0.22082E+01 
  57168.5475     0.22030E+01 
  57200.8097     0.21979E+01 
  57233.0718     0.21927E+01 
  57265.3340     0.21876E+01 
  57297.5962     0.21826E+01 
  57329.8583     0.21775E+01 
  57362.1205     0.21726E+01 
  57394.3826     0.21676E+01 
  57426.6448     0.21627E+01 
  57458.9070     0.21578E+01 
  57491.1691     0.21530E+01 
  57523.4313     0.21482E+01 
  57555.6934     0.21435E+01 
  57587.9556     0.21388E+01 
  57620.2178     0.21341E+01 
  57652.4799     0.21295E+01 
  57684.7421     0.21249E+01 
  57717.0042     0.21204E+01 
  57749.2664     0.21159E+01 
  57781.5286     0.21115E+01 
  57813.7907     0.21071E+01 
  57846.0529     0.21027E+01 
  57878.3150     0.20984E+01 
  57910.5772     0.20942E+01 
  57942.8394     0.20900E+01 
  57975.1015     0.20858E+01 
  58007.3637     0.20817E+01 
  58039.6258     0.20777E+01 
  58071.8880     0.20737E+01 
  58104.1502     0.20697E+01 
  58136.4123     0.20658E+01 
  58168.6745     0.20620E+01 
  58200.9366     0.20582E+01 
  58233.1988     0.20545E+01 
  58265.4610     0.20508E+01 
  58297.7231     0.20471E+01 
  58329.9853     0.20436E+01 
  58362.2474     0.20401E+01 
  58394.5096     0.20366E+01 
  58426.7718     0.20332E+01 
  58459.0339     0.20299E+01 
  58491.2961     0.20266E+01 
  58523.5582     0.20233E+01 
  58555.8204     0.20202E+01 
  58588.0826     0.20171E+01 
  58620.3447     0.20140E+01 
  58652.6069     0.20111E+01 
  58684.8690     0.20082E+01 
  58717.1312     0.20053E+01 
  58749.3934     0.20025E+01 
  58781.6555     0.19998E+01 
  58813.9177     0.19971E+01 
  58846.1798     0.19945E+01 
  58878.4420     0.19920E+01 
  58910.7042     0.19896E+01 
  58942.9663     0.19872E+01 
  58975.2285     0.19849E+01 
  59007.4906     0.19826E+01 
  59039.7528     0.19804E+01 
  59072.0150     0.19783E+01 
  59104.2771     0.19763E+01 
  59136.5393     0.19743E+01 
  59168.8014     0.19724E+01 
  59201.0636     0.19706E+01 
  59233.3258     0.19689E+01 
  59265.5879     0.19672E+01 
  59297.8501     0.19656E+01 
  59330.1122     0.19641E+01 
  59362.3744     0.19627E+01 
  59394.6366     0.19613E+01 
  59426.8987     0.19600E+01 
  59459.1609     0.19588E+01 
  59491.4230     0.19577E+01 
  59523.6852     0.19567E+01 
  59555.9474     0.19557E+01 
  59588.2095     0.19548E+01 
  59620.4717     0.19540E+01 
  59652.7338     0.19533E+01 
  59684.9960     0.19527E+01 
  59717.2582     0.19521E+01 
  59749.5203     0.19517E+01 
  59781.7825     0.19513E+01 
  59814.0446     0.19510E+01 
  59846.3068     0.19509E+01 
  59878.5690     0.19507E+01 
  59910.8311     0.19507E+01 
  59943.0933     0.19508E+01 
  59975.3554     0.19510E+01 
  60007.6176     0.19512E+01 
  60039.8798     0.19516E+01 
  60072.1419     0.19520E+01 
  60104.4041     0.19526E+01 
  60136.6662     0.19532E+01 
  60168.9284     0.19539E+01 
  60201.1906     0.19548E+01 
  60233.4527     0.19557E+01 
  60265.7149     0.19567E+01 
  60297.9770     0.19578E+01 
  60330.2392     0.19590E+01 
  60362.5014     0.19604E+01 
  60394.7635     0.19618E+01 
  60427.0257     0.19633E+01 
  60459.2878     0.19649E+01 
  60491.5500     0.19667E+01 
  60523.8122     0.19685E+01 
  60556.0743     0.19704E+01 
  60588.3365     0.19725E+01 
  60620.5986     0.19746E+01 
  60652.8608     0.19769E+01 
  60685.1230     0.19792E+01 
  60717.3851     0.19817E+01 
  60749.6473     0.19843E+01 
  60781.9094     0.19870E+01 
  60814.1716     0.19898E+01 
  60846.4338     0.19927E+01 
  60878.6959     0.19958E+01 
  60910.9581     0.19989E+01 
  60943.2202     0.20022E+01 
  60975.4824     0.20055E+01 
  61007.7446     0.20090E+01 
  61040.0067     0.20126E+01 
  61072.2689     0.20164E+01 
  61104.5310     0.20202E+01 
  61136.7932     0.20242E+01 
  61169.0554     0.20282E+01 
  61201.3175     0.20325E+01 
  61233.5797     0.20368E+01 
  61265.8418     0.20412E+01 
  61298.1040     0.20458E+01 
  61330.3662     0.20505E+01 
  61362.6283     0.20553E+01 
  61394.8905     0.20603E+01 
  61427.1526     0.20654E+01 
  61459.4148     0.20706E+01 
  61491.6770     0.20759E+01 
  61523.9391     0.20814E+01 
  61556.2013     0.20870E+01 
  61588.4634     0.20927E+01 
  61620.7256     0.20985E+01 
  61652.9878     0.21045E+01 
  61685.2499     0.21106E+01 
  61717.5121     0.21169E+01 
  61749.7742     0.21233E+01 
  61782.0364     0.21298E+01 
  61814.2986     0.21365E+01 
  61846.5607     0.21433E+01 
  61878.8229     0.21503E+01 
  61911.0850     0.21573E+01 
  61943.3472     0.21646E+01 
  61975.6094     0.21719E+01 
  62007.8715     0.21794E+01 
  62040.1337     0.21871E+01 
  62072.3958     0.21949E+01 
  62104.6580     0.22028E+01 
  62136.9202     0.22109E+01 
  62169.1823     0.22192E+01 
  62201.4445     0.22275E+01 
  62233.7066     0.22361E+01 
  62265.9688     0.22448E+01 
  62298.2310     0.22536E+01 
  62330.4931     0.22626E+01 
  62362.7553     0.22717E+01 
  62395.0174     0.22810E+01 
  62427.2796     0.22904E+01 
  62459.5418     0.23000E+01 
  62491.8039     0.23098E+01 
  62524.0661     0.23197E+01 
  62556.3282     0.23298E+01 
  62588.5904     0.23400E+01 
  62620.8526     0.23504E+01 
  62653.1147     0.23609E+01 
  62685.3769     0.23716E+01 
  62717.6390     0.23825E+01 
  62749.9012     0.23935E+01 
  62782.1634     0.24047E+01 
  62814.4255     0.24161E+01 
  62846.6877     0.24276E+01 
  62878.9498     0.24393E+01 
  62911.2120     0.24511E+01 
  62943.4742     0.24632E+01 
  62975.7363     0.24754E+01 
  63007.9985     0.24877E+01 
  63040.2606     0.25003E+01 
  63072.5228     0.25130E+01 
  63104.7850     0.25259E+01 
  63137.0471     0.25389E+01 
  63169.3093     0.25521E+01 
  63201.5714     0.25656E+01 
  63233.8336     0.25791E+01 
  63266.0958     0.25929E+01 
  63298.3579     0.26068E+01 
  63330.6201     0.26209E+01 
  63362.8822     0.26352E+01 
  63395.1444     0.26497E+01 
  63427.4066     0.26644E+01 
  63459.6687     0.26792E+01 
  63491.9309     0.26942E+01 
  63524.1930     0.27095E+01 
  63556.4552     0.27248E+01 
  63588.7174     0.27404E+01 
  63620.9795     0.27562E+01 
  63653.2417     0.27722E+01 
  63685.5038     0.27883E+01 
  63717.7660     0.28046E+01 
  63750.0282     0.28212E+01 
  63782.2903     0.28379E+01 
  63814.5525     0.28548E+01 
  63846.8146     0.28719E+01 
  63879.0768     0.28892E+01 
  63911.3390     0.29067E+01 
  63943.6011     0.29244E+01 
  63975.8633     0.29423E+01 
  64008.1254     0.29604E+01 
  64040.3876     0.29787E+01 
  64072.6498     0.29971E+01 
  64104.9119     0.30158E+01 
  64137.1741     0.30347E+01 
  64169.4362     0.30538E+01 
  64201.6984     0.30731E+01 
  64233.9606     0.30926E+01 
  64266.2227     0.31123E+01 
  64298.4849     0.31322E+01 
  64330.7470     0.31523E+01 
  64363.0092     0.31727E+01 
  64395.2714     0.31932E+01 
  64427.5335     0.32139E+01 
  64459.7957     0.32349E+01 
  64492.0578     0.32561E+01 
  64524.3200     0.32774E+01 
  64556.5822     0.32990E+01 
  64588.8443     0.33208E+01 
  64621.1065     0.33428E+01 
  64653.3686     0.33651E+01 
  64685.6308     0.33875E+01 
  64717.8930     0.34102E+01 
  64750.1551     0.34331E+01 
  64782.4173     0.34562E+01 
  64814.6794     0.34795E+01 
  64846.9416     0.35031E+01 
  64879.2038     0.35269E+01 
  64911.4659     0.35509E+01 
  64943.7281     0.35751E+01 
  64975.9902     0.35995E+01 
  65008.2524     0.36242E+01 
  65040.5146     0.36491E+01 
  65072.7767     0.36742E+01 
  65105.0389     0.36996E+01 
  65137.3010     0.37251E+01 
  65169.5632     0.37509E+01 
  65201.8254     0.37770E+01 
  65234.0875     0.38033E+01 
  65266.3497     0.38298E+01 
  65298.6118     0.38565E+01 
  65330.8740     0.38835E+01 
  65363.1362     0.39107E+01 
  65395.3983     0.39381E+01 
  65427.6605     0.39658E+01 
  65459.9226     0.39937E+01 
  65492.1848     0.40219E+01 
  65524.4470     0.40503E+01 
  65556.7091     0.40789E+01 
  65588.9713     0.41078E+01 
  65621.2334     0.41369E+01 
  65653.4956     0.41662E+01 
  65685.7578     0.41958E+01 
  65718.0199     0.42257E+01 
  65750.2821     0.42557E+01 
  65782.5442     0.42861E+01 
  65814.8064     0.43167E+01 
  65847.0686     0.43475E+01 
  65879.3307     0.43785E+01 
  65911.5929     0.44099E+01 
  65943.8550     0.44414E+01 
  65976.1172     0.44733E+01 
  66008.3794     0.45053E+01 
  66040.6415     0.45376E+01 
  66072.9037     0.45702E+01 
  66105.1658     0.46030E+01 
  66137.4280     0.46361E+01 
  66169.6902     0.46695E+01 
  66201.9523     0.47030E+01 
  66234.2145     0.47369E+01 
  66266.4766     0.47710E+01 
  66298.7388     0.48053E+01 
  66331.0010     0.48400E+01 
  66363.2631     0.48748E+01 
  66395.5253     0.49100E+01 
  66427.7874     0.49454E+01 
  66460.0496     0.49810E+01 
  66492.3118     0.50169E+01 
  66524.5739     0.50531E+01 
  66556.8361     0.50896E+01 
  66589.0982     0.51263E+01 
  66621.3604     0.51632E+01 
  66653.6226     0.52005E+01 
  66685.8847     0.52380E+01 
  66718.1469     0.52757E+01 
  66750.4090     0.53138E+01 
  66782.6712     0.53521E+01 
  66814.9334     0.53906E+01 
  66847.1955     0.54295E+01 
  66879.4577     0.54686E+01 
  66911.7198     0.55080E+01 
  66943.9820     0.55476E+01 
  66976.2442     0.55875E+01 
  67008.5063     0.56277E+01 
  67040.7685     0.56682E+01 
  67073.0306     0.57089E+01 
  67105.2928     0.57499E+01 
  67137.5550     0.57912E+01 
  67169.8171     0.58328E+01 
  67202.0793     0.58746E+01 
  67234.3414     0.59167E+01 
  67266.6036     0.59591E+01 
  67298.8658     0.60018E+01 
  67331.1279     0.60447E+01 
  67363.3901     0.60880E+01 
  67395.6522     0.61315E+01 
  67427.9144     0.61752E+01 
  67460.1766     0.62193E+01 
  67492.4387     0.62636E+01 
  67524.7009     0.63083E+01 
  67556.9630     0.63532E+01 
  67589.2252     0.63983E+01 
  67621.4874     0.64438E+01 
  67653.7495     0.64896E+01 
  67686.0117     0.65356E+01 
  67718.2738     0.65819E+01 
  67750.5360     0.66285E+01 
  67782.7982     0.66754E+01 
  67815.0603     0.67226E+01 
  67847.3225     0.67700E+01 
  67879.5846     0.68177E+01 
  67911.8468     0.68658E+01 
  67944.1090     0.69141E+01 
  67976.3711     0.69627E+01 
  68008.6333     0.70116E+01 
  68040.8954     0.70608E+01 
  68073.1576     0.71102E+01 
  68105.4198     0.71600E+01 
  68137.6819     0.72100E+01 
  68169.9441     0.72603E+01 
  68202.2062     0.73110E+01 
  68234.4684     0.73619E+01 
  68266.7306     0.74131E+01 
  68298.9927     0.74646E+01 
  68331.2549     0.75164E+01 
  68363.5170     0.75684E+01 
  68395.7792     0.76208E+01 
  68428.0414     0.76735E+01 
  68460.3035     0.77264E+01 
  68492.5657     0.77796E+01 
  68524.8278     0.78332E+01 
  68557.0900     0.78870E+01 
  68589.3522     0.79411E+01 
  68621.6143     0.79955E+01 
  68653.8765     0.80503E+01 
  68686.1386     0.81053E+01 
  68718.4008     0.81606E+01 
  68750.6630     0.82161E+01 
  68782.9251     0.82720E+01 
  68815.1873     0.83282E+01 
  68847.4494     0.83847E+01 
  68879.7116     0.84415E+01 
  68911.9738     0.84985E+01 
  68944.2359     0.85559E+01 
  68976.4981     0.86135E+01 
  69008.7602     0.86715E+01 
  69041.0224     0.87297E+01 
  69073.2846     0.87883E+01 
  69105.5467     0.88471E+01 
  69137.8089     0.89062E+01 
  69170.0710     0.89657E+01 
  69202.3332     0.90254E+01 
  69234.5954     0.90854E+01 
  69266.8575     0.91457E+01 
  69299.1197     0.92063E+01 
  69331.3818     0.92672E+01 
  69363.6440     0.93284E+01 
  69395.9062     0.93899E+01 
  69428.1683     0.94517E+01 
  69460.4305     0.95138E+01 
  69492.6926     0.95762E+01 
  69524.9548     0.96389E+01 
  69557.2170     0.97019E+01 
  69589.4791     0.97652E+01 
  69621.7413     0.98287E+01 
  69654.0034     0.98926E+01 
  69686.2656     0.99567E+01 
  69718.5278     0.10021E+02 
  69750.7899     0.10086E+02 
  69783.0521     0.10151E+02 
  69815.3142     0.10216E+02 
  69847.5764     0.10282E+02 
  69879.8386     0.10348E+02 
  69912.1007     0.10414E+02 
  69944.3629     0.10481E+02 
  69976.6250     0.10547E+02 
  70008.8872     0.10615E+02 
  70041.1494     0.10682E+02 
  70073.4115     0.10750E+02 
  70105.6737     0.10818E+02 
  70137.9358     0.10886E+02 
  70170.1980     0.10955E+02 
  70202.4602     0.11023E+02 
  70234.7223     0.11093E+02 
  70266.9845     0.11162E+02 
  70299.2466     0.11232E+02 
  70331.5088     0.11302E+02 
  70363.7710     0.11372E+02 
  70396.0331     0.11443E+02 
  70428.2953     0.11514E+02 
  70460.5574     0.11585E+02 
  70492.8196     0.11656E+02 
  70525.0818     0.11728E+02 
  70557.3439     0.11800E+02 
  70589.6061     0.11872E+02 
  70621.8682     0.11945E+02 
  70654.1304     0.12018E+02 
  70686.3926     0.12091E+02 
  70718.6547     0.12165E+02 
  70750.9169     0.12238E+02 
  70783.1790     0.12313E+02 
  70815.4412     0.12387E+02 
  70847.7034     0.12461E+02 
  70879.9655     0.12536E+02 
  70912.2277     0.12612E+02 
  70944.4898     0.12687E+02 
  70976.7520     0.12763E+02 
  71009.0142     0.12839E+02 
  71041.2763     0.12915E+02 
  71073.5385     0.12992E+02 
  71105.8006     0.13069E+02 
  71138.0628     0.13146E+02 
  71170.3250     0.13223E+02 
  71202.5871     0.13301E+02 
  71234.8493     0.13379E+02 
  71267.1114     0.13457E+02 
  71299.3736     0.13536E+02 
  71331.6358     0.13615E+02 
  71363.8979     0.13694E+02 
  71396.1601     0.13773E+02 
  71428.4222     0.13853E+02 
  71460.6844     0.13933E+02 
  71492.9466     0.14013E+02 
  71525.2087     0.14093E+02 
  71557.4709     0.14174E+02 
  71589.7330     0.14255E+02 
  71621.9952     0.14336E+02 
  71654.2574     0.14418E+02 
  71686.5195     0.14499E+02 
  71718.7817     0.14582E+02 
  71751.0438     0.14664E+02 
  71783.3060     0.14746E+02 
  71815.5682     0.14829E+02 
  71847.8303     0.14912E+02 
  71880.0925     0.14996E+02 
  71912.3546     0.15079E+02 
  71944.6168     0.15163E+02 
  71976.8790     0.15247E+02 
  72009.1411     0.15332E+02 
  72041.4033     0.15416E+02 
  72073.6654     0.15501E+02 
  72105.9276     0.15586E+02 
  72138.1898     0.15672E+02 
  72170.4519     0.15757E+02 
  72202.7141     0.15843E+02 
  72234.9762     0.15930E+02 
  72267.2384     0.16016E+02 
  72299.5006     0.16103E+02 
  72331.7627     0.16189E+02 
  72364.0249     0.16277E+02 
  72396.2870     0.16364E+02 
  72428.5492     0.16452E+02 
  72460.8114     0.16539E+02 
  72493.0735     0.16628E+02 
  72525.3357     0.16716E+02 
  72557.5978     0.16804E+02 
  72589.8600     0.16893E+02 
