  32262.1600     0.27833E-07 
  32294.4222     0.28081E-07 
  32326.6843     0.28331E-07 
  32358.9465     0.28582E-07 
  32391.2086     0.28834E-07 
  32423.4708     0.29087E-07 
  32455.7330     0.29342E-07 
  32487.9951     0.29599E-07 
  32520.2573     0.29856E-07 
  32552.5194     0.30115E-07 
  32584.7816     0.30375E-07 
  32617.0438     0.30636E-07 
  32649.3059     0.30899E-07 
  32681.5681     0.31163E-07 
  32713.8302     0.31429E-07 
  32746.0924     0.31695E-07 
  32778.3546     0.31963E-07 
  32810.6167     0.32232E-07 
  32842.8789     0.32502E-07 
  32875.1410     0.32774E-07 
  32907.4032     0.33047E-07 
  32939.6654     0.33321E-07 
  32971.9275     0.33597E-07 
  33004.1897     0.33873E-07 
  33036.4518     0.34151E-07 
  33068.7140     0.34431E-07 
  33100.9762     0.34711E-07 
  33133.2383     0.34993E-07 
  33165.5005     0.35276E-07 
  33197.7626     0.35560E-07 
  33230.0248     0.35845E-07 
  33262.2870     0.36132E-07 
  33294.5491     0.36419E-07 
  33326.8113     0.36708E-07 
  33359.0734     0.36998E-07 
  33391.3356     0.37290E-07 
  33423.5978     0.37582E-07 
  33455.8599     0.37876E-07 
  33488.1221     0.38171E-07 
  33520.3842     0.38467E-07 
  33552.6464     0.38764E-07 
  33584.9086     0.39062E-07 
  33617.1707     0.39361E-07 
  33649.4329     0.39662E-07 
  33681.6950     0.39964E-07 
  33713.9572     0.40267E-07 
  33746.2194     0.40570E-07 
  33778.4815     0.40876E-07 
  33810.7437     0.41182E-07 
  33843.0058     0.41489E-07 
  33875.2680     0.41797E-07 
  33907.5302     0.42107E-07 
  33939.7923     0.42417E-07 
  33972.0545     0.42728E-07 
  34004.3166     0.43041E-07 
  34036.5788     0.43355E-07 
  34068.8410     0.43669E-07 
  34101.1031     0.43985E-07 
  34133.3653     0.44302E-07 
  34165.6274     0.44619E-07 
  34197.8896     0.44938E-07 
  34230.1518     0.45258E-07 
  34262.4139     0.45578E-07 
  34294.6761     0.45900E-07 
  34326.9382     0.46222E-07 
  34359.2004     0.46546E-07 
  34391.4626     0.46870E-07 
  34423.7247     0.47196E-07 
  34455.9869     0.47522E-07 
  34488.2490     0.47850E-07 
  34520.5112     0.48178E-07 
  34552.7734     0.48507E-07 
  34585.0355     0.48837E-07 
  34617.2977     0.49167E-07 
  34649.5598     0.49499E-07 
  34681.8220     0.49832E-07 
  34714.0842     0.50165E-07 
  34746.3463     0.50499E-07 
  34778.6085     0.50834E-07 
  34810.8706     0.51170E-07 
  34843.1328     0.51507E-07 
  34875.3950     0.51844E-07 
  34907.6571     0.52182E-07 
  34939.9193     0.52521E-07 
  34972.1814     0.52861E-07 
  35004.4436     0.53202E-07 
  35036.7058     0.53543E-07 
  35068.9679     0.53885E-07 
  35101.2301     0.54227E-07 
  35133.4922     0.54571E-07 
  35165.7544     0.54915E-07 
  35198.0166     0.55259E-07 
  35230.2787     0.55605E-07 
  35262.5409     0.55951E-07 
  35294.8030     0.56297E-07 
  35327.0652     0.56645E-07 
  35359.3274     0.56993E-07 
  35391.5895     0.57341E-07 
  35423.8517     0.57690E-07 
  35456.1138     0.58040E-07 
  35488.3760     0.58390E-07 
  35520.6382     0.58741E-07 
  35552.9003     0.59092E-07 
  35585.1625     0.59444E-07 
  35617.4246     0.59796E-07 
  35649.6868     0.60149E-07 
  35681.9490     0.60502E-07 
  35714.2111     0.60856E-07 
  35746.4733     0.61210E-07 
  35778.7354     0.61565E-07 
  35810.9976     0.61920E-07 
  35843.2598     0.62275E-07 
  35875.5219     0.62631E-07 
  35907.7841     0.62987E-07 
  35940.0462     0.63344E-07 
  35972.3084     0.63701E-07 
  36004.5706     0.64058E-07 
  36036.8327     0.64416E-07 
  36069.0949     0.64774E-07 
  36101.3570     0.65132E-07 
  36133.6192     0.65491E-07 
  36165.8814     0.65850E-07 
  36198.1435     0.66209E-07 
  36230.4057     0.66568E-07 
  36262.6678     0.66928E-07 
  36294.9300     0.67288E-07 
  36327.1922     0.67648E-07 
  36359.4543     0.68008E-07 
  36391.7165     0.68368E-07 
  36423.9786     0.68729E-07 
  36456.2408     0.69089E-07 
  36488.5030     0.69450E-07 
  36520.7651     0.69811E-07 
  36553.0273     0.70172E-07 
  36585.2894     0.70533E-07 
  36617.5516     0.70894E-07 
  36649.8138     0.71255E-07 
  36682.0759     0.71616E-07 
  36714.3381     0.71977E-07 
  36746.6002     0.72339E-07 
  36778.8624     0.72700E-07 
  36811.1246     0.73061E-07 
  36843.3867     0.73422E-07 
  36875.6489     0.73783E-07 
  36907.9110     0.74144E-07 
  36940.1732     0.74505E-07 
  36972.4354     0.74866E-07 
  37004.6975     0.75226E-07 
  37036.9597     0.75587E-07 
  37069.2218     0.75947E-07 
  37101.4840     0.76308E-07 
  37133.7462     0.76668E-07 
  37166.0083     0.77027E-07 
  37198.2705     0.77387E-07 
  37230.5326     0.77746E-07 
  37262.7948     0.78105E-07 
  37295.0570     0.78464E-07 
  37327.3191     0.78823E-07 
  37359.5813     0.79181E-07 
  37391.8434     0.79539E-07 
  37424.1056     0.79897E-07 
  37456.3678     0.80254E-07 
  37488.6299     0.80611E-07 
  37520.8921     0.80967E-07 
  37553.1542     0.81323E-07 
  37585.4164     0.81679E-07 
  37617.6786     0.82034E-07 
  37649.9407     0.82389E-07 
  37682.2029     0.82743E-07 
  37714.4650     0.83097E-07 
  37746.7272     0.83451E-07 
  37778.9894     0.83804E-07 
  37811.2515     0.84156E-07 
  37843.5137     0.84508E-07 
  37875.7758     0.84859E-07 
  37908.0380     0.85210E-07 
  37940.3002     0.85560E-07 
  37972.5623     0.85909E-07 
  38004.8245     0.86258E-07 
  38037.0866     0.86606E-07 
  38069.3488     0.86954E-07 
  38101.6110     0.87301E-07 
  38133.8731     0.87647E-07 
  38166.1353     0.87992E-07 
  38198.3974     0.88337E-07 
  38230.6596     0.88681E-07 
  38262.9218     0.89025E-07 
  38295.1839     0.89367E-07 
  38327.4461     0.89709E-07 
  38359.7082     0.90050E-07 
  38391.9704     0.90390E-07 
  38424.2326     0.90729E-07 
  38456.4947     0.91068E-07 
  38488.7569     0.91405E-07 
  38521.0190     0.91742E-07 
  38553.2812     0.92078E-07 
  38585.5434     0.92412E-07 
  38617.8055     0.92746E-07 
  38650.0677     0.93079E-07 
  38682.3298     0.93411E-07 
  38714.5920     0.93742E-07 
  38746.8542     0.94072E-07 
  38779.1163     0.94401E-07 
  38811.3785     0.94730E-07 
  38843.6406     0.95056E-07 
  38875.9028     0.95382E-07 
  38908.1650     0.95707E-07 
  38940.4271     0.96031E-07 
  38972.6893     0.96354E-07 
  39004.9514     0.96675E-07 
  39037.2136     0.96996E-07 
  39069.4758     0.97315E-07 
  39101.7379     0.97633E-07 
  39134.0001     0.97950E-07 
  39166.2622     0.98266E-07 
  39198.5244     0.98580E-07 
  39230.7866     0.98893E-07 
  39263.0487     0.99205E-07 
  39295.3109     0.99516E-07 
  39327.5730     0.99826E-07 
  39359.8352     0.10013E-06 
  39392.0974     0.10044E-06 
  39424.3595     0.10075E-06 
  39456.6217     0.10105E-06 
  39488.8838     0.10135E-06 
  39521.1460     0.10166E-06 
  39553.4082     0.10196E-06 
  39585.6703     0.10225E-06 
  39617.9325     0.10255E-06 
  39650.1946     0.10285E-06 
  39682.4568     0.10314E-06 
  39714.7190     0.10344E-06 
  39746.9811     0.10373E-06 
  39779.2433     0.10402E-06 
  39811.5054     0.10431E-06 
  39843.7676     0.10459E-06 
  39876.0298     0.10488E-06 
  39908.2919     0.10516E-06 
  39940.5541     0.10545E-06 
  39972.8162     0.10573E-06 
  40005.0784     0.10601E-06 
  40037.3406     0.10628E-06 
  40069.6027     0.10656E-06 
  40101.8649     0.10684E-06 
  40134.1270     0.10711E-06 
  40166.3892     0.10738E-06 
  40198.6514     0.10765E-06 
  40230.9135     0.10792E-06 
  40263.1757     0.10818E-06 
  40295.4378     0.10845E-06 
  40327.7000     0.10871E-06 
  40359.9622     0.10897E-06 
  40392.2243     0.10923E-06 
  40424.4865     0.10949E-06 
  40456.7486     0.10975E-06 
  40489.0108     0.11000E-06 
  40521.2730     0.11025E-06 
  40553.5351     0.11051E-06 
  40585.7973     0.11075E-06 
  40618.0594     0.11100E-06 
  40650.3216     0.11125E-06 
  40682.5838     0.11149E-06 
  40714.8459     0.11173E-06 
  40747.1081     0.11197E-06 
  40779.3702     0.11221E-06 
  40811.6324     0.11245E-06 
  40843.8946     0.11268E-06 
  40876.1567     0.11291E-06 
  40908.4189     0.11314E-06 
  40940.6810     0.11337E-06 
  40972.9432     0.11360E-06 
  41005.2054     0.11382E-06 
  41037.4675     0.11405E-06 
  41069.7297     0.11427E-06 
  41101.9918     0.11449E-06 
  41134.2540     0.11470E-06 
  41166.5162     0.11492E-06 
  41198.7783     0.11513E-06 
  41231.0405     0.11534E-06 
  41263.3026     0.11555E-06 
  41295.5648     0.11576E-06 
  41327.8270     0.11596E-06 
  41360.0891     0.11617E-06 
  41392.3513     0.11637E-06 
  41424.6134     0.11656E-06 
  41456.8756     0.11676E-06 
  41489.1378     0.11696E-06 
  41521.3999     0.11715E-06 
  41553.6621     0.11734E-06 
  41585.9242     0.11753E-06 
  41618.1864     0.11771E-06 
  41650.4486     0.11790E-06 
  41682.7107     0.11808E-06 
  41714.9729     0.11826E-06 
  41747.2350     0.11844E-06 
  41779.4972     0.11861E-06 
  41811.7594     0.11878E-06 
  41844.0215     0.11896E-06 
  41876.2837     0.11912E-06 
  41908.5458     0.11929E-06 
  41940.8080     0.11946E-06 
  41973.0702     0.11962E-06 
  42005.3323     0.11978E-06 
  42037.5945     0.11994E-06 
  42069.8566     0.12009E-06 
  42102.1188     0.12024E-06 
  42134.3810     0.12040E-06 
  42166.6431     0.12054E-06 
  42198.9053     0.12069E-06 
  42231.1674     0.12084E-06 
  42263.4296     0.12098E-06 
  42295.6918     0.12112E-06 
  42327.9539     0.12126E-06 
  42360.2161     0.12139E-06 
  42392.4782     0.12152E-06 
  42424.7404     0.12166E-06 
  42457.0026     0.12178E-06 
  42489.2647     0.12191E-06 
  42521.5269     0.12203E-06 
  42553.7890     0.12216E-06 
  42586.0512     0.12228E-06 
  42618.3134     0.12239E-06 
  42650.5755     0.12251E-06 
  42682.8377     0.12262E-06 
  42715.0998     0.12273E-06 
  42747.3620     0.12284E-06 
  42779.6242     0.12294E-06 
  42811.8863     0.12305E-06 
  42844.1485     0.12315E-06 
  42876.4106     0.12325E-06 
  42908.6728     0.12334E-06 
  42940.9350     0.12344E-06 
  42973.1971     0.12353E-06 
  43005.4593     0.12362E-06 
  43037.7214     0.12370E-06 
  43069.9836     0.12379E-06 
  43102.2458     0.12387E-06 
  43134.5079     0.12395E-06 
  43166.7701     0.12403E-06 
  43199.0322     0.12410E-06 
  43231.2944     0.12417E-06 
  43263.5566     0.12424E-06 
  43295.8187     0.12431E-06 
  43328.0809     0.12438E-06 
  43360.3430     0.12444E-06 
  43392.6052     0.12450E-06 
  43424.8674     0.12456E-06 
  43457.1295     0.12462E-06 
  43489.3917     0.12467E-06 
  43521.6538     0.12472E-06 
  43553.9160     0.12477E-06 
  43586.1782     0.12482E-06 
  43618.4403     0.12486E-06 
  43650.7025     0.12490E-06 
  43682.9646     0.12494E-06 
  43715.2268     0.12498E-06 
  43747.4890     0.12501E-06 
  43779.7511     0.12505E-06 
  43812.0133     0.12508E-06 
  43844.2754     0.12510E-06 
  43876.5376     0.12513E-06 
  43908.7998     0.12515E-06 
  43941.0619     0.12517E-06 
  43973.3241     0.12519E-06 
  44005.5862     0.12521E-06 
  44037.8484     0.12522E-06 
  44070.1106     0.12523E-06 
  44102.3727     0.12524E-06 
  44134.6349     0.12524E-06 
  44166.8970     0.12525E-06 
  44199.1592     0.12525E-06 
  44231.4214     0.12525E-06 
  44263.6835     0.12525E-06 
  44295.9457     0.12524E-06 
  44328.2078     0.12523E-06 
  44360.4700     0.12522E-06 
  44392.7322     0.12521E-06 
  44424.9943     0.12520E-06 
  44457.2565     0.12518E-06 
  44489.5186     0.12516E-06 
  44521.7808     0.12514E-06 
  44554.0430     0.12511E-06 
  44586.3051     0.12509E-06 
  44618.5673     0.12506E-06 
  44650.8294     0.12503E-06 
  44683.0916     0.12499E-06 
  44715.3538     0.12496E-06 
  44747.6159     0.12492E-06 
  44779.8781     0.12488E-06 
  44812.1402     0.12483E-06 
  44844.4024     0.12479E-06 
  44876.6646     0.12474E-06 
  44908.9267     0.12469E-06 
  44941.1889     0.12464E-06 
  44973.4510     0.12459E-06 
  45005.7132     0.12453E-06 
  45037.9754     0.12447E-06 
  45070.2375     0.12441E-06 
  45102.4997     0.12435E-06 
  45134.7618     0.12428E-06 
  45167.0240     0.12421E-06 
  45199.2862     0.12414E-06 
  45231.5483     0.12407E-06 
  45263.8105     0.12400E-06 
  45296.0726     0.12392E-06 
  45328.3348     0.12384E-06 
  45360.5970     0.12376E-06 
  45392.8591     0.12368E-06 
  45425.1213     0.12359E-06 
  45457.3834     0.12351E-06 
  45489.6456     0.12342E-06 
  45521.9078     0.12332E-06 
  45554.1699     0.12323E-06 
  45586.4321     0.12313E-06 
  45618.6942     0.12304E-06 
  45650.9564     0.12293E-06 
  45683.2186     0.12283E-06 
  45715.4807     0.12273E-06 
  45747.7429     0.12262E-06 
  45780.0050     0.12251E-06 
  45812.2672     0.12240E-06 
  45844.5294     0.12229E-06 
  45876.7915     0.12217E-06 
  45909.0537     0.12205E-06 
  45941.3158     0.12193E-06 
  45973.5780     0.12181E-06 
  46005.8402     0.12169E-06 
  46038.1023     0.12156E-06 
  46070.3645     0.12144E-06 
  46102.6266     0.12131E-06 
  46134.8888     0.12117E-06 
  46167.1510     0.12104E-06 
  46199.4131     0.12090E-06 
  46231.6753     0.12077E-06 
  46263.9374     0.12063E-06 
  46296.1996     0.12048E-06 
  46328.4618     0.12034E-06 
  46360.7239     0.12019E-06 
  46392.9861     0.12005E-06 
  46425.2482     0.11990E-06 
  46457.5104     0.11974E-06 
  46489.7726     0.11959E-06 
  46522.0347     0.11944E-06 
  46554.2969     0.11928E-06 
  46586.5590     0.11912E-06 
  46618.8212     0.11896E-06 
  46651.0834     0.11879E-06 
  46683.3455     0.11863E-06 
  46715.6077     0.11846E-06 
  46747.8698     0.11829E-06 
  46780.1320     0.11812E-06 
  46812.3942     0.11795E-06 
  46844.6563     0.11777E-06 
  46876.9185     0.11760E-06 
  46909.1806     0.11742E-06 
  46941.4428     0.11724E-06 
  46973.7050     0.11706E-06 
  47005.9671     0.11688E-06 
  47038.2293     0.11669E-06 
  47070.4914     0.11650E-06 
  47102.7536     0.11631E-06 
  47135.0158     0.11612E-06 
  47167.2779     0.11593E-06 
  47199.5401     0.11574E-06 
  47231.8022     0.11554E-06 
  47264.0644     0.11535E-06 
  47296.3266     0.11515E-06 
  47328.5887     0.11495E-06 
  47360.8509     0.11474E-06 
  47393.1130     0.11454E-06 
  47425.3752     0.11433E-06 
  47457.6374     0.11413E-06 
  47489.8995     0.11392E-06 
  47522.1617     0.11371E-06 
  47554.4238     0.11349E-06 
  47586.6860     0.11328E-06 
  47618.9482     0.11307E-06 
  47651.2103     0.11285E-06 
  47683.4725     0.11263E-06 
  47715.7346     0.11241E-06 
  47747.9968     0.11219E-06 
  47780.2590     0.11197E-06 
  47812.5211     0.11174E-06 
  47844.7833     0.11151E-06 
  47877.0454     0.11129E-06 
  47909.3076     0.11106E-06 
  47941.5698     0.11083E-06 
  47973.8319     0.11060E-06 
  48006.0941     0.11036E-06 
  48038.3562     0.11013E-06 
  48070.6184     0.10989E-06 
  48102.8806     0.10965E-06 
  48135.1427     0.10941E-06 
  48167.4049     0.10917E-06 
  48199.6670     0.10893E-06 
  48231.9292     0.10869E-06 
  48264.1914     0.10844E-06 
  48296.4535     0.10820E-06 
  48328.7157     0.10795E-06 
  48360.9778     0.10770E-06 
  48393.2400     0.10745E-06 
  48425.5022     0.10720E-06 
  48457.7643     0.10695E-06 
  48490.0265     0.10669E-06 
  48522.2886     0.10644E-06 
  48554.5508     0.10618E-06 
  48586.8130     0.10593E-06 
  48619.0751     0.10567E-06 
  48651.3373     0.10541E-06 
  48683.5994     0.10515E-06 
  48715.8616     0.10488E-06 
  48748.1238     0.10462E-06 
  48780.3859     0.10436E-06 
  48812.6481     0.10409E-06 
  48844.9102     0.10382E-06 
  48877.1724     0.10355E-06 
  48909.4346     0.10328E-06 
  48941.6967     0.10301E-06 
  48973.9589     0.10274E-06 
  49006.2210     0.10247E-06 
  49038.4832     0.10220E-06 
  49070.7454     0.10192E-06 
  49103.0075     0.10165E-06 
  49135.2697     0.10137E-06 
  49167.5318     0.10109E-06 
  49199.7940     0.10081E-06 
  49232.0562     0.10053E-06 
  49264.3183     0.10025E-06 
  49296.5805     0.99971E-07 
  49328.8426     0.99689E-07 
  49361.1048     0.99405E-07 
  49393.3670     0.99120E-07 
  49425.6291     0.98835E-07 
  49457.8913     0.98548E-07 
  49490.1534     0.98261E-07 
  49522.4156     0.97973E-07 
  49554.6778     0.97684E-07 
  49586.9399     0.97394E-07 
  49619.2021     0.97103E-07 
  49651.4642     0.96811E-07 
  49683.7264     0.96519E-07 
  49715.9886     0.96225E-07 
  49748.2507     0.95931E-07 
  49780.5129     0.95636E-07 
  49812.7750     0.95341E-07 
  49845.0372     0.95044E-07 
  49877.2994     0.94747E-07 
  49909.5615     0.94449E-07 
  49941.8237     0.94150E-07 
  49974.0858     0.93851E-07 
  50006.3480     0.93551E-07 
  50038.6102     0.93250E-07 
  50070.8723     0.92948E-07 
  50103.1345     0.92646E-07 
  50135.3966     0.92343E-07 
  50167.6588     0.92039E-07 
  50199.9210     0.91735E-07 
  50232.1831     0.91430E-07 
  50264.4453     0.91125E-07 
  50296.7074     0.90819E-07 
  50328.9696     0.90512E-07 
  50361.2318     0.90205E-07 
  50393.4939     0.89897E-07 
  50425.7561     0.89588E-07 
  50458.0182     0.89279E-07 
  50490.2804     0.88970E-07 
  50522.5426     0.88660E-07 
  50554.8047     0.88349E-07 
  50587.0669     0.88038E-07 
  50619.3290     0.87727E-07 
  50651.5912     0.87414E-07 
  50683.8534     0.87102E-07 
  50716.1155     0.86789E-07 
  50748.3777     0.86475E-07 
  50780.6398     0.86162E-07 
  50812.9020     0.85847E-07 
  50845.1642     0.85532E-07 
  50877.4263     0.85217E-07 
  50909.6885     0.84902E-07 
  50941.9506     0.84586E-07 
  50974.2128     0.84269E-07 
  51006.4750     0.83953E-07 
  51038.7371     0.83636E-07 
  51070.9993     0.83318E-07 
  51103.2614     0.83001E-07 
  51135.5236     0.82683E-07 
  51167.7858     0.82364E-07 
  51200.0479     0.82046E-07 
  51232.3101     0.81727E-07 
  51264.5722     0.81407E-07 
  51296.8344     0.81088E-07 
  51329.0966     0.80768E-07 
  51361.3587     0.80448E-07 
  51393.6209     0.80128E-07 
  51425.8830     0.79807E-07 
  51458.1452     0.79487E-07 
  51490.4074     0.79166E-07 
  51522.6695     0.78845E-07 
  51554.9317     0.78523E-07 
  51587.1938     0.78202E-07 
  51619.4560     0.77880E-07 
  51651.7182     0.77558E-07 
  51683.9803     0.77236E-07 
  51716.2425     0.76914E-07 
  51748.5046     0.76592E-07 
  51780.7668     0.76270E-07 
  51813.0290     0.75947E-07 
  51845.2911     0.75625E-07 
  51877.5533     0.75302E-07 
  51909.8154     0.74980E-07 
  51942.0776     0.74657E-07 
  51974.3398     0.74334E-07 
  52006.6019     0.74011E-07 
  52038.8641     0.73688E-07 
  52071.1262     0.73365E-07 
  52103.3884     0.73042E-07 
  52135.6506     0.72719E-07 
  52167.9127     0.72396E-07 
  52200.1749     0.72073E-07 
  52232.4370     0.71750E-07 
  52264.6992     0.71427E-07 
  52296.9614     0.71104E-07 
  52329.2235     0.70782E-07 
  52361.4857     0.70459E-07 
  52393.7478     0.70136E-07 
  52426.0100     0.69813E-07 
  52458.2722     0.69491E-07 
  52490.5343     0.69168E-07 
  52522.7965     0.68846E-07 
  52555.0586     0.68523E-07 
  52587.3208     0.68201E-07 
  52619.5830     0.67879E-07 
  52651.8451     0.67557E-07 
  52684.1073     0.67235E-07 
  52716.3694     0.66914E-07 
  52748.6316     0.66592E-07 
  52780.8938     0.66271E-07 
  52813.1559     0.65950E-07 
  52845.4181     0.65629E-07 
  52877.6802     0.65308E-07 
  52909.9424     0.64987E-07 
  52942.2046     0.64667E-07 
  52974.4667     0.64347E-07 
  53006.7289     0.64027E-07 
  53038.9910     0.63707E-07 
  53071.2532     0.63387E-07 
  53103.5154     0.63068E-07 
  53135.7775     0.62749E-07 
  53168.0397     0.62430E-07 
  53200.3018     0.62112E-07 
  53232.5640     0.61794E-07 
  53264.8262     0.61476E-07 
  53297.0883     0.61158E-07 
  53329.3505     0.60841E-07 
  53361.6126     0.60524E-07 
  53393.8748     0.60207E-07 
  53426.1370     0.59891E-07 
  53458.3991     0.59575E-07 
  53490.6613     0.59259E-07 
  53522.9234     0.58944E-07 
  53555.1856     0.58629E-07 
  53587.4478     0.58314E-07 
  53619.7099     0.58000E-07 
  53651.9721     0.57686E-07 
  53684.2342     0.57372E-07 
  53716.4964     0.57059E-07 
  53748.7586     0.56746E-07 
  53781.0207     0.56434E-07 
  53813.2829     0.56122E-07 
  53845.5450     0.55810E-07 
  53877.8072     0.55499E-07 
  53910.0694     0.55188E-07 
  53942.3315     0.54878E-07 
  53974.5937     0.54568E-07 
  54006.8558     0.54259E-07 
  54039.1180     0.53950E-07 
  54071.3802     0.53641E-07 
  54103.6423     0.53333E-07 
  54135.9045     0.53026E-07 
  54168.1666     0.52719E-07 
  54200.4288     0.52412E-07 
  54232.6910     0.52106E-07 
  54264.9531     0.51801E-07 
  54297.2153     0.51495E-07 
  54329.4774     0.51191E-07 
  54361.7396     0.50887E-07 
  54394.0018     0.50583E-07 
  54426.2639     0.50280E-07 
  54458.5261     0.49978E-07 
  54490.7882     0.49676E-07 
  54523.0504     0.49374E-07 
  54555.3126     0.49074E-07 
  54587.5747     0.48773E-07 
  54619.8369     0.48473E-07 
  54652.0990     0.48174E-07 
  54684.3612     0.47876E-07 
  54716.6234     0.47578E-07 
  54748.8855     0.47280E-07 
  54781.1477     0.46983E-07 
  54813.4098     0.46687E-07 
  54845.6720     0.46391E-07 
  54877.9342     0.46096E-07 
  54910.1963     0.45802E-07 
  54942.4585     0.45508E-07 
  54974.7206     0.45215E-07 
  55006.9828     0.44922E-07 
  55039.2450     0.44630E-07 
  55071.5071     0.44339E-07 
  55103.7693     0.44048E-07 
  55136.0314     0.43758E-07 
  55168.2936     0.43469E-07 
  55200.5558     0.43180E-07 
  55232.8179     0.42892E-07 
  55265.0801     0.42605E-07 
  55297.3422     0.42318E-07 
  55329.6044     0.42032E-07 
  55361.8666     0.41747E-07 
  55394.1287     0.41462E-07 
  55426.3909     0.41178E-07 
  55458.6530     0.40895E-07 
  55490.9152     0.40612E-07 
  55523.1774     0.40330E-07 
  55555.4395     0.40049E-07 
  55587.7017     0.39769E-07 
  55619.9638     0.39489E-07 
  55652.2260     0.39210E-07 
  55684.4882     0.38932E-07 
  55716.7503     0.38654E-07 
  55749.0125     0.38377E-07 
  55781.2746     0.38101E-07 
  55813.5368     0.37826E-07 
  55845.7990     0.37551E-07 
  55878.0611     0.37278E-07 
  55910.3233     0.37004E-07 
  55942.5854     0.36732E-07 
  55974.8476     0.36461E-07 
  56007.1098     0.36190E-07 
  56039.3719     0.35920E-07 
  56071.6341     0.35651E-07 
  56103.8962     0.35382E-07 
  56136.1584     0.35115E-07 
  56168.4206     0.34848E-07 
  56200.6827     0.34582E-07 
  56232.9449     0.34317E-07 
  56265.2070     0.34052E-07 
  56297.4692     0.33789E-07 
  56329.7314     0.33526E-07 
  56361.9935     0.33264E-07 
  56394.2557     0.33003E-07 
  56426.5178     0.32743E-07 
  56458.7800     0.32483E-07 
  56491.0422     0.32225E-07 
  56523.3043     0.31967E-07 
  56555.5665     0.31710E-07 
  56587.8286     0.31454E-07 
  56620.0908     0.31198E-07 
  56652.3530     0.30944E-07 
  56684.6151     0.30691E-07 
  56716.8773     0.30438E-07 
  56749.1394     0.30186E-07 
  56781.4016     0.29935E-07 
  56813.6638     0.29685E-07 
  56845.9259     0.29436E-07 
  56878.1881     0.29188E-07 
  56910.4502     0.28941E-07 
  56942.7124     0.28694E-07 
  56974.9746     0.28449E-07 
  57007.2367     0.28204E-07 
  57039.4989     0.27960E-07 
  57071.7610     0.27718E-07 
  57104.0232     0.27476E-07 
  57136.2854     0.27235E-07 
  57168.5475     0.26995E-07 
  57200.8097     0.26756E-07 
  57233.0718     0.26518E-07 
  57265.3340     0.26280E-07 
  57297.5962     0.26044E-07 
  57329.8583     0.25809E-07 
  57362.1205     0.25574E-07 
  57394.3826     0.25341E-07 
  57426.6448     0.25109E-07 
  57458.9070     0.24877E-07 
  57491.1691     0.24647E-07 
  57523.4313     0.24417E-07 
  57555.6934     0.24189E-07 
  57587.9556     0.23961E-07 
  57620.2178     0.23735E-07 
  57652.4799     0.23509E-07 
  57684.7421     0.23285E-07 
  57717.0042     0.23061E-07 
  57749.2664     0.22839E-07 
  57781.5286     0.22618E-07 
  57813.7907     0.22397E-07 
  57846.0529     0.22178E-07 
  57878.3150     0.21959E-07 
  57910.5772     0.21742E-07 
  57942.8394     0.21526E-07 
  57975.1015     0.21311E-07 
  58007.3637     0.21097E-07 
  58039.6258     0.20883E-07 
  58071.8880     0.20671E-07 
  58104.1502     0.20461E-07 
  58136.4123     0.20251E-07 
  58168.6745     0.20042E-07 
  58200.9366     0.19834E-07 
  58233.1988     0.19628E-07 
  58265.4610     0.19422E-07 
  58297.7231     0.19218E-07 
  58329.9853     0.19015E-07 
  58362.2474     0.18813E-07 
  58394.5096     0.18612E-07 
  58426.7718     0.18412E-07 
  58459.0339     0.18213E-07 
  58491.2961     0.18016E-07 
  58523.5582     0.17819E-07 
  58555.8204     0.17624E-07 
  58588.0826     0.17430E-07 
  58620.3447     0.17237E-07 
  58652.6069     0.17046E-07 
  58684.8690     0.16855E-07 
  58717.1312     0.16666E-07 
  58749.3934     0.16478E-07 
  58781.6555     0.16291E-07 
  58813.9177     0.16106E-07 
  58846.1798     0.15921E-07 
  58878.4420     0.15738E-07 
  58910.7042     0.15556E-07 
  58942.9663     0.15376E-07 
  58975.2285     0.15197E-07 
  59007.4906     0.15019E-07 
  59039.7528     0.14842E-07 
  59072.0150     0.14666E-07 
  59104.2771     0.14492E-07 
  59136.5393     0.14319E-07 
  59168.8014     0.14148E-07 
  59201.0636     0.13978E-07 
  59233.3258     0.13809E-07 
  59265.5879     0.13641E-07 
  59297.8501     0.13475E-07 
  59330.1122     0.13310E-07 
  59362.3744     0.13147E-07 
  59394.6366     0.12985E-07 
  59426.8987     0.12824E-07 
  59459.1609     0.12665E-07 
  59491.4230     0.12507E-07 
  59523.6852     0.12351E-07 
  59555.9474     0.12196E-07 
  59588.2095     0.12042E-07 
  59620.4717     0.11890E-07 
  59652.7338     0.11740E-07 
  59684.9960     0.11591E-07 
  59717.2582     0.11443E-07 
  59749.5203     0.11297E-07 
  59781.7825     0.11153E-07 
  59814.0446     0.11010E-07 
  59846.3068     0.10868E-07 
  59878.5690     0.10729E-07 
  59910.8311     0.10590E-07 
  59943.0933     0.10454E-07 
  59975.3554     0.10319E-07 
  60007.6176     0.10185E-07 
  60039.8798     0.10053E-07 
  60072.1419     0.99231E-08 
  60104.4041     0.97945E-08 
  60136.6662     0.96676E-08 
  60168.9284     0.95425E-08 
  60201.1906     0.94190E-08 
  60233.4527     0.92972E-08 
  60265.7149     0.91772E-08 
  60297.9770     0.90589E-08 
  60330.2392     0.89423E-08 
  60362.5014     0.88276E-08 
  60394.7635     0.87146E-08 
  60427.0257     0.86035E-08 
  60459.2878     0.84942E-08 
  60491.5500     0.83867E-08 
  60523.8122     0.82811E-08 
  60556.0743     0.81774E-08 
  60588.3365     0.80756E-08 
  60620.5986     0.79757E-08 
  60652.8608     0.78777E-08 
  60685.1230     0.77816E-08 
  60717.3851     0.76876E-08 
  60749.6473     0.75955E-08 
  60781.9094     0.75055E-08 
  60814.1716     0.74175E-08 
  60846.4338     0.73315E-08 
  60878.6959     0.72476E-08 
  60910.9581     0.71658E-08 
  60943.2202     0.70861E-08 
  60975.4824     0.70085E-08 
  61007.7446     0.69331E-08 
  61040.0067     0.68598E-08 
  61072.2689     0.67888E-08 
  61104.5310     0.67199E-08 
  61136.7932     0.66533E-08 
  61169.0554     0.65890E-08 
  61201.3175     0.65270E-08 
  61233.5797     0.64672E-08 
  61265.8418     0.64099E-08 
  61298.1040     0.63548E-08 
  61330.3662     0.63022E-08 
  61362.6283     0.62519E-08 
  61394.8905     0.62041E-08 
  61427.1526     0.61588E-08 
  61459.4148     0.61159E-08 
  61491.6770     0.60755E-08 
  61523.9391     0.60377E-08 
  61556.2013     0.60024E-08 
  61588.4634     0.59698E-08 
  61620.7256     0.59397E-08 
  61652.9878     0.59123E-08 
  61685.2499     0.58876E-08 
  61717.5121     0.58655E-08 
  61749.7742     0.58462E-08 
  61782.0364     0.58297E-08 
  61814.2986     0.58159E-08 
  61846.5607     0.58050E-08 
  61878.8229     0.57969E-08 
  61911.0850     0.57917E-08 
  61943.3472     0.57894E-08 
  61975.6094     0.57901E-08 
  62007.8715     0.57937E-08 
  62040.1337     0.58004E-08 
  62072.3958     0.58101E-08 
  62104.6580     0.58228E-08 
  62136.9202     0.58387E-08 
  62169.1823     0.58577E-08 
  62201.4445     0.58798E-08 
  62233.7066     0.59052E-08 
  62265.9688     0.59338E-08 
  62298.2310     0.59658E-08 
  62330.4931     0.60010E-08 
  62362.7553     0.60396E-08 
  62395.0174     0.60815E-08 
  62427.2796     0.61269E-08 
  62459.5418     0.61758E-08 
  62491.8039     0.62281E-08 
  62524.0661     0.62840E-08 
  62556.3282     0.63435E-08 
  62588.5904     0.64066E-08 
  62620.8526     0.64733E-08 
  62653.1147     0.65438E-08 
  62685.3769     0.66179E-08 
  62717.6390     0.66959E-08 
  62749.9012     0.67777E-08 
  62782.1634     0.68633E-08 
  62814.4255     0.69529E-08 
  62846.6877     0.70464E-08 
  62878.9498     0.71438E-08 
  62911.2120     0.72454E-08 
  62943.4742     0.73510E-08 
  62975.7363     0.74607E-08 
  63007.9985     0.75746E-08 
  63040.2606     0.76927E-08 
  63072.5228     0.78150E-08 
  63104.7850     0.79417E-08 
  63137.0471     0.80727E-08 
  63169.3093     0.82081E-08 
  63201.5714     0.83480E-08 
  63233.8336     0.84923E-08 
  63266.0958     0.86412E-08 
  63298.3579     0.87947E-08 
  63330.6201     0.89528E-08 
  63362.8822     0.91157E-08 
  63395.1444     0.92832E-08 
  63427.4066     0.94556E-08 
  63459.6687     0.96328E-08 
  63491.9309     0.98149E-08 
  63524.1930     0.10002E-07 
  63556.4552     0.10194E-07 
  63588.7174     0.10391E-07 
  63620.9795     0.10593E-07 
  63653.2417     0.10801E-07 
  63685.5038     0.11013E-07 
  63717.7660     0.11231E-07 
  63750.0282     0.11454E-07 
  63782.2903     0.11683E-07 
  63814.5525     0.11917E-07 
  63846.8146     0.12157E-07 
  63879.0768     0.12402E-07 
  63911.3390     0.12652E-07 
  63943.6011     0.12909E-07 
  63975.8633     0.13171E-07 
  64008.1254     0.13439E-07 
  64040.3876     0.13713E-07 
  64072.6498     0.13992E-07 
  64104.9119     0.14278E-07 
  64137.1741     0.14570E-07 
  64169.4362     0.14868E-07 
  64201.6984     0.15172E-07 
  64233.9606     0.15482E-07 
  64266.2227     0.15798E-07 
  64298.4849     0.16121E-07 
  64330.7470     0.16450E-07 
  64363.0092     0.16786E-07 
  64395.2714     0.17128E-07 
  64427.5335     0.17477E-07 
  64459.7957     0.17833E-07 
  64492.0578     0.18195E-07 
  64524.3200     0.18564E-07 
  64556.5822     0.18940E-07 
  64588.8443     0.19323E-07 
  64621.1065     0.19713E-07 
  64653.3686     0.20110E-07 
  64685.6308     0.20515E-07 
  64717.8930     0.20926E-07 
  64750.1551     0.21345E-07 
  64782.4173     0.21771E-07 
  64814.6794     0.22205E-07 
  64846.9416     0.22646E-07 
  64879.2038     0.23094E-07 
  64911.4659     0.23551E-07 
  64943.7281     0.24015E-07 
  64975.9902     0.24487E-07 
  65008.2524     0.24967E-07 
  65040.5146     0.25454E-07 
  65072.7767     0.25950E-07 
  65105.0389     0.26454E-07 
  65137.3010     0.26966E-07 
  65169.5632     0.27486E-07 
  65201.8254     0.28015E-07 
  65234.0875     0.28552E-07 
  65266.3497     0.29097E-07 
  65298.6118     0.29651E-07 
  65330.8740     0.30214E-07 
  65363.1362     0.30786E-07 
  65395.3983     0.31366E-07 
  65427.6605     0.31955E-07 
  65459.9226     0.32553E-07 
  65492.1848     0.33160E-07 
  65524.4470     0.33777E-07 
  65556.7091     0.34402E-07 
  65588.9713     0.35037E-07 
  65621.2334     0.35681E-07 
  65653.4956     0.36335E-07 
  65685.7578     0.36998E-07 
  65718.0199     0.37670E-07 
  65750.2821     0.38353E-07 
  65782.5442     0.39045E-07 
  65814.8064     0.39747E-07 
  65847.0686     0.40459E-07 
  65879.3307     0.41181E-07 
  65911.5929     0.41914E-07 
  65943.8550     0.42656E-07 
  65976.1172     0.43409E-07 
  66008.3794     0.44172E-07 
  66040.6415     0.44945E-07 
  66072.9037     0.45729E-07 
  66105.1658     0.46524E-07 
  66137.4280     0.47330E-07 
  66169.6902     0.48146E-07 
  66201.9523     0.48973E-07 
  66234.2145     0.49811E-07 
  66266.4766     0.50660E-07 
  66298.7388     0.51521E-07 
  66331.0010     0.52392E-07 
  66363.2631     0.53275E-07 
  66395.5253     0.54170E-07 
  66427.7874     0.55076E-07 
  66460.0496     0.55993E-07 
  66492.3118     0.56922E-07 
  66524.5739     0.57864E-07 
  66556.8361     0.58816E-07 
  66589.0982     0.59781E-07 
  66621.3604     0.60758E-07 
  66653.6226     0.61747E-07 
  66685.8847     0.62749E-07 
  66718.1469     0.63762E-07 
  66750.4090     0.64788E-07 
  66782.6712     0.65827E-07 
  66814.9334     0.66878E-07 
  66847.1955     0.67942E-07 
  66879.4577     0.69019E-07 
  66911.7198     0.70108E-07 
  66943.9820     0.71211E-07 
  66976.2442     0.72326E-07 
  67008.5063     0.73455E-07 
  67040.7685     0.74597E-07 
  67073.0306     0.75752E-07 
  67105.2928     0.76921E-07 
  67137.5550     0.78103E-07 
  67169.8171     0.79299E-07 
  67202.0793     0.80509E-07 
  67234.3414     0.81732E-07 
  67266.6036     0.82969E-07 
  67298.8658     0.84221E-07 
  67331.1279     0.85486E-07 
  67363.3901     0.86765E-07 
  67395.6522     0.88059E-07 
  67427.9144     0.89367E-07 
  67460.1766     0.90690E-07 
  67492.4387     0.92027E-07 
  67524.7009     0.93378E-07 
  67556.9630     0.94745E-07 
  67589.2252     0.96126E-07 
  67621.4874     0.97522E-07 
  67653.7495     0.98933E-07 
  67686.0117     0.10036E-06 
  67718.2738     0.10180E-06 
  67750.5360     0.10326E-06 
  67782.7982     0.10473E-06 
  67815.0603     0.10622E-06 
  67847.3225     0.10772E-06 
  67879.5846     0.10924E-06 
  67911.8468     0.11077E-06 
  67944.1090     0.11232E-06 
  67976.3711     0.11389E-06 
  68008.6333     0.11547E-06 
  68040.8954     0.11707E-06 
  68073.1576     0.11868E-06 
  68105.4198     0.12031E-06 
  68137.6819     0.12196E-06 
  68169.9441     0.12362E-06 
  68202.2062     0.12530E-06 
  68234.4684     0.12700E-06 
  68266.7306     0.12871E-06 
  68298.9927     0.13044E-06 
  68331.2549     0.13218E-06 
  68363.5170     0.13395E-06 
  68395.7792     0.13573E-06 
  68428.0414     0.13752E-06 
  68460.3035     0.13934E-06 
  68492.5657     0.14117E-06 
  68524.8278     0.14302E-06 
  68557.0900     0.14488E-06 
  68589.3522     0.14677E-06 
  68621.6143     0.14867E-06 
  68653.8765     0.15059E-06 
  68686.1386     0.15253E-06 
  68718.4008     0.15448E-06 
  68750.6630     0.15645E-06 
  68782.9251     0.15844E-06 
  68815.1873     0.16045E-06 
  68847.4494     0.16248E-06 
  68879.7116     0.16452E-06 
  68911.9738     0.16659E-06 
  68944.2359     0.16867E-06 
  68976.4981     0.17077E-06 
  69008.7602     0.17289E-06 
  69041.0224     0.17502E-06 
  69073.2846     0.17718E-06 
  69105.5467     0.17935E-06 
  69137.8089     0.18155E-06 
  69170.0710     0.18376E-06 
  69202.3332     0.18599E-06 
  69234.5954     0.18824E-06 
  69266.8575     0.19051E-06 
  69299.1197     0.19279E-06 
  69331.3818     0.19510E-06 
  69363.6440     0.19743E-06 
  69395.9062     0.19977E-06 
  69428.1683     0.20214E-06 
  69460.4305     0.20452E-06 
  69492.6926     0.20693E-06 
  69524.9548     0.20935E-06 
  69557.2170     0.21179E-06 
  69589.4791     0.21426E-06 
  69621.7413     0.21674E-06 
  69654.0034     0.21924E-06 
  69686.2656     0.22176E-06 
  69718.5278     0.22431E-06 
  69750.7899     0.22687E-06 
  69783.0521     0.22945E-06 
  69815.3142     0.23205E-06 
  69847.5764     0.23467E-06 
  69879.8386     0.23732E-06 
  69912.1007     0.23998E-06 
  69944.3629     0.24266E-06 
  69976.6250     0.24537E-06 
  70008.8872     0.24809E-06 
  70041.1494     0.25083E-06 
  70073.4115     0.25360E-06 
  70105.6737     0.25638E-06 
  70137.9358     0.25919E-06 
  70170.1980     0.26201E-06 
  70202.4602     0.26486E-06 
  70234.7223     0.26773E-06 
  70266.9845     0.27061E-06 
  70299.2466     0.27352E-06 
  70331.5088     0.27645E-06 
  70363.7710     0.27940E-06 
  70396.0331     0.28237E-06 
  70428.2953     0.28536E-06 
  70460.5574     0.28838E-06 
  70492.8196     0.29141E-06 
  70525.0818     0.29446E-06 
  70557.3439     0.29754E-06 
  70589.6061     0.30064E-06 
  70621.8682     0.30375E-06 
  70654.1304     0.30689E-06 
  70686.3926     0.31005E-06 
  70718.6547     0.31323E-06 
  70750.9169     0.31643E-06 
  70783.1790     0.31965E-06 
  70815.4412     0.32290E-06 
  70847.7034     0.32616E-06 
  70879.9655     0.32944E-06 
  70912.2277     0.33275E-06 
  70944.4898     0.33608E-06 
  70976.7520     0.33943E-06 
  71009.0142     0.34280E-06 
  71041.2763     0.34619E-06 
  71073.5385     0.34960E-06 
  71105.8006     0.35303E-06 
  71138.0628     0.35649E-06 
  71170.3250     0.35996E-06 
  71202.5871     0.36346E-06 
  71234.8493     0.36698E-06 
  71267.1114     0.37052E-06 
  71299.3736     0.37408E-06 
  71331.6358     0.37766E-06 
  71363.8979     0.38126E-06 
  71396.1601     0.38488E-06 
  71428.4222     0.38853E-06 
  71460.6844     0.39219E-06 
  71492.9466     0.39588E-06 
  71525.2087     0.39958E-06 
  71557.4709     0.40331E-06 
  71589.7330     0.40706E-06 
  71621.9952     0.41083E-06 
  71654.2574     0.41462E-06 
  71686.5195     0.41843E-06 
  71718.7817     0.42227E-06 
  71751.0438     0.42612E-06 
  71783.3060     0.42999E-06 
  71815.5682     0.43389E-06 
  71847.8303     0.43780E-06 
  71880.0925     0.44174E-06 
  71912.3546     0.44570E-06 
  71944.6168     0.44967E-06 
  71976.8790     0.45367E-06 
  72009.1411     0.45769E-06 
  72041.4033     0.46173E-06 
  72073.6654     0.46579E-06 
  72105.9276     0.46986E-06 
  72138.1898     0.47396E-06 
  72170.4519     0.47808E-06 
  72202.7141     0.48222E-06 
  72234.9762     0.48638E-06 
  72267.2384     0.49056E-06 
  72299.5006     0.49476E-06 
  72331.7627     0.49898E-06 
  72364.0249     0.50322E-06 
  72396.2870     0.50748E-06 
  72428.5492     0.51176E-06 
  72460.8114     0.51606E-06 
  72493.0735     0.52038E-06 
  72525.3357     0.52472E-06 
  72557.5978     0.52908E-06 
  72589.8600     0.53345E-06 
