  32262.1600     0.44759E+01 
  32294.4222     0.45076E+01 
  32326.6843     0.45395E+01 
  32358.9465     0.45716E+01 
  32391.2086     0.46037E+01 
  32423.4708     0.46360E+01 
  32455.7330     0.46684E+01 
  32487.9951     0.47010E+01 
  32520.2573     0.47337E+01 
  32552.5194     0.47665E+01 
  32584.7816     0.47995E+01 
  32617.0438     0.48326E+01 
  32649.3059     0.48658E+01 
  32681.5681     0.48992E+01 
  32713.8302     0.49327E+01 
  32746.0924     0.49663E+01 
  32778.3546     0.50001E+01 
  32810.6167     0.50340E+01 
  32842.8789     0.50680E+01 
  32875.1410     0.51022E+01 
  32907.4032     0.51364E+01 
  32939.6654     0.51708E+01 
  32971.9275     0.52054E+01 
  33004.1897     0.52401E+01 
  33036.4518     0.52749E+01 
  33068.7140     0.53098E+01 
  33100.9762     0.53448E+01 
  33133.2383     0.53800E+01 
  33165.5005     0.54153E+01 
  33197.7626     0.54508E+01 
  33230.0248     0.54863E+01 
  33262.2870     0.55220E+01 
  33294.5491     0.55578E+01 
  33326.8113     0.55938E+01 
  33359.0734     0.56298E+01 
  33391.3356     0.56660E+01 
  33423.5978     0.57023E+01 
  33455.8599     0.57388E+01 
  33488.1221     0.57753E+01 
  33520.3842     0.58120E+01 
  33552.6464     0.58488E+01 
  33584.9086     0.58857E+01 
  33617.1707     0.59227E+01 
  33649.4329     0.59599E+01 
  33681.6950     0.59972E+01 
  33713.9572     0.60346E+01 
  33746.2194     0.60721E+01 
  33778.4815     0.61097E+01 
  33810.7437     0.61475E+01 
  33843.0058     0.61854E+01 
  33875.2680     0.62234E+01 
  33907.5302     0.62615E+01 
  33939.7923     0.62997E+01 
  33972.0545     0.63380E+01 
  34004.3166     0.63765E+01 
  34036.5788     0.64150E+01 
  34068.8410     0.64537E+01 
  34101.1031     0.64925E+01 
  34133.3653     0.65314E+01 
  34165.6274     0.65704E+01 
  34197.8896     0.66095E+01 
  34230.1518     0.66487E+01 
  34262.4139     0.66881E+01 
  34294.6761     0.67275E+01 
  34326.9382     0.67671E+01 
  34359.2004     0.68067E+01 
  34391.4626     0.68465E+01 
  34423.7247     0.68864E+01 
  34455.9869     0.69264E+01 
  34488.2490     0.69664E+01 
  34520.5112     0.70066E+01 
  34552.7734     0.70469E+01 
  34585.0355     0.70873E+01 
  34617.2977     0.71278E+01 
  34649.5598     0.71684E+01 
  34681.8220     0.72091E+01 
  34714.0842     0.72499E+01 
  34746.3463     0.72908E+01 
  34778.6085     0.73318E+01 
  34810.8706     0.73728E+01 
  34843.1328     0.74140E+01 
  34875.3950     0.74553E+01 
  34907.6571     0.74967E+01 
  34939.9193     0.75381E+01 
  34972.1814     0.75797E+01 
  35004.4436     0.76213E+01 
  35036.7058     0.76630E+01 
  35068.9679     0.77049E+01 
  35101.2301     0.77468E+01 
  35133.4922     0.77888E+01 
  35165.7544     0.78309E+01 
  35198.0166     0.78731E+01 
  35230.2787     0.79153E+01 
  35262.5409     0.79577E+01 
  35294.8030     0.80001E+01 
  35327.0652     0.80426E+01 
  35359.3274     0.80852E+01 
  35391.5895     0.81279E+01 
  35423.8517     0.81707E+01 
  35456.1138     0.82135E+01 
  35488.3760     0.82564E+01 
  35520.6382     0.82994E+01 
  35552.9003     0.83425E+01 
  35585.1625     0.83856E+01 
  35617.4246     0.84288E+01 
  35649.6868     0.84721E+01 
  35681.9490     0.85155E+01 
  35714.2111     0.85589E+01 
  35746.4733     0.86024E+01 
  35778.7354     0.86460E+01 
  35810.9976     0.86897E+01 
  35843.2598     0.87334E+01 
  35875.5219     0.87772E+01 
  35907.7841     0.88210E+01 
  35940.0462     0.88649E+01 
  35972.3084     0.89089E+01 
  36004.5706     0.89529E+01 
  36036.8327     0.89970E+01 
  36069.0949     0.90412E+01 
  36101.3570     0.90854E+01 
  36133.6192     0.91297E+01 
  36165.8814     0.91740E+01 
  36198.1435     0.92184E+01 
  36230.4057     0.92628E+01 
  36262.6678     0.93073E+01 
  36294.9300     0.93519E+01 
  36327.1922     0.93965E+01 
  36359.4543     0.94411E+01 
  36391.7165     0.94858E+01 
  36423.9786     0.95306E+01 
  36456.2408     0.95754E+01 
  36488.5030     0.96202E+01 
  36520.7651     0.96651E+01 
  36553.0273     0.97100E+01 
  36585.2894     0.97550E+01 
  36617.5516     0.98000E+01 
  36649.8138     0.98450E+01 
  36682.0759     0.98901E+01 
  36714.3381     0.99353E+01 
  36746.6002     0.99804E+01 
  36778.8624     0.10026E+02 
  36811.1246     0.10071E+02 
  36843.3867     0.10116E+02 
  36875.6489     0.10161E+02 
  36907.9110     0.10207E+02 
  36940.1732     0.10252E+02 
  36972.4354     0.10298E+02 
  37004.6975     0.10343E+02 
  37036.9597     0.10388E+02 
  37069.2218     0.10434E+02 
  37101.4840     0.10479E+02 
  37133.7462     0.10525E+02 
  37166.0083     0.10570E+02 
  37198.2705     0.10616E+02 
  37230.5326     0.10661E+02 
  37262.7948     0.10707E+02 
  37295.0570     0.10753E+02 
  37327.3191     0.10798E+02 
  37359.5813     0.10844E+02 
  37391.8434     0.10890E+02 
  37424.1056     0.10935E+02 
  37456.3678     0.10981E+02 
  37488.6299     0.11027E+02 
  37520.8921     0.11072E+02 
  37553.1542     0.11118E+02 
  37585.4164     0.11164E+02 
  37617.6786     0.11209E+02 
  37649.9407     0.11255E+02 
  37682.2029     0.11301E+02 
  37714.4650     0.11346E+02 
  37746.7272     0.11392E+02 
  37778.9894     0.11438E+02 
  37811.2515     0.11483E+02 
  37843.5137     0.11529E+02 
  37875.7758     0.11575E+02 
  37908.0380     0.11620E+02 
  37940.3002     0.11666E+02 
  37972.5623     0.11712E+02 
  38004.8245     0.11757E+02 
  38037.0866     0.11803E+02 
  38069.3488     0.11848E+02 
  38101.6110     0.11894E+02 
  38133.8731     0.11940E+02 
  38166.1353     0.11985E+02 
  38198.3974     0.12031E+02 
  38230.6596     0.12076E+02 
  38262.9218     0.12121E+02 
  38295.1839     0.12167E+02 
  38327.4461     0.12212E+02 
  38359.7082     0.12258E+02 
  38391.9704     0.12303E+02 
  38424.2326     0.12348E+02 
  38456.4947     0.12394E+02 
  38488.7569     0.12439E+02 
  38521.0190     0.12484E+02 
  38553.2812     0.12529E+02 
  38585.5434     0.12574E+02 
  38617.8055     0.12620E+02 
  38650.0677     0.12665E+02 
  38682.3298     0.12710E+02 
  38714.5920     0.12755E+02 
  38746.8542     0.12800E+02 
  38779.1163     0.12844E+02 
  38811.3785     0.12889E+02 
  38843.6406     0.12934E+02 
  38875.9028     0.12979E+02 
  38908.1650     0.13024E+02 
  38940.4271     0.13068E+02 
  38972.6893     0.13113E+02 
  39004.9514     0.13157E+02 
  39037.2136     0.13202E+02 
  39069.4758     0.13246E+02 
  39101.7379     0.13290E+02 
  39134.0001     0.13335E+02 
  39166.2622     0.13379E+02 
  39198.5244     0.13423E+02 
  39230.7866     0.13467E+02 
  39263.0487     0.13511E+02 
  39295.3109     0.13555E+02 
  39327.5730     0.13599E+02 
  39359.8352     0.13643E+02 
  39392.0974     0.13687E+02 
  39424.3595     0.13730E+02 
  39456.6217     0.13774E+02 
  39488.8838     0.13817E+02 
  39521.1460     0.13861E+02 
  39553.4082     0.13904E+02 
  39585.6703     0.13948E+02 
  39617.9325     0.13991E+02 
  39650.1946     0.14034E+02 
  39682.4568     0.14077E+02 
  39714.7190     0.14120E+02 
  39746.9811     0.14163E+02 
  39779.2433     0.14205E+02 
  39811.5054     0.14248E+02 
  39843.7676     0.14291E+02 
  39876.0298     0.14333E+02 
  39908.2919     0.14375E+02 
  39940.5541     0.14418E+02 
  39972.8162     0.14460E+02 
  40005.0784     0.14502E+02 
  40037.3406     0.14544E+02 
  40069.6027     0.14586E+02 
  40101.8649     0.14628E+02 
  40134.1270     0.14669E+02 
  40166.3892     0.14711E+02 
  40198.6514     0.14752E+02 
  40230.9135     0.14794E+02 
  40263.1757     0.14835E+02 
  40295.4378     0.14876E+02 
  40327.7000     0.14917E+02 
  40359.9622     0.14958E+02 
  40392.2243     0.14999E+02 
  40424.4865     0.15039E+02 
  40456.7486     0.15080E+02 
  40489.0108     0.15120E+02 
  40521.2730     0.15161E+02 
  40553.5351     0.15201E+02 
  40585.7973     0.15241E+02 
  40618.0594     0.15281E+02 
  40650.3216     0.15321E+02 
  40682.5838     0.15360E+02 
  40714.8459     0.15400E+02 
  40747.1081     0.15439E+02 
  40779.3702     0.15479E+02 
  40811.6324     0.15518E+02 
  40843.8946     0.15557E+02 
  40876.1567     0.15596E+02 
  40908.4189     0.15634E+02 
  40940.6810     0.15673E+02 
  40972.9432     0.15711E+02 
  41005.2054     0.15750E+02 
  41037.4675     0.15788E+02 
  41069.7297     0.15826E+02 
  41101.9918     0.15864E+02 
  41134.2540     0.15902E+02 
  41166.5162     0.15939E+02 
  41198.7783     0.15977E+02 
  41231.0405     0.16014E+02 
  41263.3026     0.16051E+02 
  41295.5648     0.16088E+02 
  41327.8270     0.16125E+02 
  41360.0891     0.16161E+02 
  41392.3513     0.16198E+02 
  41424.6134     0.16234E+02 
  41456.8756     0.16271E+02 
  41489.1378     0.16307E+02 
  41521.3999     0.16342E+02 
  41553.6621     0.16378E+02 
  41585.9242     0.16414E+02 
  41618.1864     0.16449E+02 
  41650.4486     0.16484E+02 
  41682.7107     0.16519E+02 
  41714.9729     0.16554E+02 
  41747.2350     0.16589E+02 
  41779.4972     0.16623E+02 
  41811.7594     0.16658E+02 
  41844.0215     0.16692E+02 
  41876.2837     0.16726E+02 
  41908.5458     0.16760E+02 
  41940.8080     0.16793E+02 
  41973.0702     0.16827E+02 
  42005.3323     0.16860E+02 
  42037.5945     0.16893E+02 
  42069.8566     0.16926E+02 
  42102.1188     0.16959E+02 
  42134.3810     0.16992E+02 
  42166.6431     0.17024E+02 
  42198.9053     0.17056E+02 
  42231.1674     0.17088E+02 
  42263.4296     0.17120E+02 
  42295.6918     0.17152E+02 
  42327.9539     0.17183E+02 
  42360.2161     0.17214E+02 
  42392.4782     0.17245E+02 
  42424.7404     0.17276E+02 
  42457.0026     0.17307E+02 
  42489.2647     0.17337E+02 
  42521.5269     0.17368E+02 
  42553.7890     0.17398E+02 
  42586.0512     0.17427E+02 
  42618.3134     0.17457E+02 
  42650.5755     0.17487E+02 
  42682.8377     0.17516E+02 
  42715.0998     0.17545E+02 
  42747.3620     0.17574E+02 
  42779.6242     0.17602E+02 
  42811.8863     0.17631E+02 
  42844.1485     0.17659E+02 
  42876.4106     0.17687E+02 
  42908.6728     0.17715E+02 
  42940.9350     0.17742E+02 
  42973.1971     0.17770E+02 
  43005.4593     0.17797E+02 
  43037.7214     0.17824E+02 
  43069.9836     0.17851E+02 
  43102.2458     0.17877E+02 
  43134.5079     0.17903E+02 
  43166.7701     0.17930E+02 
  43199.0322     0.17955E+02 
  43231.2944     0.17981E+02 
  43263.5566     0.18006E+02 
  43295.8187     0.18032E+02 
  43328.0809     0.18057E+02 
  43360.3430     0.18081E+02 
  43392.6052     0.18106E+02 
  43424.8674     0.18130E+02 
  43457.1295     0.18154E+02 
  43489.3917     0.18178E+02 
  43521.6538     0.18202E+02 
  43553.9160     0.18225E+02 
  43586.1782     0.18248E+02 
  43618.4403     0.18271E+02 
  43650.7025     0.18294E+02 
  43682.9646     0.18317E+02 
  43715.2268     0.18339E+02 
  43747.4890     0.18361E+02 
  43779.7511     0.18383E+02 
  43812.0133     0.18404E+02 
  43844.2754     0.18426E+02 
  43876.5376     0.18447E+02 
  43908.7998     0.18468E+02 
  43941.0619     0.18488E+02 
  43973.3241     0.18509E+02 
  44005.5862     0.18529E+02 
  44037.8484     0.18549E+02 
  44070.1106     0.18568E+02 
  44102.3727     0.18588E+02 
  44134.6349     0.18607E+02 
  44166.8970     0.18626E+02 
  44199.1592     0.18644E+02 
  44231.4214     0.18663E+02 
  44263.6835     0.18681E+02 
  44295.9457     0.18699E+02 
  44328.2078     0.18717E+02 
  44360.4700     0.18734E+02 
  44392.7322     0.18751E+02 
  44424.9943     0.18768E+02 
  44457.2565     0.18785E+02 
  44489.5186     0.18802E+02 
  44521.7808     0.18818E+02 
  44554.0430     0.18834E+02 
  44586.3051     0.18850E+02 
  44618.5673     0.18865E+02 
  44650.8294     0.18880E+02 
  44683.0916     0.18895E+02 
  44715.3538     0.18910E+02 
  44747.6159     0.18924E+02 
  44779.8781     0.18939E+02 
  44812.1402     0.18953E+02 
  44844.4024     0.18966E+02 
  44876.6646     0.18980E+02 
  44908.9267     0.18993E+02 
  44941.1889     0.19006E+02 
  44973.4510     0.19019E+02 
  45005.7132     0.19031E+02 
  45037.9754     0.19043E+02 
  45070.2375     0.19055E+02 
  45102.4997     0.19067E+02 
  45134.7618     0.19078E+02 
  45167.0240     0.19090E+02 
  45199.2862     0.19100E+02 
  45231.5483     0.19111E+02 
  45263.8105     0.19121E+02 
  45296.0726     0.19132E+02 
  45328.3348     0.19141E+02 
  45360.5970     0.19151E+02 
  45392.8591     0.19160E+02 
  45425.1213     0.19170E+02 
  45457.3834     0.19178E+02 
  45489.6456     0.19187E+02 
  45521.9078     0.19195E+02 
  45554.1699     0.19203E+02 
  45586.4321     0.19211E+02 
  45618.6942     0.19219E+02 
  45650.9564     0.19226E+02 
  45683.2186     0.19233E+02 
  45715.4807     0.19240E+02 
  45747.7429     0.19246E+02 
  45780.0050     0.19252E+02 
  45812.2672     0.19258E+02 
  45844.5294     0.19264E+02 
  45876.7915     0.19269E+02 
  45909.0537     0.19274E+02 
  45941.3158     0.19279E+02 
  45973.5780     0.19284E+02 
  46005.8402     0.19288E+02 
  46038.1023     0.19292E+02 
  46070.3645     0.19296E+02 
  46102.6266     0.19300E+02 
  46134.8888     0.19303E+02 
  46167.1510     0.19306E+02 
  46199.4131     0.19309E+02 
  46231.6753     0.19311E+02 
  46263.9374     0.19314E+02 
  46296.1996     0.19316E+02 
  46328.4618     0.19317E+02 
  46360.7239     0.19319E+02 
  46392.9861     0.19320E+02 
  46425.2482     0.19321E+02 
  46457.5104     0.19322E+02 
  46489.7726     0.19322E+02 
  46522.0347     0.19322E+02 
  46554.2969     0.19322E+02 
  46586.5590     0.19322E+02 
  46618.8212     0.19321E+02 
  46651.0834     0.19320E+02 
  46683.3455     0.19319E+02 
  46715.6077     0.19317E+02 
  46747.8698     0.19316E+02 
  46780.1320     0.19314E+02 
  46812.3942     0.19311E+02 
  46844.6563     0.19309E+02 
  46876.9185     0.19306E+02 
  46909.1806     0.19303E+02 
  46941.4428     0.19300E+02 
  46973.7050     0.19296E+02 
  47005.9671     0.19292E+02 
  47038.2293     0.19288E+02 
  47070.4914     0.19284E+02 
  47102.7536     0.19279E+02 
  47135.0158     0.19274E+02 
  47167.2779     0.19269E+02 
  47199.5401     0.19264E+02 
  47231.8022     0.19258E+02 
  47264.0644     0.19252E+02 
  47296.3266     0.19246E+02 
  47328.5887     0.19240E+02 
  47360.8509     0.19233E+02 
  47393.1130     0.19226E+02 
  47425.3752     0.19219E+02 
  47457.6374     0.19211E+02 
  47489.8995     0.19203E+02 
  47522.1617     0.19195E+02 
  47554.4238     0.19187E+02 
  47586.6860     0.19179E+02 
  47618.9482     0.19170E+02 
  47651.2103     0.19161E+02 
  47683.4725     0.19152E+02 
  47715.7346     0.19142E+02 
  47747.9968     0.19132E+02 
  47780.2590     0.19122E+02 
  47812.5211     0.19112E+02 
  47844.7833     0.19101E+02 
  47877.0454     0.19090E+02 
  47909.3076     0.19079E+02 
  47941.5698     0.19068E+02 
  47973.8319     0.19056E+02 
  48006.0941     0.19045E+02 
  48038.3562     0.19032E+02 
  48070.6184     0.19020E+02 
  48102.8806     0.19008E+02 
  48135.1427     0.18995E+02 
  48167.4049     0.18982E+02 
  48199.6670     0.18968E+02 
  48231.9292     0.18955E+02 
  48264.1914     0.18941E+02 
  48296.4535     0.18927E+02 
  48328.7157     0.18912E+02 
  48360.9778     0.18898E+02 
  48393.2400     0.18883E+02 
  48425.5022     0.18868E+02 
  48457.7643     0.18852E+02 
  48490.0265     0.18837E+02 
  48522.2886     0.18821E+02 
  48554.5508     0.18805E+02 
  48586.8130     0.18789E+02 
  48619.0751     0.18772E+02 
  48651.3373     0.18755E+02 
  48683.5994     0.18738E+02 
  48715.8616     0.18721E+02 
  48748.1238     0.18703E+02 
  48780.3859     0.18686E+02 
  48812.6481     0.18668E+02 
  48844.9102     0.18649E+02 
  48877.1724     0.18631E+02 
  48909.4346     0.18612E+02 
  48941.6967     0.18593E+02 
  48973.9589     0.18574E+02 
  49006.2210     0.18555E+02 
  49038.4832     0.18535E+02 
  49070.7454     0.18515E+02 
  49103.0075     0.18495E+02 
  49135.2697     0.18475E+02 
  49167.5318     0.18454E+02 
  49199.7940     0.18433E+02 
  49232.0562     0.18412E+02 
  49264.3183     0.18391E+02 
  49296.5805     0.18370E+02 
  49328.8426     0.18348E+02 
  49361.1048     0.18326E+02 
  49393.3670     0.18304E+02 
  49425.6291     0.18281E+02 
  49457.8913     0.18259E+02 
  49490.1534     0.18236E+02 
  49522.4156     0.18213E+02 
  49554.6778     0.18189E+02 
  49586.9399     0.18166E+02 
  49619.2021     0.18142E+02 
  49651.4642     0.18118E+02 
  49683.7264     0.18094E+02 
  49715.9886     0.18070E+02 
  49748.2507     0.18045E+02 
  49780.5129     0.18020E+02 
  49812.7750     0.17995E+02 
  49845.0372     0.17970E+02 
  49877.2994     0.17945E+02 
  49909.5615     0.17919E+02 
  49941.8237     0.17893E+02 
  49974.0858     0.17867E+02 
  50006.3480     0.17841E+02 
  50038.6102     0.17814E+02 
  50070.8723     0.17787E+02 
  50103.1345     0.17761E+02 
  50135.3966     0.17733E+02 
  50167.6588     0.17706E+02 
  50199.9210     0.17679E+02 
  50232.1831     0.17651E+02 
  50264.4453     0.17623E+02 
  50296.7074     0.17595E+02 
  50328.9696     0.17566E+02 
  50361.2318     0.17538E+02 
  50393.4939     0.17509E+02 
  50425.7561     0.17480E+02 
  50458.0182     0.17451E+02 
  50490.2804     0.17422E+02 
  50522.5426     0.17392E+02 
  50554.8047     0.17363E+02 
  50587.0669     0.17333E+02 
  50619.3290     0.17303E+02 
  50651.5912     0.17272E+02 
  50683.8534     0.17242E+02 
  50716.1155     0.17211E+02 
  50748.3777     0.17181E+02 
  50780.6398     0.17150E+02 
  50812.9020     0.17118E+02 
  50845.1642     0.17087E+02 
  50877.4263     0.17055E+02 
  50909.6885     0.17024E+02 
  50941.9506     0.16992E+02 
  50974.2128     0.16960E+02 
  51006.4750     0.16927E+02 
  51038.7371     0.16895E+02 
  51070.9993     0.16862E+02 
  51103.2614     0.16830E+02 
  51135.5236     0.16797E+02 
  51167.7858     0.16764E+02 
  51200.0479     0.16730E+02 
  51232.3101     0.16697E+02 
  51264.5722     0.16663E+02 
  51296.8344     0.16629E+02 
  51329.0966     0.16595E+02 
  51361.3587     0.16561E+02 
  51393.6209     0.16527E+02 
  51425.8830     0.16493E+02 
  51458.1452     0.16458E+02 
  51490.4074     0.16423E+02 
  51522.6695     0.16388E+02 
  51554.9317     0.16353E+02 
  51587.1938     0.16318E+02 
  51619.4560     0.16283E+02 
  51651.7182     0.16247E+02 
  51683.9803     0.16212E+02 
  51716.2425     0.16176E+02 
  51748.5046     0.16140E+02 
  51780.7668     0.16104E+02 
  51813.0290     0.16067E+02 
  51845.2911     0.16031E+02 
  51877.5533     0.15995E+02 
  51909.8154     0.15958E+02 
  51942.0776     0.15921E+02 
  51974.3398     0.15884E+02 
  52006.6019     0.15847E+02 
  52038.8641     0.15810E+02 
  52071.1262     0.15772E+02 
  52103.3884     0.15735E+02 
  52135.6506     0.15697E+02 
  52167.9127     0.15660E+02 
  52200.1749     0.15622E+02 
  52232.4370     0.15584E+02 
  52264.6992     0.15545E+02 
  52296.9614     0.15507E+02 
  52329.2235     0.15469E+02 
  52361.4857     0.15430E+02 
  52393.7478     0.15392E+02 
  52426.0100     0.15353E+02 
  52458.2722     0.15314E+02 
  52490.5343     0.15275E+02 
  52522.7965     0.15236E+02 
  52555.0586     0.15197E+02 
  52587.3208     0.15158E+02 
  52619.5830     0.15118E+02 
  52651.8451     0.15079E+02 
  52684.1073     0.15039E+02 
  52716.3694     0.14999E+02 
  52748.6316     0.14959E+02 
  52780.8938     0.14919E+02 
  52813.1559     0.14879E+02 
  52845.4181     0.14839E+02 
  52877.6802     0.14799E+02 
  52909.9424     0.14759E+02 
  52942.2046     0.14718E+02 
  52974.4667     0.14678E+02 
  53006.7289     0.14637E+02 
  53038.9910     0.14596E+02 
  53071.2532     0.14556E+02 
  53103.5154     0.14515E+02 
  53135.7775     0.14474E+02 
  53168.0397     0.14433E+02 
  53200.3018     0.14392E+02 
  53232.5640     0.14351E+02 
  53264.8262     0.14309E+02 
  53297.0883     0.14268E+02 
  53329.3505     0.14226E+02 
  53361.6126     0.14185E+02 
  53393.8748     0.14143E+02 
  53426.1370     0.14102E+02 
  53458.3991     0.14060E+02 
  53490.6613     0.14018E+02 
  53522.9234     0.13976E+02 
  53555.1856     0.13935E+02 
  53587.4478     0.13893E+02 
  53619.7099     0.13851E+02 
  53651.9721     0.13808E+02 
  53684.2342     0.13766E+02 
  53716.4964     0.13724E+02 
  53748.7586     0.13682E+02 
  53781.0207     0.13640E+02 
  53813.2829     0.13597E+02 
  53845.5450     0.13555E+02 
  53877.8072     0.13512E+02 
  53910.0694     0.13470E+02 
  53942.3315     0.13427E+02 
  53974.5937     0.13385E+02 
  54006.8558     0.13342E+02 
  54039.1180     0.13300E+02 
  54071.3802     0.13257E+02 
  54103.6423     0.13214E+02 
  54135.9045     0.13172E+02 
  54168.1666     0.13129E+02 
  54200.4288     0.13086E+02 
  54232.6910     0.13043E+02 
  54264.9531     0.13000E+02 
  54297.2153     0.12957E+02 
  54329.4774     0.12915E+02 
  54361.7396     0.12872E+02 
  54394.0018     0.12829E+02 
  54426.2639     0.12786E+02 
  54458.5261     0.12743E+02 
  54490.7882     0.12700E+02 
  54523.0504     0.12657E+02 
  54555.3126     0.12614E+02 
  54587.5747     0.12571E+02 
  54619.8369     0.12528E+02 
  54652.0990     0.12485E+02 
  54684.3612     0.12442E+02 
  54716.6234     0.12399E+02 
  54748.8855     0.12356E+02 
  54781.1477     0.12313E+02 
  54813.4098     0.12270E+02 
  54845.6720     0.12227E+02 
  54877.9342     0.12185E+02 
  54910.1963     0.12142E+02 
  54942.4585     0.12099E+02 
  54974.7206     0.12056E+02 
  55006.9828     0.12013E+02 
  55039.2450     0.11970E+02 
  55071.5071     0.11927E+02 
  55103.7693     0.11885E+02 
  55136.0314     0.11842E+02 
  55168.2936     0.11799E+02 
  55200.5558     0.11757E+02 
  55232.8179     0.11714E+02 
  55265.0801     0.11671E+02 
  55297.3422     0.11629E+02 
  55329.6044     0.11586E+02 
  55361.8666     0.11544E+02 
  55394.1287     0.11501E+02 
  55426.3909     0.11459E+02 
  55458.6530     0.11417E+02 
  55490.9152     0.11374E+02 
  55523.1774     0.11332E+02 
  55555.4395     0.11290E+02 
  55587.7017     0.11248E+02 
  55619.9638     0.11206E+02 
  55652.2260     0.11164E+02 
  55684.4882     0.11122E+02 
  55716.7503     0.11080E+02 
  55749.0125     0.11039E+02 
  55781.2746     0.10997E+02 
  55813.5368     0.10955E+02 
  55845.7990     0.10914E+02 
  55878.0611     0.10872E+02 
  55910.3233     0.10831E+02 
  55942.5854     0.10790E+02 
  55974.8476     0.10749E+02 
  56007.1098     0.10708E+02 
  56039.3719     0.10667E+02 
  56071.6341     0.10626E+02 
  56103.8962     0.10585E+02 
  56136.1584     0.10544E+02 
  56168.4206     0.10504E+02 
  56200.6827     0.10463E+02 
  56232.9449     0.10423E+02 
  56265.2070     0.10383E+02 
  56297.4692     0.10342E+02 
  56329.7314     0.10302E+02 
  56361.9935     0.10262E+02 
  56394.2557     0.10223E+02 
  56426.5178     0.10183E+02 
  56458.7800     0.10143E+02 
  56491.0422     0.10104E+02 
  56523.3043     0.10065E+02 
  56555.5665     0.10026E+02 
  56587.8286     0.99866E+01 
  56620.0908     0.99478E+01 
  56652.3530     0.99091E+01 
  56684.6151     0.98705E+01 
  56716.8773     0.98320E+01 
  56749.1394     0.97938E+01 
  56781.4016     0.97556E+01 
  56813.6638     0.97177E+01 
  56845.9259     0.96799E+01 
  56878.1881     0.96422E+01 
  56910.4502     0.96047E+01 
  56942.7124     0.95674E+01 
  56974.9746     0.95303E+01 
  57007.2367     0.94933E+01 
  57039.4989     0.94565E+01 
  57071.7610     0.94199E+01 
  57104.0232     0.93835E+01 
  57136.2854     0.93472E+01 
  57168.5475     0.93111E+01 
  57200.8097     0.92753E+01 
  57233.0718     0.92396E+01 
  57265.3340     0.92041E+01 
  57297.5962     0.91688E+01 
  57329.8583     0.91337E+01 
  57362.1205     0.90988E+01 
  57394.3826     0.90642E+01 
  57426.6448     0.90297E+01 
  57458.9070     0.89954E+01 
  57491.1691     0.89614E+01 
  57523.4313     0.89276E+01 
  57555.6934     0.88940E+01 
  57587.9556     0.88607E+01 
  57620.2178     0.88275E+01 
  57652.4799     0.87946E+01 
  57684.7421     0.87620E+01 
  57717.0042     0.87295E+01 
  57749.2664     0.86973E+01 
  57781.5286     0.86654E+01 
  57813.7907     0.86337E+01 
  57846.0529     0.86023E+01 
  57878.3150     0.85711E+01 
  57910.5772     0.85402E+01 
  57942.8394     0.85095E+01 
  57975.1015     0.84791E+01 
  58007.3637     0.84490E+01 
  58039.6258     0.84191E+01 
  58071.8880     0.83895E+01 
  58104.1502     0.83602E+01 
  58136.4123     0.83312E+01 
  58168.6745     0.83025E+01 
  58200.9366     0.82740E+01 
  58233.1988     0.82459E+01 
  58265.4610     0.82180E+01 
  58297.7231     0.81904E+01 
  58329.9853     0.81632E+01 
  58362.2474     0.81362E+01 
  58394.5096     0.81096E+01 
  58426.7718     0.80832E+01 
  58459.0339     0.80572E+01 
  58491.2961     0.80315E+01 
  58523.5582     0.80061E+01 
  58555.8204     0.79811E+01 
  58588.0826     0.79564E+01 
  58620.3447     0.79320E+01 
  58652.6069     0.79080E+01 
  58684.8690     0.78843E+01 
  58717.1312     0.78609E+01 
  58749.3934     0.78379E+01 
  58781.6555     0.78152E+01 
  58813.9177     0.77929E+01 
  58846.1798     0.77710E+01 
  58878.4420     0.77494E+01 
  58910.7042     0.77282E+01 
  58942.9663     0.77074E+01 
  58975.2285     0.76870E+01 
  59007.4906     0.76669E+01 
  59039.7528     0.76472E+01 
  59072.0150     0.76279E+01 
  59104.2771     0.76090E+01 
  59136.5393     0.75905E+01 
  59168.8014     0.75724E+01 
  59201.0636     0.75547E+01 
  59233.3258     0.75374E+01 
  59265.5879     0.75205E+01 
  59297.8501     0.75040E+01 
  59330.1122     0.74880E+01 
  59362.3744     0.74723E+01 
  59394.6366     0.74571E+01 
  59426.8987     0.74424E+01 
  59459.1609     0.74280E+01 
  59491.4230     0.74142E+01 
  59523.6852     0.74007E+01 
  59555.9474     0.73877E+01 
  59588.2095     0.73752E+01 
  59620.4717     0.73631E+01 
  59652.7338     0.73515E+01 
  59684.9960     0.73403E+01 
  59717.2582     0.73296E+01 
  59749.5203     0.73194E+01 
  59781.7825     0.73097E+01 
  59814.0446     0.73005E+01 
  59846.3068     0.72917E+01 
  59878.5690     0.72835E+01 
  59910.8311     0.72757E+01 
  59943.0933     0.72684E+01 
  59975.3554     0.72617E+01 
  60007.6176     0.72554E+01 
  60039.8798     0.72497E+01 
  60072.1419     0.72445E+01 
  60104.4041     0.72398E+01 
  60136.6662     0.72356E+01 
  60168.9284     0.72320E+01 
  60201.1906     0.72289E+01 
  60233.4527     0.72264E+01 
  60265.7149     0.72244E+01 
  60297.9770     0.72230E+01 
  60330.2392     0.72221E+01 
  60362.5014     0.72217E+01 
  60394.7635     0.72220E+01 
  60427.0257     0.72228E+01 
  60459.2878     0.72242E+01 
  60491.5500     0.72262E+01 
  60523.8122     0.72287E+01 
  60556.0743     0.72319E+01 
  60588.3365     0.72356E+01 
  60620.5986     0.72400E+01 
  60652.8608     0.72449E+01 
  60685.1230     0.72505E+01 
  60717.3851     0.72566E+01 
  60749.6473     0.72634E+01 
  60781.9094     0.72709E+01 
  60814.1716     0.72789E+01 
  60846.4338     0.72876E+01 
  60878.6959     0.72969E+01 
  60910.9581     0.73069E+01 
  60943.2202     0.73175E+01 
  60975.4824     0.73288E+01 
  61007.7446     0.73407E+01 
  61040.0067     0.73533E+01 
  61072.2689     0.73666E+01 
  61104.5310     0.73806E+01 
  61136.7932     0.73952E+01 
  61169.0554     0.74105E+01 
  61201.3175     0.74265E+01 
  61233.5797     0.74433E+01 
  61265.8418     0.74607E+01 
  61298.1040     0.74788E+01 
  61330.3662     0.74976E+01 
  61362.6283     0.75172E+01 
  61394.8905     0.75375E+01 
  61427.1526     0.75585E+01 
  61459.4148     0.75802E+01 
  61491.6770     0.76027E+01 
  61523.9391     0.76259E+01 
  61556.2013     0.76499E+01 
  61588.4634     0.76746E+01 
  61620.7256     0.77001E+01 
  61652.9878     0.77264E+01 
  61685.2499     0.77534E+01 
  61717.5121     0.77812E+01 
  61749.7742     0.78098E+01 
  61782.0364     0.78392E+01 
  61814.2986     0.78694E+01 
  61846.5607     0.79004E+01 
  61878.8229     0.79322E+01 
  61911.0850     0.79648E+01 
  61943.3472     0.79982E+01 
  61975.6094     0.80325E+01 
  62007.8715     0.80676E+01 
  62040.1337     0.81035E+01 
  62072.3958     0.81402E+01 
  62104.6580     0.81778E+01 
  62136.9202     0.82163E+01 
  62169.1823     0.82556E+01 
  62201.4445     0.82958E+01 
  62233.7066     0.83368E+01 
  62265.9688     0.83787E+01 
  62298.2310     0.84215E+01 
  62330.4931     0.84652E+01 
  62362.7553     0.85098E+01 
  62395.0174     0.85553E+01 
  62427.2796     0.86017E+01 
  62459.5418     0.86490E+01 
  62491.8039     0.86972E+01 
  62524.0661     0.87463E+01 
  62556.3282     0.87964E+01 
  62588.5904     0.88474E+01 
  62620.8526     0.88993E+01 
  62653.1147     0.89522E+01 
  62685.3769     0.90061E+01 
  62717.6390     0.90609E+01 
  62749.9012     0.91166E+01 
  62782.1634     0.91734E+01 
  62814.4255     0.92311E+01 
  62846.6877     0.92898E+01 
  62878.9498     0.93495E+01 
  62911.2120     0.94102E+01 
  62943.4742     0.94718E+01 
  62975.7363     0.95345E+01 
  63007.9985     0.95982E+01 
  63040.2606     0.96629E+01 
  63072.5228     0.97287E+01 
  63104.7850     0.97955E+01 
  63137.0471     0.98633E+01 
  63169.3093     0.99322E+01 
  63201.5714     0.10002E+02 
  63233.8336     0.10073E+02 
  63266.0958     0.10145E+02 
  63298.3579     0.10218E+02 
  63330.6201     0.10292E+02 
  63362.8822     0.10368E+02 
  63395.1444     0.10444E+02 
  63427.4066     0.10521E+02 
  63459.6687     0.10600E+02 
  63491.9309     0.10680E+02 
  63524.1930     0.10760E+02 
  63556.4552     0.10842E+02 
  63588.7174     0.10925E+02 
  63620.9795     0.11009E+02 
  63653.2417     0.11095E+02 
  63685.5038     0.11181E+02 
  63717.7660     0.11269E+02 
  63750.0282     0.11357E+02 
  63782.2903     0.11447E+02 
  63814.5525     0.11538E+02 
  63846.8146     0.11630E+02 
  63879.0768     0.11724E+02 
  63911.3390     0.11818E+02 
  63943.6011     0.11914E+02 
  63975.8633     0.12011E+02 
  64008.1254     0.12109E+02 
  64040.3876     0.12209E+02 
  64072.6498     0.12310E+02 
  64104.9119     0.12411E+02 
  64137.1741     0.12514E+02 
  64169.4362     0.12619E+02 
  64201.6984     0.12724E+02 
  64233.9606     0.12831E+02 
  64266.2227     0.12939E+02 
  64298.4849     0.13049E+02 
  64330.7470     0.13159E+02 
  64363.0092     0.13271E+02 
  64395.2714     0.13384E+02 
  64427.5335     0.13499E+02 
  64459.7957     0.13615E+02 
  64492.0578     0.13732E+02 
  64524.3200     0.13850E+02 
  64556.5822     0.13970E+02 
  64588.8443     0.14091E+02 
  64621.1065     0.14213E+02 
  64653.3686     0.14337E+02 
  64685.6308     0.14462E+02 
  64717.8930     0.14588E+02 
  64750.1551     0.14716E+02 
  64782.4173     0.14845E+02 
  64814.6794     0.14975E+02 
  64846.9416     0.15107E+02 
  64879.2038     0.15240E+02 
  64911.4659     0.15375E+02 
  64943.7281     0.15511E+02 
  64975.9902     0.15648E+02 
  65008.2524     0.15787E+02 
  65040.5146     0.15927E+02 
  65072.7767     0.16068E+02 
  65105.0389     0.16211E+02 
  65137.3010     0.16356E+02 
  65169.5632     0.16502E+02 
  65201.8254     0.16649E+02 
  65234.0875     0.16798E+02 
  65266.3497     0.16948E+02 
  65298.6118     0.17099E+02 
  65330.8740     0.17252E+02 
  65363.1362     0.17407E+02 
  65395.3983     0.17563E+02 
  65427.6605     0.17720E+02 
  65459.9226     0.17879E+02 
  65492.1848     0.18040E+02 
  65524.4470     0.18202E+02 
  65556.7091     0.18365E+02 
  65588.9713     0.18530E+02 
  65621.2334     0.18697E+02 
  65653.4956     0.18865E+02 
  65685.7578     0.19034E+02 
  65718.0199     0.19206E+02 
  65750.2821     0.19378E+02 
  65782.5442     0.19552E+02 
  65814.8064     0.19728E+02 
  65847.0686     0.19905E+02 
  65879.3307     0.20084E+02 
  65911.5929     0.20265E+02 
  65943.8550     0.20447E+02 
  65976.1172     0.20630E+02 
  66008.3794     0.20815E+02 
  66040.6415     0.21002E+02 
  66072.9037     0.21190E+02 
  66105.1658     0.21380E+02 
  66137.4280     0.21572E+02 
  66169.6902     0.21765E+02 
  66201.9523     0.21960E+02 
  66234.2145     0.22156E+02 
  66266.4766     0.22354E+02 
  66298.7388     0.22554E+02 
  66331.0010     0.22755E+02 
  66363.2631     0.22958E+02 
  66395.5253     0.23162E+02 
  66427.7874     0.23369E+02 
  66460.0496     0.23576E+02 
  66492.3118     0.23786E+02 
  66524.5739     0.23997E+02 
  66556.8361     0.24210E+02 
  66589.0982     0.24425E+02 
  66621.3604     0.24641E+02 
  66653.6226     0.24859E+02 
  66685.8847     0.25079E+02 
  66718.1469     0.25300E+02 
  66750.4090     0.25523E+02 
  66782.6712     0.25748E+02 
  66814.9334     0.25974E+02 
  66847.1955     0.26202E+02 
  66879.4577     0.26432E+02 
  66911.7198     0.26664E+02 
  66943.9820     0.26897E+02 
  66976.2442     0.27132E+02 
  67008.5063     0.27369E+02 
  67040.7685     0.27608E+02 
  67073.0306     0.27848E+02 
  67105.2928     0.28090E+02 
  67137.5550     0.28334E+02 
  67169.8171     0.28580E+02 
  67202.0793     0.28827E+02 
  67234.3414     0.29076E+02 
  67266.6036     0.29327E+02 
  67298.8658     0.29580E+02 
  67331.1279     0.29834E+02 
  67363.3901     0.30091E+02 
  67395.6522     0.30349E+02 
  67427.9144     0.30609E+02 
  67460.1766     0.30870E+02 
  67492.4387     0.31134E+02 
  67524.7009     0.31399E+02 
  67556.9630     0.31666E+02 
  67589.2252     0.31935E+02 
  67621.4874     0.32206E+02 
  67653.7495     0.32478E+02 
  67686.0117     0.32753E+02 
  67718.2738     0.33029E+02 
  67750.5360     0.33307E+02 
  67782.7982     0.33587E+02 
  67815.0603     0.33869E+02 
  67847.3225     0.34152E+02 
  67879.5846     0.34438E+02 
  67911.8468     0.34725E+02 
  67944.1090     0.35014E+02 
  67976.3711     0.35305E+02 
  68008.6333     0.35598E+02 
  68040.8954     0.35892E+02 
  68073.1576     0.36189E+02 
  68105.4198     0.36487E+02 
  68137.6819     0.36788E+02 
  68169.9441     0.37090E+02 
  68202.2062     0.37394E+02 
  68234.4684     0.37700E+02 
  68266.7306     0.38008E+02 
  68298.9927     0.38317E+02 
  68331.2549     0.38629E+02 
  68363.5170     0.38942E+02 
  68395.7792     0.39258E+02 
  68428.0414     0.39575E+02 
  68460.3035     0.39894E+02 
  68492.5657     0.40215E+02 
  68524.8278     0.40538E+02 
  68557.0900     0.40863E+02 
  68589.3522     0.41189E+02 
  68621.6143     0.41518E+02 
  68653.8765     0.41849E+02 
  68686.1386     0.42181E+02 
  68718.4008     0.42515E+02 
  68750.6630     0.42851E+02 
  68782.9251     0.43190E+02 
  68815.1873     0.43530E+02 
  68847.4494     0.43872E+02 
  68879.7116     0.44216E+02 
  68911.9738     0.44561E+02 
  68944.2359     0.44909E+02 
  68976.4981     0.45259E+02 
  69008.7602     0.45610E+02 
  69041.0224     0.45964E+02 
  69073.2846     0.46319E+02 
  69105.5467     0.46676E+02 
  69137.8089     0.47036E+02 
  69170.0710     0.47397E+02 
  69202.3332     0.47760E+02 
  69234.5954     0.48125E+02 
  69266.8575     0.48492E+02 
  69299.1197     0.48861E+02 
  69331.3818     0.49231E+02 
  69363.6440     0.49604E+02 
  69395.9062     0.49979E+02 
  69428.1683     0.50355E+02 
  69460.4305     0.50734E+02 
  69492.6926     0.51114E+02 
  69524.9548     0.51496E+02 
  69557.2170     0.51881E+02 
  69589.4791     0.52267E+02 
  69621.7413     0.52655E+02 
  69654.0034     0.53045E+02 
  69686.2656     0.53437E+02 
  69718.5278     0.53830E+02 
  69750.7899     0.54226E+02 
  69783.0521     0.54624E+02 
  69815.3142     0.55023E+02 
  69847.5764     0.55425E+02 
  69879.8386     0.55828E+02 
  69912.1007     0.56233E+02 
  69944.3629     0.56641E+02 
  69976.6250     0.57050E+02 
  70008.8872     0.57461E+02 
  70041.1494     0.57874E+02 
  70073.4115     0.58288E+02 
  70105.6737     0.58705E+02 
  70137.9358     0.59124E+02 
  70170.1980     0.59544E+02 
  70202.4602     0.59967E+02 
  70234.7223     0.60391E+02 
  70266.9845     0.60817E+02 
  70299.2466     0.61245E+02 
  70331.5088     0.61675E+02 
  70363.7710     0.62107E+02 
  70396.0331     0.62541E+02 
  70428.2953     0.62976E+02 
  70460.5574     0.63414E+02 
  70492.8196     0.63853E+02 
  70525.0818     0.64294E+02 
  70557.3439     0.64737E+02 
  70589.6061     0.65182E+02 
  70621.8682     0.65629E+02 
  70654.1304     0.66078E+02 
  70686.3926     0.66528E+02 
  70718.6547     0.66981E+02 
  70750.9169     0.67435E+02 
  70783.1790     0.67891E+02 
  70815.4412     0.68349E+02 
  70847.7034     0.68808E+02 
  70879.9655     0.69270E+02 
  70912.2277     0.69733E+02 
  70944.4898     0.70198E+02 
  70976.7520     0.70665E+02 
  71009.0142     0.71134E+02 
  71041.2763     0.71605E+02 
  71073.5385     0.72077E+02 
  71105.8006     0.72551E+02 
  71138.0628     0.73027E+02 
  71170.3250     0.73505E+02 
  71202.5871     0.73984E+02 
  71234.8493     0.74466E+02 
  71267.1114     0.74949E+02 
  71299.3736     0.75434E+02 
  71331.6358     0.75920E+02 
  71363.8979     0.76409E+02 
  71396.1601     0.76899E+02 
  71428.4222     0.77391E+02 
  71460.6844     0.77884E+02 
  71492.9466     0.78379E+02 
  71525.2087     0.78877E+02 
  71557.4709     0.79375E+02 
  71589.7330     0.79876E+02 
  71621.9952     0.80378E+02 
  71654.2574     0.80882E+02 
  71686.5195     0.81387E+02 
  71718.7817     0.81895E+02 
  71751.0438     0.82403E+02 
  71783.3060     0.82914E+02 
  71815.5682     0.83426E+02 
  71847.8303     0.83940E+02 
  71880.0925     0.84456E+02 
  71912.3546     0.84973E+02 
  71944.6168     0.85492E+02 
  71976.8790     0.86012E+02 
  72009.1411     0.86534E+02 
  72041.4033     0.87058E+02 
  72073.6654     0.87584E+02 
  72105.9276     0.88110E+02 
  72138.1898     0.88639E+02 
  72170.4519     0.89169E+02 
  72202.7141     0.89701E+02 
  72234.9762     0.90234E+02 
  72267.2384     0.90769E+02 
  72299.5006     0.91305E+02 
  72331.7627     0.91843E+02 
  72364.0249     0.92382E+02 
  72396.2870     0.92923E+02 
  72428.5492     0.93466E+02 
  72460.8114     0.94010E+02 
  72493.0735     0.94555E+02 
  72525.3357     0.95102E+02 
  72557.5978     0.95650E+02 
  72589.8600     0.96200E+02 
