  32262.1600     0.16438E-03 
  32294.4222     0.16583E-03 
  32326.6843     0.16728E-03 
  32358.9465     0.16874E-03 
  32391.2086     0.17021E-03 
  32423.4708     0.17169E-03 
  32455.7330     0.17318E-03 
  32487.9951     0.17467E-03 
  32520.2573     0.17617E-03 
  32552.5194     0.17768E-03 
  32584.7816     0.17920E-03 
  32617.0438     0.18072E-03 
  32649.3059     0.18225E-03 
  32681.5681     0.18379E-03 
  32713.8302     0.18534E-03 
  32746.0924     0.18690E-03 
  32778.3546     0.18846E-03 
  32810.6167     0.19003E-03 
  32842.8789     0.19161E-03 
  32875.1410     0.19319E-03 
  32907.4032     0.19478E-03 
  32939.6654     0.19638E-03 
  32971.9275     0.19799E-03 
  33004.1897     0.19961E-03 
  33036.4518     0.20123E-03 
  33068.7140     0.20286E-03 
  33100.9762     0.20450E-03 
  33133.2383     0.20614E-03 
  33165.5005     0.20779E-03 
  33197.7626     0.20945E-03 
  33230.0248     0.21112E-03 
  33262.2870     0.21280E-03 
  33294.5491     0.21448E-03 
  33326.8113     0.21617E-03 
  33359.0734     0.21786E-03 
  33391.3356     0.21956E-03 
  33423.5978     0.22127E-03 
  33455.8599     0.22299E-03 
  33488.1221     0.22472E-03 
  33520.3842     0.22645E-03 
  33552.6464     0.22819E-03 
  33584.9086     0.22993E-03 
  33617.1707     0.23168E-03 
  33649.4329     0.23344E-03 
  33681.6950     0.23521E-03 
  33713.9572     0.23698E-03 
  33746.2194     0.23876E-03 
  33778.4815     0.24055E-03 
  33810.7437     0.24234E-03 
  33843.0058     0.24414E-03 
  33875.2680     0.24595E-03 
  33907.5302     0.24776E-03 
  33939.7923     0.24958E-03 
  33972.0545     0.25141E-03 
  34004.3166     0.25324E-03 
  34036.5788     0.25508E-03 
  34068.8410     0.25693E-03 
  34101.1031     0.25878E-03 
  34133.3653     0.26064E-03 
  34165.6274     0.26250E-03 
  34197.8896     0.26438E-03 
  34230.1518     0.26625E-03 
  34262.4139     0.26814E-03 
  34294.6761     0.27003E-03 
  34326.9382     0.27192E-03 
  34359.2004     0.27382E-03 
  34391.4626     0.27573E-03 
  34423.7247     0.27765E-03 
  34455.9869     0.27956E-03 
  34488.2490     0.28149E-03 
  34520.5112     0.28342E-03 
  34552.7734     0.28536E-03 
  34585.0355     0.28730E-03 
  34617.2977     0.28925E-03 
  34649.5598     0.29120E-03 
  34681.8220     0.29316E-03 
  34714.0842     0.29513E-03 
  34746.3463     0.29710E-03 
  34778.6085     0.29907E-03 
  34810.8706     0.30105E-03 
  34843.1328     0.30304E-03 
  34875.3950     0.30503E-03 
  34907.6571     0.30702E-03 
  34939.9193     0.30903E-03 
  34972.1814     0.31103E-03 
  35004.4436     0.31304E-03 
  35036.7058     0.31506E-03 
  35068.9679     0.31708E-03 
  35101.2301     0.31910E-03 
  35133.4922     0.32113E-03 
  35165.7544     0.32317E-03 
  35198.0166     0.32521E-03 
  35230.2787     0.32725E-03 
  35262.5409     0.32930E-03 
  35294.8030     0.33135E-03 
  35327.0652     0.33341E-03 
  35359.3274     0.33547E-03 
  35391.5895     0.33754E-03 
  35423.8517     0.33960E-03 
  35456.1138     0.34168E-03 
  35488.3760     0.34376E-03 
  35520.6382     0.34584E-03 
  35552.9003     0.34792E-03 
  35585.1625     0.35001E-03 
  35617.4246     0.35210E-03 
  35649.6868     0.35420E-03 
  35681.9490     0.35630E-03 
  35714.2111     0.35840E-03 
  35746.4733     0.36051E-03 
  35778.7354     0.36262E-03 
  35810.9976     0.36473E-03 
  35843.2598     0.36684E-03 
  35875.5219     0.36896E-03 
  35907.7841     0.37109E-03 
  35940.0462     0.37321E-03 
  35972.3084     0.37534E-03 
  36004.5706     0.37747E-03 
  36036.8327     0.37960E-03 
  36069.0949     0.38174E-03 
  36101.3570     0.38388E-03 
  36133.6192     0.38602E-03 
  36165.8814     0.38816E-03 
  36198.1435     0.39031E-03 
  36230.4057     0.39246E-03 
  36262.6678     0.39461E-03 
  36294.9300     0.39676E-03 
  36327.1922     0.39891E-03 
  36359.4543     0.40107E-03 
  36391.7165     0.40323E-03 
  36423.9786     0.40539E-03 
  36456.2408     0.40755E-03 
  36488.5030     0.40971E-03 
  36520.7651     0.41187E-03 
  36553.0273     0.41404E-03 
  36585.2894     0.41621E-03 
  36617.5516     0.41838E-03 
  36649.8138     0.42054E-03 
  36682.0759     0.42272E-03 
  36714.3381     0.42489E-03 
  36746.6002     0.42706E-03 
  36778.8624     0.42923E-03 
  36811.1246     0.43141E-03 
  36843.3867     0.43358E-03 
  36875.6489     0.43576E-03 
  36907.9110     0.43793E-03 
  36940.1732     0.44011E-03 
  36972.4354     0.44228E-03 
  37004.6975     0.44446E-03 
  37036.9597     0.44664E-03 
  37069.2218     0.44881E-03 
  37101.4840     0.45099E-03 
  37133.7462     0.45317E-03 
  37166.0083     0.45534E-03 
  37198.2705     0.45752E-03 
  37230.5326     0.45969E-03 
  37262.7948     0.46187E-03 
  37295.0570     0.46404E-03 
  37327.3191     0.46622E-03 
  37359.5813     0.46839E-03 
  37391.8434     0.47056E-03 
  37424.1056     0.47273E-03 
  37456.3678     0.47490E-03 
  37488.6299     0.47707E-03 
  37520.8921     0.47924E-03 
  37553.1542     0.48140E-03 
  37585.4164     0.48357E-03 
  37617.6786     0.48573E-03 
  37649.9407     0.48789E-03 
  37682.2029     0.49005E-03 
  37714.4650     0.49221E-03 
  37746.7272     0.49437E-03 
  37778.9894     0.49652E-03 
  37811.2515     0.49867E-03 
  37843.5137     0.50082E-03 
  37875.7758     0.50297E-03 
  37908.0380     0.50511E-03 
  37940.3002     0.50726E-03 
  37972.5623     0.50940E-03 
  38004.8245     0.51153E-03 
  38037.0866     0.51367E-03 
  38069.3488     0.51580E-03 
  38101.6110     0.51793E-03 
  38133.8731     0.52005E-03 
  38166.1353     0.52218E-03 
  38198.3974     0.52430E-03 
  38230.6596     0.52641E-03 
  38262.9218     0.52853E-03 
  38295.1839     0.53063E-03 
  38327.4461     0.53274E-03 
  38359.7082     0.53484E-03 
  38391.9704     0.53694E-03 
  38424.2326     0.53903E-03 
  38456.4947     0.54112E-03 
  38488.7569     0.54321E-03 
  38521.0190     0.54529E-03 
  38553.2812     0.54737E-03 
  38585.5434     0.54944E-03 
  38617.8055     0.55151E-03 
  38650.0677     0.55358E-03 
  38682.3298     0.55564E-03 
  38714.5920     0.55769E-03 
  38746.8542     0.55974E-03 
  38779.1163     0.56179E-03 
  38811.3785     0.56383E-03 
  38843.6406     0.56586E-03 
  38875.9028     0.56789E-03 
  38908.1650     0.56992E-03 
  38940.4271     0.57193E-03 
  38972.6893     0.57395E-03 
  39004.9514     0.57596E-03 
  39037.2136     0.57796E-03 
  39069.4758     0.57995E-03 
  39101.7379     0.58195E-03 
  39134.0001     0.58393E-03 
  39166.2622     0.58591E-03 
  39198.5244     0.58788E-03 
  39230.7866     0.58985E-03 
  39263.0487     0.59181E-03 
  39295.3109     0.59376E-03 
  39327.5730     0.59571E-03 
  39359.8352     0.59765E-03 
  39392.0974     0.59958E-03 
  39424.3595     0.60151E-03 
  39456.6217     0.60343E-03 
  39488.8838     0.60534E-03 
  39521.1460     0.60725E-03 
  39553.4082     0.60915E-03 
  39585.6703     0.61104E-03 
  39617.9325     0.61292E-03 
  39650.1946     0.61480E-03 
  39682.4568     0.61667E-03 
  39714.7190     0.61853E-03 
  39746.9811     0.62039E-03 
  39779.2433     0.62223E-03 
  39811.5054     0.62407E-03 
  39843.7676     0.62590E-03 
  39876.0298     0.62773E-03 
  39908.2919     0.62954E-03 
  39940.5541     0.63135E-03 
  39972.8162     0.63315E-03 
  40005.0784     0.63494E-03 
  40037.3406     0.63672E-03 
  40069.6027     0.63849E-03 
  40101.8649     0.64026E-03 
  40134.1270     0.64201E-03 
  40166.3892     0.64376E-03 
  40198.6514     0.64550E-03 
  40230.9135     0.64723E-03 
  40263.1757     0.64895E-03 
  40295.4378     0.65066E-03 
  40327.7000     0.65236E-03 
  40359.9622     0.65405E-03 
  40392.2243     0.65573E-03 
  40424.4865     0.65741E-03 
  40456.7486     0.65907E-03 
  40489.0108     0.66073E-03 
  40521.2730     0.66237E-03 
  40553.5351     0.66401E-03 
  40585.7973     0.66563E-03 
  40618.0594     0.66725E-03 
  40650.3216     0.66886E-03 
  40682.5838     0.67045E-03 
  40714.8459     0.67204E-03 
  40747.1081     0.67361E-03 
  40779.3702     0.67518E-03 
  40811.6324     0.67673E-03 
  40843.8946     0.67828E-03 
  40876.1567     0.67981E-03 
  40908.4189     0.68133E-03 
  40940.6810     0.68285E-03 
  40972.9432     0.68435E-03 
  41005.2054     0.68584E-03 
  41037.4675     0.68732E-03 
  41069.7297     0.68879E-03 
  41101.9918     0.69025E-03 
  41134.2540     0.69170E-03 
  41166.5162     0.69313E-03 
  41198.7783     0.69456E-03 
  41231.0405     0.69597E-03 
  41263.3026     0.69738E-03 
  41295.5648     0.69877E-03 
  41327.8270     0.70015E-03 
  41360.0891     0.70152E-03 
  41392.3513     0.70287E-03 
  41424.6134     0.70422E-03 
  41456.8756     0.70555E-03 
  41489.1378     0.70688E-03 
  41521.3999     0.70819E-03 
  41553.6621     0.70948E-03 
  41585.9242     0.71077E-03 
  41618.1864     0.71205E-03 
  41650.4486     0.71331E-03 
  41682.7107     0.71456E-03 
  41714.9729     0.71580E-03 
  41747.2350     0.71702E-03 
  41779.4972     0.71824E-03 
  41811.7594     0.71944E-03 
  41844.0215     0.72063E-03 
  41876.2837     0.72180E-03 
  41908.5458     0.72297E-03 
  41940.8080     0.72412E-03 
  41973.0702     0.72526E-03 
  42005.3323     0.72638E-03 
  42037.5945     0.72750E-03 
  42069.8566     0.72860E-03 
  42102.1188     0.72969E-03 
  42134.3810     0.73076E-03 
  42166.6431     0.73183E-03 
  42198.9053     0.73288E-03 
  42231.1674     0.73391E-03 
  42263.4296     0.73494E-03 
  42295.6918     0.73595E-03 
  42327.9539     0.73694E-03 
  42360.2161     0.73793E-03 
  42392.4782     0.73890E-03 
  42424.7404     0.73986E-03 
  42457.0026     0.74080E-03 
  42489.2647     0.74173E-03 
  42521.5269     0.74265E-03 
  42553.7890     0.74356E-03 
  42586.0512     0.74445E-03 
  42618.3134     0.74533E-03 
  42650.5755     0.74619E-03 
  42682.8377     0.74704E-03 
  42715.0998     0.74788E-03 
  42747.3620     0.74870E-03 
  42779.6242     0.74951E-03 
  42811.8863     0.75031E-03 
  42844.1485     0.75109E-03 
  42876.4106     0.75186E-03 
  42908.6728     0.75262E-03 
  42940.9350     0.75336E-03 
  42973.1971     0.75409E-03 
  43005.4593     0.75480E-03 
  43037.7214     0.75550E-03 
  43069.9836     0.75619E-03 
  43102.2458     0.75686E-03 
  43134.5079     0.75752E-03 
  43166.7701     0.75816E-03 
  43199.0322     0.75879E-03 
  43231.2944     0.75941E-03 
  43263.5566     0.76001E-03 
  43295.8187     0.76060E-03 
  43328.0809     0.76118E-03 
  43360.3430     0.76174E-03 
  43392.6052     0.76228E-03 
  43424.8674     0.76281E-03 
  43457.1295     0.76333E-03 
  43489.3917     0.76384E-03 
  43521.6538     0.76433E-03 
  43553.9160     0.76480E-03 
  43586.1782     0.76526E-03 
  43618.4403     0.76571E-03 
  43650.7025     0.76614E-03 
  43682.9646     0.76656E-03 
  43715.2268     0.76696E-03 
  43747.4890     0.76735E-03 
  43779.7511     0.76773E-03 
  43812.0133     0.76809E-03 
  43844.2754     0.76844E-03 
  43876.5376     0.76877E-03 
  43908.7998     0.76909E-03 
  43941.0619     0.76939E-03 
  43973.3241     0.76968E-03 
  44005.5862     0.76996E-03 
  44037.8484     0.77022E-03 
  44070.1106     0.77047E-03 
  44102.3727     0.77070E-03 
  44134.6349     0.77092E-03 
  44166.8970     0.77112E-03 
  44199.1592     0.77131E-03 
  44231.4214     0.77149E-03 
  44263.6835     0.77165E-03 
  44295.9457     0.77180E-03 
  44328.2078     0.77193E-03 
  44360.4700     0.77205E-03 
  44392.7322     0.77215E-03 
  44424.9943     0.77224E-03 
  44457.2565     0.77231E-03 
  44489.5186     0.77238E-03 
  44521.7808     0.77242E-03 
  44554.0430     0.77245E-03 
  44586.3051     0.77247E-03 
  44618.5673     0.77248E-03 
  44650.8294     0.77247E-03 
  44683.0916     0.77244E-03 
  44715.3538     0.77240E-03 
  44747.6159     0.77235E-03 
  44779.8781     0.77228E-03 
  44812.1402     0.77220E-03 
  44844.4024     0.77210E-03 
  44876.6646     0.77200E-03 
  44908.9267     0.77187E-03 
  44941.1889     0.77173E-03 
  44973.4510     0.77158E-03 
  45005.7132     0.77142E-03 
  45037.9754     0.77123E-03 
  45070.2375     0.77104E-03 
  45102.4997     0.77083E-03 
  45134.7618     0.77061E-03 
  45167.0240     0.77037E-03 
  45199.2862     0.77012E-03 
  45231.5483     0.76986E-03 
  45263.8105     0.76958E-03 
  45296.0726     0.76929E-03 
  45328.3348     0.76898E-03 
  45360.5970     0.76866E-03 
  45392.8591     0.76833E-03 
  45425.1213     0.76798E-03 
  45457.3834     0.76762E-03 
  45489.6456     0.76725E-03 
  45521.9078     0.76686E-03 
  45554.1699     0.76646E-03 
  45586.4321     0.76604E-03 
  45618.6942     0.76561E-03 
  45650.9564     0.76517E-03 
  45683.2186     0.76471E-03 
  45715.4807     0.76424E-03 
  45747.7429     0.76376E-03 
  45780.0050     0.76326E-03 
  45812.2672     0.76275E-03 
  45844.5294     0.76223E-03 
  45876.7915     0.76169E-03 
  45909.0537     0.76114E-03 
  45941.3158     0.76058E-03 
  45973.5780     0.76000E-03 
  46005.8402     0.75941E-03 
  46038.1023     0.75881E-03 
  46070.3645     0.75819E-03 
  46102.6266     0.75756E-03 
  46134.8888     0.75692E-03 
  46167.1510     0.75626E-03 
  46199.4131     0.75560E-03 
  46231.6753     0.75492E-03 
  46263.9374     0.75422E-03 
  46296.1996     0.75351E-03 
  46328.4618     0.75280E-03 
  46360.7239     0.75206E-03 
  46392.9861     0.75132E-03 
  46425.2482     0.75056E-03 
  46457.5104     0.74979E-03 
  46489.7726     0.74901E-03 
  46522.0347     0.74821E-03 
  46554.2969     0.74740E-03 
  46586.5590     0.74658E-03 
  46618.8212     0.74575E-03 
  46651.0834     0.74491E-03 
  46683.3455     0.74405E-03 
  46715.6077     0.74318E-03 
  46747.8698     0.74230E-03 
  46780.1320     0.74141E-03 
  46812.3942     0.74050E-03 
  46844.6563     0.73958E-03 
  46876.9185     0.73865E-03 
  46909.1806     0.73771E-03 
  46941.4428     0.73676E-03 
  46973.7050     0.73579E-03 
  47005.9671     0.73482E-03 
  47038.2293     0.73383E-03 
  47070.4914     0.73283E-03 
  47102.7536     0.73182E-03 
  47135.0158     0.73079E-03 
  47167.2779     0.72976E-03 
  47199.5401     0.72871E-03 
  47231.8022     0.72766E-03 
  47264.0644     0.72659E-03 
  47296.3266     0.72551E-03 
  47328.5887     0.72442E-03 
  47360.8509     0.72331E-03 
  47393.1130     0.72220E-03 
  47425.3752     0.72108E-03 
  47457.6374     0.71994E-03 
  47489.8995     0.71879E-03 
  47522.1617     0.71764E-03 
  47554.4238     0.71647E-03 
  47586.6860     0.71529E-03 
  47618.9482     0.71410E-03 
  47651.2103     0.71290E-03 
  47683.4725     0.71169E-03 
  47715.7346     0.71047E-03 
  47747.9968     0.70924E-03 
  47780.2590     0.70800E-03 
  47812.5211     0.70675E-03 
  47844.7833     0.70549E-03 
  47877.0454     0.70421E-03 
  47909.3076     0.70293E-03 
  47941.5698     0.70164E-03 
  47973.8319     0.70034E-03 
  48006.0941     0.69903E-03 
  48038.3562     0.69770E-03 
  48070.6184     0.69637E-03 
  48102.8806     0.69503E-03 
  48135.1427     0.69368E-03 
  48167.4049     0.69232E-03 
  48199.6670     0.69095E-03 
  48231.9292     0.68957E-03 
  48264.1914     0.68818E-03 
  48296.4535     0.68679E-03 
  48328.7157     0.68538E-03 
  48360.9778     0.68396E-03 
  48393.2400     0.68254E-03 
  48425.5022     0.68110E-03 
  48457.7643     0.67966E-03 
  48490.0265     0.67821E-03 
  48522.2886     0.67675E-03 
  48554.5508     0.67528E-03 
  48586.8130     0.67380E-03 
  48619.0751     0.67231E-03 
  48651.3373     0.67082E-03 
  48683.5994     0.66931E-03 
  48715.8616     0.66780E-03 
  48748.1238     0.66628E-03 
  48780.3859     0.66475E-03 
  48812.6481     0.66321E-03 
  48844.9102     0.66167E-03 
  48877.1724     0.66012E-03 
  48909.4346     0.65855E-03 
  48941.6967     0.65698E-03 
  48973.9589     0.65541E-03 
  49006.2210     0.65382E-03 
  49038.4832     0.65223E-03 
  49070.7454     0.65063E-03 
  49103.0075     0.64902E-03 
  49135.2697     0.64741E-03 
  49167.5318     0.64578E-03 
  49199.7940     0.64415E-03 
  49232.0562     0.64252E-03 
  49264.3183     0.64087E-03 
  49296.5805     0.63922E-03 
  49328.8426     0.63756E-03 
  49361.1048     0.63590E-03 
  49393.3670     0.63423E-03 
  49425.6291     0.63255E-03 
  49457.8913     0.63086E-03 
  49490.1534     0.62917E-03 
  49522.4156     0.62747E-03 
  49554.6778     0.62576E-03 
  49586.9399     0.62405E-03 
  49619.2021     0.62233E-03 
  49651.4642     0.62061E-03 
  49683.7264     0.61887E-03 
  49715.9886     0.61714E-03 
  49748.2507     0.61539E-03 
  49780.5129     0.61364E-03 
  49812.7750     0.61189E-03 
  49845.0372     0.61013E-03 
  49877.2994     0.60836E-03 
  49909.5615     0.60658E-03 
  49941.8237     0.60481E-03 
  49974.0858     0.60302E-03 
  50006.3480     0.60123E-03 
  50038.6102     0.59944E-03 
  50070.8723     0.59763E-03 
  50103.1345     0.59583E-03 
  50135.3966     0.59402E-03 
  50167.6588     0.59220E-03 
  50199.9210     0.59038E-03 
  50232.1831     0.58855E-03 
  50264.4453     0.58672E-03 
  50296.7074     0.58488E-03 
  50328.9696     0.58304E-03 
  50361.2318     0.58119E-03 
  50393.4939     0.57934E-03 
  50425.7561     0.57749E-03 
  50458.0182     0.57563E-03 
  50490.2804     0.57376E-03 
  50522.5426     0.57189E-03 
  50554.8047     0.57002E-03 
  50587.0669     0.56814E-03 
  50619.3290     0.56626E-03 
  50651.5912     0.56437E-03 
  50683.8534     0.56248E-03 
  50716.1155     0.56059E-03 
  50748.3777     0.55869E-03 
  50780.6398     0.55679E-03 
  50812.9020     0.55488E-03 
  50845.1642     0.55297E-03 
  50877.4263     0.55106E-03 
  50909.6885     0.54914E-03 
  50941.9506     0.54722E-03 
  50974.2128     0.54530E-03 
  51006.4750     0.54337E-03 
  51038.7371     0.54144E-03 
  51070.9993     0.53951E-03 
  51103.2614     0.53757E-03 
  51135.5236     0.53564E-03 
  51167.7858     0.53369E-03 
  51200.0479     0.53175E-03 
  51232.3101     0.52980E-03 
  51264.5722     0.52785E-03 
  51296.8344     0.52589E-03 
  51329.0966     0.52394E-03 
  51361.3587     0.52198E-03 
  51393.6209     0.52002E-03 
  51425.8830     0.51805E-03 
  51458.1452     0.51608E-03 
  51490.4074     0.51412E-03 
  51522.6695     0.51214E-03 
  51554.9317     0.51017E-03 
  51587.1938     0.50819E-03 
  51619.4560     0.50622E-03 
  51651.7182     0.50424E-03 
  51683.9803     0.50226E-03 
  51716.2425     0.50027E-03 
  51748.5046     0.49829E-03 
  51780.7668     0.49630E-03 
  51813.0290     0.49431E-03 
  51845.2911     0.49232E-03 
  51877.5533     0.49033E-03 
  51909.8154     0.48833E-03 
  51942.0776     0.48634E-03 
  51974.3398     0.48434E-03 
  52006.6019     0.48234E-03 
  52038.8641     0.48035E-03 
  52071.1262     0.47834E-03 
  52103.3884     0.47634E-03 
  52135.6506     0.47434E-03 
  52167.9127     0.47234E-03 
  52200.1749     0.47033E-03 
  52232.4370     0.46833E-03 
  52264.6992     0.46632E-03 
  52296.9614     0.46432E-03 
  52329.2235     0.46231E-03 
  52361.4857     0.46030E-03 
  52393.7478     0.45829E-03 
  52426.0100     0.45628E-03 
  52458.2722     0.45427E-03 
  52490.5343     0.45226E-03 
  52522.7965     0.45025E-03 
  52555.0586     0.44824E-03 
  52587.3208     0.44623E-03 
  52619.5830     0.44422E-03 
  52651.8451     0.44221E-03 
  52684.1073     0.44020E-03 
  52716.3694     0.43818E-03 
  52748.6316     0.43617E-03 
  52780.8938     0.43416E-03 
  52813.1559     0.43215E-03 
  52845.4181     0.43014E-03 
  52877.6802     0.42813E-03 
  52909.9424     0.42612E-03 
  52942.2046     0.42411E-03 
  52974.4667     0.42210E-03 
  53006.7289     0.42009E-03 
  53038.9910     0.41808E-03 
  53071.2532     0.41608E-03 
  53103.5154     0.41407E-03 
  53135.7775     0.41206E-03 
  53168.0397     0.41006E-03 
  53200.3018     0.40805E-03 
  53232.5640     0.40605E-03 
  53264.8262     0.40405E-03 
  53297.0883     0.40205E-03 
  53329.3505     0.40005E-03 
  53361.6126     0.39805E-03 
  53393.8748     0.39605E-03 
  53426.1370     0.39405E-03 
  53458.3991     0.39206E-03 
  53490.6613     0.39006E-03 
  53522.9234     0.38807E-03 
  53555.1856     0.38608E-03 
  53587.4478     0.38409E-03 
  53619.7099     0.38210E-03 
  53651.9721     0.38011E-03 
  53684.2342     0.37812E-03 
  53716.4964     0.37614E-03 
  53748.7586     0.37416E-03 
  53781.0207     0.37218E-03 
  53813.2829     0.37020E-03 
  53845.5450     0.36822E-03 
  53877.8072     0.36625E-03 
  53910.0694     0.36427E-03 
  53942.3315     0.36230E-03 
  53974.5937     0.36033E-03 
  54006.8558     0.35837E-03 
  54039.1180     0.35640E-03 
  54071.3802     0.35444E-03 
  54103.6423     0.35248E-03 
  54135.9045     0.35052E-03 
  54168.1666     0.34856E-03 
  54200.4288     0.34661E-03 
  54232.6910     0.34466E-03 
  54264.9531     0.34271E-03 
  54297.2153     0.34076E-03 
  54329.4774     0.33882E-03 
  54361.7396     0.33688E-03 
  54394.0018     0.33494E-03 
  54426.2639     0.33301E-03 
  54458.5261     0.33107E-03 
  54490.7882     0.32914E-03 
  54523.0504     0.32722E-03 
  54555.3126     0.32529E-03 
  54587.5747     0.32337E-03 
  54619.8369     0.32145E-03 
  54652.0990     0.31953E-03 
  54684.3612     0.31762E-03 
  54716.6234     0.31571E-03 
  54748.8855     0.31381E-03 
  54781.1477     0.31190E-03 
  54813.4098     0.31000E-03 
  54845.6720     0.30810E-03 
  54877.9342     0.30621E-03 
  54910.1963     0.30432E-03 
  54942.4585     0.30243E-03 
  54974.7206     0.30055E-03 
  55006.9828     0.29867E-03 
  55039.2450     0.29679E-03 
  55071.5071     0.29492E-03 
  55103.7693     0.29305E-03 
  55136.0314     0.29118E-03 
  55168.2936     0.28932E-03 
  55200.5558     0.28746E-03 
  55232.8179     0.28561E-03 
  55265.0801     0.28375E-03 
  55297.3422     0.28191E-03 
  55329.6044     0.28006E-03 
  55361.8666     0.27822E-03 
  55394.1287     0.27639E-03 
  55426.3909     0.27455E-03 
  55458.6530     0.27273E-03 
  55490.9152     0.27090E-03 
  55523.1774     0.26908E-03 
  55555.4395     0.26726E-03 
  55587.7017     0.26545E-03 
  55619.9638     0.26364E-03 
  55652.2260     0.26184E-03 
  55684.4882     0.26004E-03 
  55716.7503     0.25825E-03 
  55749.0125     0.25645E-03 
  55781.2746     0.25467E-03 
  55813.5368     0.25289E-03 
  55845.7990     0.25111E-03 
  55878.0611     0.24933E-03 
  55910.3233     0.24757E-03 
  55942.5854     0.24580E-03 
  55974.8476     0.24404E-03 
  56007.1098     0.24229E-03 
  56039.3719     0.24054E-03 
  56071.6341     0.23879E-03 
  56103.8962     0.23705E-03 
  56136.1584     0.23531E-03 
  56168.4206     0.23358E-03 
  56200.6827     0.23185E-03 
  56232.9449     0.23013E-03 
  56265.2070     0.22841E-03 
  56297.4692     0.22670E-03 
  56329.7314     0.22499E-03 
  56361.9935     0.22329E-03 
  56394.2557     0.22159E-03 
  56426.5178     0.21990E-03 
  56458.7800     0.21821E-03 
  56491.0422     0.21653E-03 
  56523.3043     0.21485E-03 
  56555.5665     0.21318E-03 
  56587.8286     0.21151E-03 
  56620.0908     0.20985E-03 
  56652.3530     0.20820E-03 
  56684.6151     0.20655E-03 
  56716.8773     0.20490E-03 
  56749.1394     0.20326E-03 
  56781.4016     0.20162E-03 
  56813.6638     0.20000E-03 
  56845.9259     0.19837E-03 
  56878.1881     0.19675E-03 
  56910.4502     0.19514E-03 
  56942.7124     0.19353E-03 
  56974.9746     0.19193E-03 
  57007.2367     0.19034E-03 
  57039.4989     0.18875E-03 
  57071.7610     0.18716E-03 
  57104.0232     0.18559E-03 
  57136.2854     0.18401E-03 
  57168.5475     0.18245E-03 
  57200.8097     0.18089E-03 
  57233.0718     0.17933E-03 
  57265.3340     0.17778E-03 
  57297.5962     0.17624E-03 
  57329.8583     0.17470E-03 
  57362.1205     0.17317E-03 
  57394.3826     0.17165E-03 
  57426.6448     0.17013E-03 
  57458.9070     0.16862E-03 
  57491.1691     0.16711E-03 
  57523.4313     0.16561E-03 
  57555.6934     0.16412E-03 
  57587.9556     0.16263E-03 
  57620.2178     0.16115E-03 
  57652.4799     0.15968E-03 
  57684.7421     0.15821E-03 
  57717.0042     0.15675E-03 
  57749.2664     0.15530E-03 
  57781.5286     0.15385E-03 
  57813.7907     0.15241E-03 
  57846.0529     0.15098E-03 
  57878.3150     0.14955E-03 
  57910.5772     0.14813E-03 
  57942.8394     0.14672E-03 
  57975.1015     0.14531E-03 
  58007.3637     0.14391E-03 
  58039.6258     0.14252E-03 
  58071.8880     0.14113E-03 
  58104.1502     0.13976E-03 
  58136.4123     0.13838E-03 
  58168.6745     0.13702E-03 
  58200.9366     0.13566E-03 
  58233.1988     0.13431E-03 
  58265.4610     0.13297E-03 
  58297.7231     0.13164E-03 
  58329.9853     0.13031E-03 
  58362.2474     0.12899E-03 
  58394.5096     0.12768E-03 
  58426.7718     0.12637E-03 
  58459.0339     0.12508E-03 
  58491.2961     0.12379E-03 
  58523.5582     0.12250E-03 
  58555.8204     0.12123E-03 
  58588.0826     0.11996E-03 
  58620.3447     0.11871E-03 
  58652.6069     0.11746E-03 
  58684.8690     0.11621E-03 
  58717.1312     0.11498E-03 
  58749.3934     0.11376E-03 
  58781.6555     0.11254E-03 
  58813.9177     0.11133E-03 
  58846.1798     0.11013E-03 
  58878.4420     0.10893E-03 
  58910.7042     0.10775E-03 
  58942.9663     0.10657E-03 
  58975.2285     0.10541E-03 
  59007.4906     0.10425E-03 
  59039.7528     0.10310E-03 
  59072.0150     0.10196E-03 
  59104.2771     0.10083E-03 
  59136.5393     0.99702E-04 
  59168.8014     0.98588E-04 
  59201.0636     0.97483E-04 
  59233.3258     0.96386E-04 
  59265.5879     0.95299E-04 
  59297.8501     0.94221E-04 
  59330.1122     0.93153E-04 
  59362.3744     0.92094E-04 
  59394.6366     0.91044E-04 
  59426.8987     0.90004E-04 
  59459.1609     0.88973E-04 
  59491.4230     0.87953E-04 
  59523.6852     0.86942E-04 
  59555.9474     0.85940E-04 
  59588.2095     0.84949E-04 
  59620.4717     0.83968E-04 
  59652.7338     0.82997E-04 
  59684.9960     0.82036E-04 
  59717.2582     0.81085E-04 
  59749.5203     0.80145E-04 
  59781.7825     0.79215E-04 
  59814.0446     0.78295E-04 
  59846.3068     0.77386E-04 
  59878.5690     0.76488E-04 
  59910.8311     0.75601E-04 
  59943.0933     0.74724E-04 
  59975.3554     0.73859E-04 
  60007.6176     0.73004E-04 
  60039.8798     0.72161E-04 
  60072.1419     0.71329E-04 
  60104.4041     0.70508E-04 
  60136.6662     0.69699E-04 
  60168.9284     0.68901E-04 
  60201.1906     0.68115E-04 
  60233.4527     0.67341E-04 
  60265.7149     0.66579E-04 
  60297.9770     0.65828E-04 
  60330.2392     0.65090E-04 
  60362.5014     0.64364E-04 
  60394.7635     0.63650E-04 
  60427.0257     0.62948E-04 
  60459.2878     0.62259E-04 
  60491.5500     0.61583E-04 
  60523.8122     0.60919E-04 
  60556.0743     0.60269E-04 
  60588.3365     0.59631E-04 
  60620.5986     0.59006E-04 
  60652.8608     0.58395E-04 
  60685.1230     0.57797E-04 
  60717.3851     0.57212E-04 
  60749.6473     0.56641E-04 
  60781.9094     0.56084E-04 
  60814.1716     0.55541E-04 
  60846.4338     0.55011E-04 
  60878.6959     0.54496E-04 
  60910.9581     0.53995E-04 
  60943.2202     0.53508E-04 
  60975.4824     0.53036E-04 
  61007.7446     0.52579E-04 
  61040.0067     0.52136E-04 
  61072.2689     0.51708E-04 
  61104.5310     0.51296E-04 
  61136.7932     0.50898E-04 
  61169.0554     0.50516E-04 
  61201.3175     0.50150E-04 
  61233.5797     0.49799E-04 
  61265.8418     0.49464E-04 
  61298.1040     0.49145E-04 
  61330.3662     0.48842E-04 
  61362.6283     0.48556E-04 
  61394.8905     0.48285E-04 
  61427.1526     0.48032E-04 
  61459.4148     0.47795E-04 
  61491.6770     0.47575E-04 
  61523.9391     0.47373E-04 
  61556.2013     0.47187E-04 
  61588.4634     0.47019E-04 
  61620.7256     0.46869E-04 
  61652.9878     0.46737E-04 
  61685.2499     0.46622E-04 
  61717.5121     0.46526E-04 
  61749.7742     0.46448E-04 
  61782.0364     0.46388E-04 
  61814.2986     0.46347E-04 
  61846.5607     0.46325E-04 
  61878.8229     0.46322E-04 
  61911.0850     0.46339E-04 
  61943.3472     0.46375E-04 
  61975.6094     0.46430E-04 
  62007.8715     0.46505E-04 
  62040.1337     0.46601E-04 
  62072.3958     0.46716E-04 
  62104.6580     0.46853E-04 
  62136.9202     0.47009E-04 
  62169.1823     0.47187E-04 
  62201.4445     0.47386E-04 
  62233.7066     0.47605E-04 
  62265.9688     0.47847E-04 
  62298.2310     0.48110E-04 
  62330.4931     0.48395E-04 
  62362.7553     0.48702E-04 
  62395.0174     0.49032E-04 
  62427.2796     0.49384E-04 
  62459.5418     0.49759E-04 
  62491.8039     0.50157E-04 
  62524.0661     0.50578E-04 
  62556.3282     0.51023E-04 
  62588.5904     0.51492E-04 
  62620.8526     0.51984E-04 
  62653.1147     0.52501E-04 
  62685.3769     0.53042E-04 
  62717.6390     0.53608E-04 
  62749.9012     0.54199E-04 
  62782.1634     0.54815E-04 
  62814.4255     0.55457E-04 
  62846.6877     0.56124E-04 
  62878.9498     0.56818E-04 
  62911.2120     0.57537E-04 
  62943.4742     0.58283E-04 
  62975.7363     0.59056E-04 
  63007.9985     0.59856E-04 
  63040.2606     0.60683E-04 
  63072.5228     0.61537E-04 
  63104.7850     0.62420E-04 
  63137.0471     0.63330E-04 
  63169.3093     0.64269E-04 
  63201.5714     0.65237E-04 
  63233.8336     0.66233E-04 
  63266.0958     0.67259E-04 
  63298.3579     0.68314E-04 
  63330.6201     0.69399E-04 
  63362.8822     0.70514E-04 
  63395.1444     0.71660E-04 
  63427.4066     0.72836E-04 
  63459.6687     0.74043E-04 
  63491.9309     0.75281E-04 
  63524.1930     0.76551E-04 
  63556.4552     0.77853E-04 
  63588.7174     0.79187E-04 
  63620.9795     0.80554E-04 
  63653.2417     0.81954E-04 
  63685.5038     0.83386E-04 
  63717.7660     0.84852E-04 
  63750.0282     0.86352E-04 
  63782.2903     0.87886E-04 
  63814.5525     0.89454E-04 
  63846.8146     0.91058E-04 
  63879.0768     0.92696E-04 
  63911.3390     0.94369E-04 
  63943.6011     0.96079E-04 
  63975.8633     0.97824E-04 
  64008.1254     0.99606E-04 
  64040.3876     0.10142E-03 
  64072.6498     0.10328E-03 
  64104.9119     0.10517E-03 
  64137.1741     0.10711E-03 
  64169.4362     0.10907E-03 
  64201.6984     0.11108E-03 
  64233.9606     0.11313E-03 
  64266.2227     0.11521E-03 
  64298.4849     0.11734E-03 
  64330.7470     0.11951E-03 
  64363.0092     0.12171E-03 
  64395.2714     0.12396E-03 
  64427.5335     0.12625E-03 
  64459.7957     0.12857E-03 
  64492.0578     0.13095E-03 
  64524.3200     0.13336E-03 
  64556.5822     0.13581E-03 
  64588.8443     0.13831E-03 
  64621.1065     0.14085E-03 
  64653.3686     0.14344E-03 
  64685.6308     0.14607E-03 
  64717.8930     0.14874E-03 
  64750.1551     0.15146E-03 
  64782.4173     0.15423E-03 
  64814.6794     0.15704E-03 
  64846.9416     0.15989E-03 
  64879.2038     0.16280E-03 
  64911.4659     0.16575E-03 
  64943.7281     0.16874E-03 
  64975.9902     0.17179E-03 
  65008.2524     0.17488E-03 
  65040.5146     0.17802E-03 
  65072.7767     0.18121E-03 
  65105.0389     0.18445E-03 
  65137.3010     0.18774E-03 
  65169.5632     0.19108E-03 
  65201.8254     0.19447E-03 
  65234.0875     0.19791E-03 
  65266.3497     0.20141E-03 
  65298.6118     0.20495E-03 
  65330.8740     0.20855E-03 
  65363.1362     0.21220E-03 
  65395.3983     0.21590E-03 
  65427.6605     0.21966E-03 
  65459.9226     0.22347E-03 
  65492.1848     0.22734E-03 
  65524.4470     0.23126E-03 
  65556.7091     0.23523E-03 
  65588.9713     0.23926E-03 
  65621.2334     0.24335E-03 
  65653.4956     0.24750E-03 
  65685.7578     0.25170E-03 
  65718.0199     0.25596E-03 
  65750.2821     0.26028E-03 
  65782.5442     0.26465E-03 
  65814.8064     0.26909E-03 
  65847.0686     0.27358E-03 
  65879.3307     0.27814E-03 
  65911.5929     0.28275E-03 
  65943.8550     0.28743E-03 
  65976.1172     0.29217E-03 
  66008.3794     0.29697E-03 
  66040.6415     0.30183E-03 
  66072.9037     0.30675E-03 
  66105.1658     0.31174E-03 
  66137.4280     0.31679E-03 
  66169.6902     0.32190E-03 
  66201.9523     0.32708E-03 
  66234.2145     0.33233E-03 
  66266.4766     0.33764E-03 
  66298.7388     0.34302E-03 
  66331.0010     0.34846E-03 
  66363.2631     0.35397E-03 
  66395.5253     0.35955E-03 
  66427.7874     0.36519E-03 
  66460.0496     0.37091E-03 
  66492.3118     0.37669E-03 
  66524.5739     0.38254E-03 
  66556.8361     0.38847E-03 
  66589.0982     0.39446E-03 
  66621.3604     0.40052E-03 
  66653.6226     0.40666E-03 
  66685.8847     0.41286E-03 
  66718.1469     0.41914E-03 
  66750.4090     0.42549E-03 
  66782.6712     0.43192E-03 
  66814.9334     0.43842E-03 
  66847.1955     0.44499E-03 
  66879.4577     0.45164E-03 
  66911.7198     0.45836E-03 
  66943.9820     0.46516E-03 
  66976.2442     0.47204E-03 
  67008.5063     0.47899E-03 
  67040.7685     0.48602E-03 
  67073.0306     0.49312E-03 
  67105.2928     0.50031E-03 
  67137.5550     0.50757E-03 
  67169.8171     0.51491E-03 
  67202.0793     0.52234E-03 
  67234.3414     0.52984E-03 
  67266.6036     0.53742E-03 
  67298.8658     0.54508E-03 
  67331.1279     0.55283E-03 
  67363.3901     0.56066E-03 
  67395.6522     0.56857E-03 
  67427.9144     0.57656E-03 
  67460.1766     0.58464E-03 
  67492.4387     0.59280E-03 
  67524.7009     0.60104E-03 
  67556.9630     0.60938E-03 
  67589.2252     0.61779E-03 
  67621.4874     0.62629E-03 
  67653.7495     0.63488E-03 
  67686.0117     0.64356E-03 
  67718.2738     0.65232E-03 
  67750.5360     0.66117E-03 
  67782.7982     0.67011E-03 
  67815.0603     0.67914E-03 
  67847.3225     0.68825E-03 
  67879.5846     0.69746E-03 
  67911.8468     0.70676E-03 
  67944.1090     0.71614E-03 
  67976.3711     0.72562E-03 
  68008.6333     0.73519E-03 
  68040.8954     0.74485E-03 
  68073.1576     0.75461E-03 
  68105.4198     0.76446E-03 
  68137.6819     0.77440E-03 
  68169.9441     0.78443E-03 
  68202.2062     0.79456E-03 
  68234.4684     0.80479E-03 
  68266.7306     0.81511E-03 
  68298.9927     0.82553E-03 
  68331.2549     0.83604E-03 
  68363.5170     0.84665E-03 
  68395.7792     0.85735E-03 
  68428.0414     0.86815E-03 
  68460.3035     0.87906E-03 
  68492.5657     0.89006E-03 
  68524.8278     0.90115E-03 
  68557.0900     0.91235E-03 
  68589.3522     0.92365E-03 
  68621.6143     0.93505E-03 
  68653.8765     0.94655E-03 
  68686.1386     0.95814E-03 
  68718.4008     0.96985E-03 
  68750.6630     0.98165E-03 
  68782.9251     0.99355E-03 
  68815.1873     0.10056E-02 
  68847.4494     0.10177E-02 
  68879.7116     0.10299E-02 
  68911.9738     0.10422E-02 
  68944.2359     0.10546E-02 
  68976.4981     0.10671E-02 
  69008.7602     0.10798E-02 
  69041.0224     0.10925E-02 
  69073.2846     0.11054E-02 
  69105.5467     0.11183E-02 
  69137.8089     0.11314E-02 
  69170.0710     0.11445E-02 
  69202.3332     0.11578E-02 
  69234.5954     0.11712E-02 
  69266.8575     0.11847E-02 
  69299.1197     0.11982E-02 
  69331.3818     0.12119E-02 
  69363.6440     0.12258E-02 
  69395.9062     0.12397E-02 
  69428.1683     0.12537E-02 
  69460.4305     0.12678E-02 
  69492.6926     0.12821E-02 
  69524.9548     0.12965E-02 
  69557.2170     0.13109E-02 
  69589.4791     0.13255E-02 
  69621.7413     0.13402E-02 
  69654.0034     0.13550E-02 
  69686.2656     0.13699E-02 
  69718.5278     0.13850E-02 
  69750.7899     0.14001E-02 
  69783.0521     0.14154E-02 
  69815.3142     0.14307E-02 
  69847.5764     0.14462E-02 
  69879.8386     0.14618E-02 
  69912.1007     0.14775E-02 
  69944.3629     0.14933E-02 
  69976.6250     0.15093E-02 
  70008.8872     0.15253E-02 
  70041.1494     0.15415E-02 
  70073.4115     0.15578E-02 
  70105.6737     0.15742E-02 
  70137.9358     0.15907E-02 
  70170.1980     0.16073E-02 
  70202.4602     0.16241E-02 
  70234.7223     0.16410E-02 
  70266.9845     0.16579E-02 
  70299.2466     0.16750E-02 
  70331.5088     0.16922E-02 
  70363.7710     0.17096E-02 
  70396.0331     0.17270E-02 
  70428.2953     0.17446E-02 
  70460.5574     0.17623E-02 
  70492.8196     0.17801E-02 
  70525.0818     0.17980E-02 
  70557.3439     0.18160E-02 
  70589.6061     0.18342E-02 
  70621.8682     0.18525E-02 
  70654.1304     0.18709E-02 
  70686.3926     0.18894E-02 
  70718.6547     0.19080E-02 
  70750.9169     0.19268E-02 
  70783.1790     0.19456E-02 
  70815.4412     0.19646E-02 
  70847.7034     0.19837E-02 
  70879.9655     0.20029E-02 
  70912.2277     0.20223E-02 
  70944.4898     0.20417E-02 
  70976.7520     0.20613E-02 
  71009.0142     0.20810E-02 
  71041.2763     0.21008E-02 
  71073.5385     0.21208E-02 
  71105.8006     0.21408E-02 
  71138.0628     0.21610E-02 
  71170.3250     0.21813E-02 
  71202.5871     0.22017E-02 
  71234.8493     0.22223E-02 
  71267.1114     0.22429E-02 
  71299.3736     0.22637E-02 
  71331.6358     0.22846E-02 
  71363.8979     0.23056E-02 
  71396.1601     0.23267E-02 
  71428.4222     0.23480E-02 
  71460.6844     0.23693E-02 
  71492.9466     0.23908E-02 
  71525.2087     0.24124E-02 
  71557.4709     0.24341E-02 
  71589.7330     0.24560E-02 
  71621.9952     0.24780E-02 
  71654.2574     0.25000E-02 
  71686.5195     0.25222E-02 
  71718.7817     0.25445E-02 
  71751.0438     0.25670E-02 
  71783.3060     0.25895E-02 
  71815.5682     0.26122E-02 
  71847.8303     0.26350E-02 
  71880.0925     0.26579E-02 
  71912.3546     0.26809E-02 
  71944.6168     0.27040E-02 
  71976.8790     0.27273E-02 
  72009.1411     0.27506E-02 
  72041.4033     0.27741E-02 
  72073.6654     0.27977E-02 
  72105.9276     0.28214E-02 
  72138.1898     0.28453E-02 
  72170.4519     0.28692E-02 
  72202.7141     0.28933E-02 
  72234.9762     0.29175E-02 
  72267.2384     0.29417E-02 
  72299.5006     0.29661E-02 
  72331.7627     0.29907E-02 
  72364.0249     0.30153E-02 
  72396.2870     0.30400E-02 
  72428.5492     0.30649E-02 
  72460.8114     0.30899E-02 
  72493.0735     0.31149E-02 
  72525.3357     0.31401E-02 
  72557.5978     0.31654E-02 
  72589.8600     0.31908E-02 
