  32262.1600     0.24020E+00 
  32294.4222     0.24117E+00 
  32326.6843     0.24214E+00 
  32358.9465     0.24312E+00 
  32391.2086     0.24410E+00 
  32423.4708     0.24508E+00 
  32455.7330     0.24607E+00 
  32487.9951     0.24706E+00 
  32520.2573     0.24805E+00 
  32552.5194     0.24905E+00 
  32584.7816     0.25004E+00 
  32617.0438     0.25104E+00 
  32649.3059     0.25205E+00 
  32681.5681     0.25305E+00 
  32713.8302     0.25406E+00 
  32746.0924     0.25508E+00 
  32778.3546     0.25609E+00 
  32810.6167     0.25711E+00 
  32842.8789     0.25813E+00 
  32875.1410     0.25916E+00 
  32907.4032     0.26019E+00 
  32939.6654     0.26122E+00 
  32971.9275     0.26225E+00 
  33004.1897     0.26329E+00 
  33036.4518     0.26433E+00 
  33068.7140     0.26537E+00 
  33100.9762     0.26642E+00 
  33133.2383     0.26747E+00 
  33165.5005     0.26852E+00 
  33197.7626     0.26958E+00 
  33230.0248     0.27064E+00 
  33262.2870     0.27170E+00 
  33294.5491     0.27276E+00 
  33326.8113     0.27383E+00 
  33359.0734     0.27490E+00 
  33391.3356     0.27598E+00 
  33423.5978     0.27705E+00 
  33455.8599     0.27814E+00 
  33488.1221     0.27922E+00 
  33520.3842     0.28031E+00 
  33552.6464     0.28140E+00 
  33584.9086     0.28249E+00 
  33617.1707     0.28359E+00 
  33649.4329     0.28469E+00 
  33681.6950     0.28579E+00 
  33713.9572     0.28689E+00 
  33746.2194     0.28800E+00 
  33778.4815     0.28912E+00 
  33810.7437     0.29023E+00 
  33843.0058     0.29135E+00 
  33875.2680     0.29247E+00 
  33907.5302     0.29360E+00 
  33939.7923     0.29473E+00 
  33972.0545     0.29586E+00 
  34004.3166     0.29699E+00 
  34036.5788     0.29813E+00 
  34068.8410     0.29927E+00 
  34101.1031     0.30042E+00 
  34133.3653     0.30157E+00 
  34165.6274     0.30272E+00 
  34197.8896     0.30387E+00 
  34230.1518     0.30503E+00 
  34262.4139     0.30619E+00 
  34294.6761     0.30736E+00 
  34326.9382     0.30853E+00 
  34359.2004     0.30970E+00 
  34391.4626     0.31087E+00 
  34423.7247     0.31205E+00 
  34455.9869     0.31323E+00 
  34488.2490     0.31442E+00 
  34520.5112     0.31560E+00 
  34552.7734     0.31679E+00 
  34585.0355     0.31799E+00 
  34617.2977     0.31919E+00 
  34649.5598     0.32039E+00 
  34681.8220     0.32159E+00 
  34714.0842     0.32280E+00 
  34746.3463     0.32401E+00 
  34778.6085     0.32523E+00 
  34810.8706     0.32645E+00 
  34843.1328     0.32767E+00 
  34875.3950     0.32889E+00 
  34907.6571     0.33012E+00 
  34939.9193     0.33135E+00 
  34972.1814     0.33259E+00 
  35004.4436     0.33383E+00 
  35036.7058     0.33507E+00 
  35068.9679     0.33632E+00 
  35101.2301     0.33757E+00 
  35133.4922     0.33882E+00 
  35165.7544     0.34008E+00 
  35198.0166     0.34133E+00 
  35230.2787     0.34260E+00 
  35262.5409     0.34386E+00 
  35294.8030     0.34513E+00 
  35327.0652     0.34641E+00 
  35359.3274     0.34769E+00 
  35391.5895     0.34897E+00 
  35423.8517     0.35025E+00 
  35456.1138     0.35154E+00 
  35488.3760     0.35283E+00 
  35520.6382     0.35413E+00 
  35552.9003     0.35542E+00 
  35585.1625     0.35673E+00 
  35617.4246     0.35803E+00 
  35649.6868     0.35934E+00 
  35681.9490     0.36065E+00 
  35714.2111     0.36197E+00 
  35746.4733     0.36329E+00 
  35778.7354     0.36461E+00 
  35810.9976     0.36594E+00 
  35843.2598     0.36727E+00 
  35875.5219     0.36861E+00 
  35907.7841     0.36994E+00 
  35940.0462     0.37129E+00 
  35972.3084     0.37263E+00 
  36004.5706     0.37398E+00 
  36036.8327     0.37533E+00 
  36069.0949     0.37669E+00 
  36101.3570     0.37805E+00 
  36133.6192     0.37941E+00 
  36165.8814     0.38078E+00 
  36198.1435     0.38215E+00 
  36230.4057     0.38352E+00 
  36262.6678     0.38490E+00 
  36294.9300     0.38629E+00 
  36327.1922     0.38767E+00 
  36359.4543     0.38906E+00 
  36391.7165     0.39045E+00 
  36423.9786     0.39185E+00 
  36456.2408     0.39325E+00 
  36488.5030     0.39466E+00 
  36520.7651     0.39606E+00 
  36553.0273     0.39748E+00 
  36585.2894     0.39889E+00 
  36617.5516     0.40031E+00 
  36649.8138     0.40173E+00 
  36682.0759     0.40316E+00 
  36714.3381     0.40459E+00 
  36746.6002     0.40603E+00 
  36778.8624     0.40746E+00 
  36811.1246     0.40891E+00 
  36843.3867     0.41035E+00 
  36875.6489     0.41180E+00 
  36907.9110     0.41326E+00 
  36940.1732     0.41471E+00 
  36972.4354     0.41618E+00 
  37004.6975     0.41764E+00 
  37036.9597     0.41911E+00 
  37069.2218     0.42058E+00 
  37101.4840     0.42206E+00 
  37133.7462     0.42354E+00 
  37166.0083     0.42503E+00 
  37198.2705     0.42651E+00 
  37230.5326     0.42801E+00 
  37262.7948     0.42950E+00 
  37295.0570     0.43100E+00 
  37327.3191     0.43251E+00 
  37359.5813     0.43402E+00 
  37391.8434     0.43553E+00 
  37424.1056     0.43704E+00 
  37456.3678     0.43856E+00 
  37488.6299     0.44009E+00 
  37520.8921     0.44161E+00 
  37553.1542     0.44315E+00 
  37585.4164     0.44468E+00 
  37617.6786     0.44622E+00 
  37649.9407     0.44777E+00 
  37682.2029     0.44931E+00 
  37714.4650     0.45087E+00 
  37746.7272     0.45242E+00 
  37778.9894     0.45398E+00 
  37811.2515     0.45554E+00 
  37843.5137     0.45711E+00 
  37875.7758     0.45868E+00 
  37908.0380     0.46026E+00 
  37940.3002     0.46184E+00 
  37972.5623     0.46342E+00 
  38004.8245     0.46501E+00 
  38037.0866     0.46660E+00 
  38069.3488     0.46820E+00 
  38101.6110     0.46980E+00 
  38133.8731     0.47141E+00 
  38166.1353     0.47301E+00 
  38198.3974     0.47463E+00 
  38230.6596     0.47624E+00 
  38262.9218     0.47786E+00 
  38295.1839     0.47949E+00 
  38327.4461     0.48112E+00 
  38359.7082     0.48275E+00 
  38391.9704     0.48439E+00 
  38424.2326     0.48603E+00 
  38456.4947     0.48768E+00 
  38488.7569     0.48933E+00 
  38521.0190     0.49098E+00 
  38553.2812     0.49264E+00 
  38585.5434     0.49430E+00 
  38617.8055     0.49597E+00 
  38650.0677     0.49764E+00 
  38682.3298     0.49931E+00 
  38714.5920     0.50099E+00 
  38746.8542     0.50268E+00 
  38779.1163     0.50437E+00 
  38811.3785     0.50606E+00 
  38843.6406     0.50775E+00 
  38875.9028     0.50945E+00 
  38908.1650     0.51116E+00 
  38940.4271     0.51287E+00 
  38972.6893     0.51458E+00 
  39004.9514     0.51630E+00 
  39037.2136     0.51802E+00 
  39069.4758     0.51975E+00 
  39101.7379     0.52148E+00 
  39134.0001     0.52321E+00 
  39166.2622     0.52495E+00 
  39198.5244     0.52670E+00 
  39230.7866     0.52844E+00 
  39263.0487     0.53020E+00 
  39295.3109     0.53195E+00 
  39327.5730     0.53371E+00 
  39359.8352     0.53548E+00 
  39392.0974     0.53725E+00 
  39424.3595     0.53902E+00 
  39456.6217     0.54080E+00 
  39488.8838     0.54258E+00 
  39521.1460     0.54437E+00 
  39553.4082     0.54616E+00 
  39585.6703     0.54796E+00 
  39617.9325     0.54976E+00 
  39650.1946     0.55156E+00 
  39682.4568     0.55337E+00 
  39714.7190     0.55519E+00 
  39746.9811     0.55701E+00 
  39779.2433     0.55883E+00 
  39811.5054     0.56066E+00 
  39843.7676     0.56249E+00 
  39876.0298     0.56432E+00 
  39908.2919     0.56616E+00 
  39940.5541     0.56801E+00 
  39972.8162     0.56986E+00 
  40005.0784     0.57171E+00 
  40037.3406     0.57357E+00 
  40069.6027     0.57544E+00 
  40101.8649     0.57730E+00 
  40134.1270     0.57918E+00 
  40166.3892     0.58105E+00 
  40198.6514     0.58293E+00 
  40230.9135     0.58482E+00 
  40263.1757     0.58671E+00 
  40295.4378     0.58861E+00 
  40327.7000     0.59051E+00 
  40359.9622     0.59241E+00 
  40392.2243     0.59432E+00 
  40424.4865     0.59623E+00 
  40456.7486     0.59815E+00 
  40489.0108     0.60007E+00 
  40521.2730     0.60200E+00 
  40553.5351     0.60393E+00 
  40585.7973     0.60587E+00 
  40618.0594     0.60781E+00 
  40650.3216     0.60976E+00 
  40682.5838     0.61171E+00 
  40714.8459     0.61366E+00 
  40747.1081     0.61562E+00 
  40779.3702     0.61759E+00 
  40811.6324     0.61956E+00 
  40843.8946     0.62153E+00 
  40876.1567     0.62351E+00 
  40908.4189     0.62549E+00 
  40940.6810     0.62748E+00 
  40972.9432     0.62947E+00 
  41005.2054     0.63147E+00 
  41037.4675     0.63348E+00 
  41069.7297     0.63548E+00 
  41101.9918     0.63749E+00 
  41134.2540     0.63951E+00 
  41166.5162     0.64153E+00 
  41198.7783     0.64356E+00 
  41231.0405     0.64559E+00 
  41263.3026     0.64763E+00 
  41295.5648     0.64967E+00 
  41327.8270     0.65171E+00 
  41360.0891     0.65376E+00 
  41392.3513     0.65582E+00 
  41424.6134     0.65788E+00 
  41456.8756     0.65994E+00 
  41489.1378     0.66201E+00 
  41521.3999     0.66409E+00 
  41553.6621     0.66617E+00 
  41585.9242     0.66825E+00 
  41618.1864     0.67034E+00 
  41650.4486     0.67244E+00 
  41682.7107     0.67454E+00 
  41714.9729     0.67664E+00 
  41747.2350     0.67875E+00 
  41779.4972     0.68086E+00 
  41811.7594     0.68298E+00 
  41844.0215     0.68511E+00 
  41876.2837     0.68724E+00 
  41908.5458     0.68937E+00 
  41940.8080     0.69151E+00 
  41973.0702     0.69365E+00 
  42005.3323     0.69580E+00 
  42037.5945     0.69795E+00 
  42069.8566     0.70011E+00 
  42102.1188     0.70228E+00 
  42134.3810     0.70445E+00 
  42166.6431     0.70662E+00 
  42198.9053     0.70880E+00 
  42231.1674     0.71098E+00 
  42263.4296     0.71317E+00 
  42295.6918     0.71537E+00 
  42327.9539     0.71756E+00 
  42360.2161     0.71977E+00 
  42392.4782     0.72198E+00 
  42424.7404     0.72419E+00 
  42457.0026     0.72641E+00 
  42489.2647     0.72864E+00 
  42521.5269     0.73087E+00 
  42553.7890     0.73310E+00 
  42586.0512     0.73534E+00 
  42618.3134     0.73759E+00 
  42650.5755     0.73984E+00 
  42682.8377     0.74209E+00 
  42715.0998     0.74435E+00 
  42747.3620     0.74662E+00 
  42779.6242     0.74889E+00 
  42811.8863     0.75116E+00 
  42844.1485     0.75345E+00 
  42876.4106     0.75573E+00 
  42908.6728     0.75802E+00 
  42940.9350     0.76032E+00 
  42973.1971     0.76262E+00 
  43005.4593     0.76493E+00 
  43037.7214     0.76724E+00 
  43069.9836     0.76956E+00 
  43102.2458     0.77188E+00 
  43134.5079     0.77421E+00 
  43166.7701     0.77654E+00 
  43199.0322     0.77888E+00 
  43231.2944     0.78123E+00 
  43263.5566     0.78358E+00 
  43295.8187     0.78593E+00 
  43328.0809     0.78829E+00 
  43360.3430     0.79066E+00 
  43392.6052     0.79303E+00 
  43424.8674     0.79540E+00 
  43457.1295     0.79779E+00 
  43489.3917     0.80017E+00 
  43521.6538     0.80256E+00 
  43553.9160     0.80496E+00 
  43586.1782     0.80736E+00 
  43618.4403     0.80977E+00 
  43650.7025     0.81219E+00 
  43682.9646     0.81461E+00 
  43715.2268     0.81703E+00 
  43747.4890     0.81946E+00 
  43779.7511     0.82190E+00 
  43812.0133     0.82434E+00 
  43844.2754     0.82678E+00 
  43876.5376     0.82923E+00 
  43908.7998     0.83169E+00 
  43941.0619     0.83415E+00 
  43973.3241     0.83662E+00 
  44005.5862     0.83910E+00 
  44037.8484     0.84157E+00 
  44070.1106     0.84406E+00 
  44102.3727     0.84655E+00 
  44134.6349     0.84904E+00 
  44166.8970     0.85155E+00 
  44199.1592     0.85405E+00 
  44231.4214     0.85656E+00 
  44263.6835     0.85908E+00 
  44295.9457     0.86161E+00 
  44328.2078     0.86413E+00 
  44360.4700     0.86667E+00 
  44392.7322     0.86921E+00 
  44424.9943     0.87175E+00 
  44457.2565     0.87431E+00 
  44489.5186     0.87686E+00 
  44521.7808     0.87942E+00 
  44554.0430     0.88199E+00 
  44586.3051     0.88457E+00 
  44618.5673     0.88715E+00 
  44650.8294     0.88973E+00 
  44683.0916     0.89232E+00 
  44715.3538     0.89492E+00 
  44747.6159     0.89752E+00 
  44779.8781     0.90013E+00 
  44812.1402     0.90274E+00 
  44844.4024     0.90536E+00 
  44876.6646     0.90798E+00 
  44908.9267     0.91062E+00 
  44941.1889     0.91325E+00 
  44973.4510     0.91589E+00 
  45005.7132     0.91854E+00 
  45037.9754     0.92120E+00 
  45070.2375     0.92385E+00 
  45102.4997     0.92652E+00 
  45134.7618     0.92919E+00 
  45167.0240     0.93187E+00 
  45199.2862     0.93455E+00 
  45231.5483     0.93724E+00 
  45263.8105     0.93993E+00 
  45296.0726     0.94263E+00 
  45328.3348     0.94534E+00 
  45360.5970     0.94805E+00 
  45392.8591     0.95077E+00 
  45425.1213     0.95349E+00 
  45457.3834     0.95622E+00 
  45489.6456     0.95895E+00 
  45521.9078     0.96169E+00 
  45554.1699     0.96444E+00 
  45586.4321     0.96719E+00 
  45618.6942     0.96995E+00 
  45650.9564     0.97272E+00 
  45683.2186     0.97549E+00 
  45715.4807     0.97826E+00 
  45747.7429     0.98105E+00 
  45780.0050     0.98383E+00 
  45812.2672     0.98663E+00 
  45844.5294     0.98943E+00 
  45876.7915     0.99223E+00 
  45909.0537     0.99505E+00 
  45941.3158     0.99786E+00 
  45973.5780     0.10007E+01 
  46005.8402     0.10035E+01 
  46038.1023     0.10064E+01 
  46070.3645     0.10092E+01 
  46102.6266     0.10120E+01 
  46134.8888     0.10149E+01 
  46167.1510     0.10178E+01 
  46199.4131     0.10206E+01 
  46231.6753     0.10235E+01 
  46263.9374     0.10264E+01 
  46296.1996     0.10293E+01 
  46328.4618     0.10322E+01 
  46360.7239     0.10350E+01 
  46392.9861     0.10380E+01 
  46425.2482     0.10409E+01 
  46457.5104     0.10438E+01 
  46489.7726     0.10467E+01 
  46522.0347     0.10496E+01 
  46554.2969     0.10526E+01 
  46586.5590     0.10555E+01 
  46618.8212     0.10584E+01 
  46651.0834     0.10614E+01 
  46683.3455     0.10644E+01 
  46715.6077     0.10673E+01 
  46747.8698     0.10703E+01 
  46780.1320     0.10733E+01 
  46812.3942     0.10763E+01 
  46844.6563     0.10792E+01 
  46876.9185     0.10822E+01 
  46909.1806     0.10852E+01 
  46941.4428     0.10882E+01 
  46973.7050     0.10913E+01 
  47005.9671     0.10943E+01 
  47038.2293     0.10973E+01 
  47070.4914     0.11003E+01 
  47102.7536     0.11034E+01 
  47135.0158     0.11064E+01 
  47167.2779     0.11095E+01 
  47199.5401     0.11125E+01 
  47231.8022     0.11156E+01 
  47264.0644     0.11187E+01 
  47296.3266     0.11218E+01 
  47328.5887     0.11248E+01 
  47360.8509     0.11279E+01 
  47393.1130     0.11310E+01 
  47425.3752     0.11341E+01 
  47457.6374     0.11372E+01 
  47489.8995     0.11404E+01 
  47522.1617     0.11435E+01 
  47554.4238     0.11466E+01 
  47586.6860     0.11497E+01 
  47618.9482     0.11529E+01 
  47651.2103     0.11560E+01 
  47683.4725     0.11592E+01 
  47715.7346     0.11624E+01 
  47747.9968     0.11655E+01 
  47780.2590     0.11687E+01 
  47812.5211     0.11719E+01 
  47844.7833     0.11751E+01 
  47877.0454     0.11783E+01 
  47909.3076     0.11815E+01 
  47941.5698     0.11847E+01 
  47973.8319     0.11879E+01 
  48006.0941     0.11911E+01 
  48038.3562     0.11943E+01 
  48070.6184     0.11976E+01 
  48102.8806     0.12008E+01 
  48135.1427     0.12040E+01 
  48167.4049     0.12073E+01 
  48199.6670     0.12106E+01 
  48231.9292     0.12138E+01 
  48264.1914     0.12171E+01 
  48296.4535     0.12204E+01 
  48328.7157     0.12237E+01 
  48360.9778     0.12270E+01 
  48393.2400     0.12303E+01 
  48425.5022     0.12336E+01 
  48457.7643     0.12369E+01 
  48490.0265     0.12402E+01 
  48522.2886     0.12435E+01 
  48554.5508     0.12469E+01 
  48586.8130     0.12502E+01 
  48619.0751     0.12535E+01 
  48651.3373     0.12569E+01 
  48683.5994     0.12603E+01 
  48715.8616     0.12636E+01 
  48748.1238     0.12670E+01 
  48780.3859     0.12704E+01 
  48812.6481     0.12738E+01 
  48844.9102     0.12772E+01 
  48877.1724     0.12806E+01 
  48909.4346     0.12840E+01 
  48941.6967     0.12874E+01 
  48973.9589     0.12908E+01 
  49006.2210     0.12942E+01 
  49038.4832     0.12977E+01 
  49070.7454     0.13011E+01 
  49103.0075     0.13046E+01 
  49135.2697     0.13080E+01 
  49167.5318     0.13115E+01 
  49199.7940     0.13149E+01 
  49232.0562     0.13184E+01 
  49264.3183     0.13219E+01 
  49296.5805     0.13254E+01 
  49328.8426     0.13289E+01 
  49361.1048     0.13324E+01 
  49393.3670     0.13359E+01 
  49425.6291     0.13394E+01 
  49457.8913     0.13430E+01 
  49490.1534     0.13465E+01 
  49522.4156     0.13500E+01 
  49554.6778     0.13536E+01 
  49586.9399     0.13571E+01 
  49619.2021     0.13607E+01 
  49651.4642     0.13643E+01 
  49683.7264     0.13678E+01 
  49715.9886     0.13714E+01 
  49748.2507     0.13750E+01 
  49780.5129     0.13786E+01 
  49812.7750     0.13822E+01 
  49845.0372     0.13858E+01 
  49877.2994     0.13894E+01 
  49909.5615     0.13930E+01 
  49941.8237     0.13967E+01 
  49974.0858     0.14003E+01 
  50006.3480     0.14040E+01 
  50038.6102     0.14076E+01 
  50070.8723     0.14113E+01 
  50103.1345     0.14149E+01 
  50135.3966     0.14186E+01 
  50167.6588     0.14223E+01 
  50199.9210     0.14260E+01 
  50232.1831     0.14297E+01 
  50264.4453     0.14334E+01 
  50296.7074     0.14371E+01 
  50328.9696     0.14408E+01 
  50361.2318     0.14445E+01 
  50393.4939     0.14483E+01 
  50425.7561     0.14520E+01 
  50458.0182     0.14557E+01 
  50490.2804     0.14595E+01 
  50522.5426     0.14633E+01 
  50554.8047     0.14670E+01 
  50587.0669     0.14708E+01 
  50619.3290     0.14746E+01 
  50651.5912     0.14784E+01 
  50683.8534     0.14822E+01 
  50716.1155     0.14860E+01 
  50748.3777     0.14898E+01 
  50780.6398     0.14936E+01 
  50812.9020     0.14974E+01 
  50845.1642     0.15013E+01 
  50877.4263     0.15051E+01 
  50909.6885     0.15090E+01 
  50941.9506     0.15128E+01 
  50974.2128     0.15167E+01 
  51006.4750     0.15206E+01 
  51038.7371     0.15244E+01 
  51070.9993     0.15283E+01 
  51103.2614     0.15322E+01 
  51135.5236     0.15361E+01 
  51167.7858     0.15400E+01 
  51200.0479     0.15439E+01 
  51232.3101     0.15479E+01 
  51264.5722     0.15518E+01 
  51296.8344     0.15557E+01 
  51329.0966     0.15597E+01 
  51361.3587     0.15636E+01 
  51393.6209     0.15676E+01 
  51425.8830     0.15716E+01 
  51458.1452     0.15755E+01 
  51490.4074     0.15795E+01 
  51522.6695     0.15835E+01 
  51554.9317     0.15875E+01 
  51587.1938     0.15915E+01 
  51619.4560     0.15955E+01 
  51651.7182     0.15996E+01 
  51683.9803     0.16036E+01 
  51716.2425     0.16076E+01 
  51748.5046     0.16117E+01 
  51780.7668     0.16157E+01 
  51813.0290     0.16198E+01 
  51845.2911     0.16239E+01 
  51877.5533     0.16279E+01 
  51909.8154     0.16320E+01 
  51942.0776     0.16361E+01 
  51974.3398     0.16402E+01 
  52006.6019     0.16443E+01 
  52038.8641     0.16484E+01 
  52071.1262     0.16526E+01 
  52103.3884     0.16567E+01 
  52135.6506     0.16608E+01 
  52167.9127     0.16650E+01 
  52200.1749     0.16691E+01 
  52232.4370     0.16733E+01 
  52264.6992     0.16775E+01 
  52296.9614     0.16816E+01 
  52329.2235     0.16858E+01 
  52361.4857     0.16900E+01 
  52393.7478     0.16942E+01 
  52426.0100     0.16984E+01 
  52458.2722     0.17026E+01 
  52490.5343     0.17069E+01 
  52522.7965     0.17111E+01 
  52555.0586     0.17153E+01 
  52587.3208     0.17196E+01 
  52619.5830     0.17238E+01 
  52651.8451     0.17281E+01 
  52684.1073     0.17324E+01 
  52716.3694     0.17367E+01 
  52748.6316     0.17409E+01 
  52780.8938     0.17452E+01 
  52813.1559     0.17495E+01 
  52845.4181     0.17539E+01 
  52877.6802     0.17582E+01 
  52909.9424     0.17625E+01 
  52942.2046     0.17668E+01 
  52974.4667     0.17712E+01 
  53006.7289     0.17755E+01 
  53038.9910     0.17799E+01 
  53071.2532     0.17843E+01 
  53103.5154     0.17886E+01 
  53135.7775     0.17930E+01 
  53168.0397     0.17974E+01 
  53200.3018     0.18018E+01 
  53232.5640     0.18062E+01 
  53264.8262     0.18106E+01 
  53297.0883     0.18151E+01 
  53329.3505     0.18195E+01 
  53361.6126     0.18239E+01 
  53393.8748     0.18284E+01 
  53426.1370     0.18328E+01 
  53458.3991     0.18373E+01 
  53490.6613     0.18418E+01 
  53522.9234     0.18463E+01 
  53555.1856     0.18508E+01 
  53587.4478     0.18553E+01 
  53619.7099     0.18598E+01 
  53651.9721     0.18643E+01 
  53684.2342     0.18688E+01 
  53716.4964     0.18733E+01 
  53748.7586     0.18779E+01 
  53781.0207     0.18824E+01 
  53813.2829     0.18870E+01 
  53845.5450     0.18915E+01 
  53877.8072     0.18961E+01 
  53910.0694     0.19007E+01 
  53942.3315     0.19053E+01 
  53974.5937     0.19099E+01 
  54006.8558     0.19145E+01 
  54039.1180     0.19191E+01 
  54071.3802     0.19237E+01 
  54103.6423     0.19284E+01 
  54135.9045     0.19330E+01 
  54168.1666     0.19376E+01 
  54200.4288     0.19423E+01 
  54232.6910     0.19470E+01 
  54264.9531     0.19516E+01 
  54297.2153     0.19563E+01 
  54329.4774     0.19610E+01 
  54361.7396     0.19657E+01 
  54394.0018     0.19704E+01 
  54426.2639     0.19751E+01 
  54458.5261     0.19799E+01 
  54490.7882     0.19846E+01 
  54523.0504     0.19893E+01 
  54555.3126     0.19941E+01 
  54587.5747     0.19988E+01 
  54619.8369     0.20036E+01 
  54652.0990     0.20084E+01 
  54684.3612     0.20132E+01 
  54716.6234     0.20180E+01 
  54748.8855     0.20228E+01 
  54781.1477     0.20276E+01 
  54813.4098     0.20324E+01 
  54845.6720     0.20372E+01 
  54877.9342     0.20421E+01 
  54910.1963     0.20469E+01 
  54942.4585     0.20518E+01 
  54974.7206     0.20566E+01 
  55006.9828     0.20615E+01 
  55039.2450     0.20664E+01 
  55071.5071     0.20713E+01 
  55103.7693     0.20762E+01 
  55136.0314     0.20811E+01 
  55168.2936     0.20860E+01 
  55200.5558     0.20909E+01 
  55232.8179     0.20958E+01 
  55265.0801     0.21008E+01 
  55297.3422     0.21057E+01 
  55329.6044     0.21107E+01 
  55361.8666     0.21156E+01 
  55394.1287     0.21206E+01 
  55426.3909     0.21256E+01 
  55458.6530     0.21306E+01 
  55490.9152     0.21356E+01 
  55523.1774     0.21406E+01 
  55555.4395     0.21456E+01 
  55587.7017     0.21507E+01 
  55619.9638     0.21557E+01 
  55652.2260     0.21607E+01 
  55684.4882     0.21658E+01 
  55716.7503     0.21709E+01 
  55749.0125     0.21759E+01 
  55781.2746     0.21810E+01 
  55813.5368     0.21861E+01 
  55845.7990     0.21912E+01 
  55878.0611     0.21963E+01 
  55910.3233     0.22014E+01 
  55942.5854     0.22066E+01 
  55974.8476     0.22117E+01 
  56007.1098     0.22168E+01 
  56039.3719     0.22220E+01 
  56071.6341     0.22272E+01 
  56103.8962     0.22323E+01 
  56136.1584     0.22375E+01 
  56168.4206     0.22427E+01 
  56200.6827     0.22479E+01 
  56232.9449     0.22531E+01 
  56265.2070     0.22583E+01 
  56297.4692     0.22636E+01 
  56329.7314     0.22688E+01 
  56361.9935     0.22740E+01 
  56394.2557     0.22793E+01 
  56426.5178     0.22846E+01 
  56458.7800     0.22898E+01 
  56491.0422     0.22951E+01 
  56523.3043     0.23004E+01 
  56555.5665     0.23057E+01 
  56587.8286     0.23110E+01 
  56620.0908     0.23163E+01 
  56652.3530     0.23217E+01 
  56684.6151     0.23270E+01 
  56716.8773     0.23323E+01 
  56749.1394     0.23377E+01 
  56781.4016     0.23431E+01 
  56813.6638     0.23484E+01 
  56845.9259     0.23538E+01 
  56878.1881     0.23592E+01 
  56910.4502     0.23646E+01 
  56942.7124     0.23700E+01 
  56974.9746     0.23754E+01 
  57007.2367     0.23809E+01 
  57039.4989     0.23863E+01 
  57071.7610     0.23918E+01 
  57104.0232     0.23972E+01 
  57136.2854     0.24027E+01 
  57168.5475     0.24082E+01 
  57200.8097     0.24136E+01 
  57233.0718     0.24191E+01 
  57265.3340     0.24246E+01 
  57297.5962     0.24301E+01 
  57329.8583     0.24357E+01 
  57362.1205     0.24412E+01 
  57394.3826     0.24467E+01 
  57426.6448     0.24523E+01 
  57458.9070     0.24579E+01 
  57491.1691     0.24634E+01 
  57523.4313     0.24690E+01 
  57555.6934     0.24746E+01 
  57587.9556     0.24802E+01 
  57620.2178     0.24858E+01 
  57652.4799     0.24914E+01 
  57684.7421     0.24970E+01 
  57717.0042     0.25027E+01 
  57749.2664     0.25083E+01 
  57781.5286     0.25140E+01 
  57813.7907     0.25197E+01 
  57846.0529     0.25253E+01 
  57878.3150     0.25310E+01 
  57910.5772     0.25367E+01 
  57942.8394     0.25424E+01 
  57975.1015     0.25481E+01 
  58007.3637     0.25539E+01 
  58039.6258     0.25596E+01 
  58071.8880     0.25653E+01 
  58104.1502     0.25711E+01 
  58136.4123     0.25768E+01 
  58168.6745     0.25826E+01 
  58200.9366     0.25884E+01 
  58233.1988     0.25942E+01 
  58265.4610     0.26000E+01 
  58297.7231     0.26058E+01 
  58329.9853     0.26116E+01 
  58362.2474     0.26174E+01 
  58394.5096     0.26233E+01 
  58426.7718     0.26291E+01 
  58459.0339     0.26350E+01 
  58491.2961     0.26409E+01 
  58523.5582     0.26467E+01 
  58555.8204     0.26526E+01 
  58588.0826     0.26585E+01 
  58620.3447     0.26644E+01 
  58652.6069     0.26704E+01 
  58684.8690     0.26763E+01 
  58717.1312     0.26822E+01 
  58749.3934     0.26882E+01 
  58781.6555     0.26941E+01 
  58813.9177     0.27001E+01 
  58846.1798     0.27061E+01 
  58878.4420     0.27121E+01 
  58910.7042     0.27181E+01 
  58942.9663     0.27241E+01 
  58975.2285     0.27301E+01 
  59007.4906     0.27361E+01 
  59039.7528     0.27422E+01 
  59072.0150     0.27482E+01 
  59104.2771     0.27543E+01 
  59136.5393     0.27603E+01 
  59168.8014     0.27664E+01 
  59201.0636     0.27725E+01 
  59233.3258     0.27786E+01 
  59265.5879     0.27847E+01 
  59297.8501     0.27908E+01 
  59330.1122     0.27970E+01 
  59362.3744     0.28031E+01 
  59394.6366     0.28092E+01 
  59426.8987     0.28154E+01 
  59459.1609     0.28216E+01 
  59491.4230     0.28277E+01 
  59523.6852     0.28339E+01 
  59555.9474     0.28401E+01 
  59588.2095     0.28463E+01 
  59620.4717     0.28526E+01 
  59652.7338     0.28588E+01 
  59684.9960     0.28650E+01 
  59717.2582     0.28713E+01 
  59749.5203     0.28775E+01 
  59781.7825     0.28838E+01 
  59814.0446     0.28901E+01 
  59846.3068     0.28964E+01 
  59878.5690     0.29027E+01 
  59910.8311     0.29090E+01 
  59943.0933     0.29153E+01 
  59975.3554     0.29217E+01 
  60007.6176     0.29280E+01 
  60039.8798     0.29344E+01 
  60072.1419     0.29407E+01 
  60104.4041     0.29471E+01 
  60136.6662     0.29535E+01 
  60168.9284     0.29599E+01 
  60201.1906     0.29663E+01 
  60233.4527     0.29727E+01 
  60265.7149     0.29791E+01 
  60297.9770     0.29855E+01 
  60330.2392     0.29920E+01 
  60362.5014     0.29985E+01 
  60394.7635     0.30049E+01 
  60427.0257     0.30114E+01 
  60459.2878     0.30179E+01 
  60491.5500     0.30244E+01 
  60523.8122     0.30309E+01 
  60556.0743     0.30374E+01 
  60588.3365     0.30439E+01 
  60620.5986     0.30505E+01 
  60652.8608     0.30570E+01 
  60685.1230     0.30636E+01 
  60717.3851     0.30702E+01 
  60749.6473     0.30768E+01 
  60781.9094     0.30833E+01 
  60814.1716     0.30899E+01 
  60846.4338     0.30966E+01 
  60878.6959     0.31032E+01 
  60910.9581     0.31098E+01 
  60943.2202     0.31165E+01 
  60975.4824     0.31231E+01 
  61007.7446     0.31298E+01 
  61040.0067     0.31365E+01 
  61072.2689     0.31432E+01 
  61104.5310     0.31499E+01 
  61136.7932     0.31566E+01 
  61169.0554     0.31633E+01 
  61201.3175     0.31700E+01 
  61233.5797     0.31768E+01 
  61265.8418     0.31835E+01 
  61298.1040     0.31903E+01 
  61330.3662     0.31971E+01 
  61362.6283     0.32039E+01 
  61394.8905     0.32106E+01 
  61427.1526     0.32175E+01 
  61459.4148     0.32243E+01 
  61491.6770     0.32311E+01 
  61523.9391     0.32379E+01 
  61556.2013     0.32448E+01 
  61588.4634     0.32517E+01 
  61620.7256     0.32585E+01 
  61652.9878     0.32654E+01 
  61685.2499     0.32723E+01 
  61717.5121     0.32792E+01 
  61749.7742     0.32861E+01 
  61782.0364     0.32931E+01 
  61814.2986     0.33000E+01 
  61846.5607     0.33069E+01 
  61878.8229     0.33139E+01 
  61911.0850     0.33209E+01 
  61943.3472     0.33278E+01 
  61975.6094     0.33348E+01 
  62007.8715     0.33418E+01 
  62040.1337     0.33489E+01 
  62072.3958     0.33559E+01 
  62104.6580     0.33629E+01 
  62136.9202     0.33700E+01 
  62169.1823     0.33770E+01 
  62201.4445     0.33841E+01 
  62233.7066     0.33912E+01 
  62265.9688     0.33983E+01 
  62298.2310     0.34054E+01 
  62330.4931     0.34125E+01 
  62362.7553     0.34196E+01 
  62395.0174     0.34267E+01 
  62427.2796     0.34339E+01 
  62459.5418     0.34411E+01 
  62491.8039     0.34482E+01 
  62524.0661     0.34554E+01 
  62556.3282     0.34626E+01 
  62588.5904     0.34698E+01 
  62620.8526     0.34770E+01 
  62653.1147     0.34842E+01 
  62685.3769     0.34915E+01 
  62717.6390     0.34987E+01 
  62749.9012     0.35060E+01 
  62782.1634     0.35133E+01 
  62814.4255     0.35205E+01 
  62846.6877     0.35278E+01 
  62878.9498     0.35351E+01 
  62911.2120     0.35425E+01 
  62943.4742     0.35498E+01 
  62975.7363     0.35571E+01 
  63007.9985     0.35645E+01 
  63040.2606     0.35718E+01 
  63072.5228     0.35792E+01 
  63104.7850     0.35866E+01 
  63137.0471     0.35940E+01 
  63169.3093     0.36014E+01 
  63201.5714     0.36088E+01 
  63233.8336     0.36162E+01 
  63266.0958     0.36237E+01 
  63298.3579     0.36311E+01 
  63330.6201     0.36386E+01 
  63362.8822     0.36461E+01 
  63395.1444     0.36536E+01 
  63427.4066     0.36611E+01 
  63459.6687     0.36686E+01 
  63491.9309     0.36761E+01 
  63524.1930     0.36836E+01 
  63556.4552     0.36912E+01 
  63588.7174     0.36987E+01 
  63620.9795     0.37063E+01 
  63653.2417     0.37139E+01 
  63685.5038     0.37215E+01 
  63717.7660     0.37291E+01 
  63750.0282     0.37367E+01 
  63782.2903     0.37443E+01 
  63814.5525     0.37519E+01 
  63846.8146     0.37596E+01 
  63879.0768     0.37672E+01 
  63911.3390     0.37749E+01 
  63943.6011     0.37826E+01 
  63975.8633     0.37903E+01 
  64008.1254     0.37980E+01 
  64040.3876     0.38057E+01 
  64072.6498     0.38134E+01 
  64104.9119     0.38212E+01 
  64137.1741     0.38289E+01 
  64169.4362     0.38367E+01 
  64201.6984     0.38445E+01 
  64233.9606     0.38523E+01 
  64266.2227     0.38601E+01 
  64298.4849     0.38679E+01 
  64330.7470     0.38757E+01 
  64363.0092     0.38835E+01 
  64395.2714     0.38914E+01 
  64427.5335     0.38992E+01 
  64459.7957     0.39071E+01 
  64492.0578     0.39150E+01 
  64524.3200     0.39229E+01 
  64556.5822     0.39308E+01 
  64588.8443     0.39387E+01 
  64621.1065     0.39467E+01 
  64653.3686     0.39546E+01 
  64685.6308     0.39626E+01 
  64717.8930     0.39705E+01 
  64750.1551     0.39785E+01 
  64782.4173     0.39865E+01 
  64814.6794     0.39945E+01 
  64846.9416     0.40025E+01 
  64879.2038     0.40105E+01 
  64911.4659     0.40186E+01 
  64943.7281     0.40266E+01 
  64975.9902     0.40347E+01 
  65008.2524     0.40428E+01 
  65040.5146     0.40508E+01 
  65072.7767     0.40589E+01 
  65105.0389     0.40671E+01 
  65137.3010     0.40752E+01 
  65169.5632     0.40833E+01 
  65201.8254     0.40915E+01 
  65234.0875     0.40996E+01 
  65266.3497     0.41078E+01 
  65298.6118     0.41160E+01 
  65330.8740     0.41242E+01 
  65363.1362     0.41324E+01 
  65395.3983     0.41406E+01 
  65427.6605     0.41488E+01 
  65459.9226     0.41571E+01 
  65492.1848     0.41653E+01 
  65524.4470     0.41736E+01 
  65556.7091     0.41819E+01 
  65588.9713     0.41902E+01 
  65621.2334     0.41985E+01 
  65653.4956     0.42068E+01 
  65685.7578     0.42151E+01 
  65718.0199     0.42235E+01 
  65750.2821     0.42318E+01 
  65782.5442     0.42402E+01 
  65814.8064     0.42486E+01 
  65847.0686     0.42569E+01 
  65879.3307     0.42654E+01 
  65911.5929     0.42738E+01 
  65943.8550     0.42822E+01 
  65976.1172     0.42906E+01 
  66008.3794     0.42991E+01 
  66040.6415     0.43076E+01 
  66072.9037     0.43160E+01 
  66105.1658     0.43245E+01 
  66137.4280     0.43330E+01 
  66169.6902     0.43415E+01 
  66201.9523     0.43501E+01 
  66234.2145     0.43586E+01 
  66266.4766     0.43672E+01 
  66298.7388     0.43757E+01 
  66331.0010     0.43843E+01 
  66363.2631     0.43929E+01 
  66395.5253     0.44015E+01 
  66427.7874     0.44101E+01 
  66460.0496     0.44187E+01 
  66492.3118     0.44274E+01 
  66524.5739     0.44360E+01 
  66556.8361     0.44447E+01 
  66589.0982     0.44534E+01 
  66621.3604     0.44621E+01 
  66653.6226     0.44708E+01 
  66685.8847     0.44795E+01 
  66718.1469     0.44882E+01 
  66750.4090     0.44970E+01 
  66782.6712     0.45057E+01 
  66814.9334     0.45145E+01 
  66847.1955     0.45232E+01 
  66879.4577     0.45320E+01 
  66911.7198     0.45408E+01 
  66943.9820     0.45497E+01 
  66976.2442     0.45585E+01 
  67008.5063     0.45673E+01 
  67040.7685     0.45762E+01 
  67073.0306     0.45851E+01 
  67105.2928     0.45939E+01 
  67137.5550     0.46028E+01 
  67169.8171     0.46117E+01 
  67202.0793     0.46207E+01 
  67234.3414     0.46296E+01 
  67266.6036     0.46385E+01 
  67298.8658     0.46475E+01 
  67331.1279     0.46565E+01 
  67363.3901     0.46654E+01 
  67395.6522     0.46744E+01 
  67427.9144     0.46835E+01 
  67460.1766     0.46925E+01 
  67492.4387     0.47015E+01 
  67524.7009     0.47106E+01 
  67556.9630     0.47196E+01 
  67589.2252     0.47287E+01 
  67621.4874     0.47378E+01 
  67653.7495     0.47469E+01 
  67686.0117     0.47560E+01 
  67718.2738     0.47651E+01 
  67750.5360     0.47743E+01 
  67782.7982     0.47834E+01 
  67815.0603     0.47926E+01 
  67847.3225     0.48017E+01 
  67879.5846     0.48109E+01 
  67911.8468     0.48201E+01 
  67944.1090     0.48294E+01 
  67976.3711     0.48386E+01 
  68008.6333     0.48478E+01 
  68040.8954     0.48571E+01 
  68073.1576     0.48664E+01 
  68105.4198     0.48756E+01 
  68137.6819     0.48849E+01 
  68169.9441     0.48942E+01 
  68202.2062     0.49036E+01 
  68234.4684     0.49129E+01 
  68266.7306     0.49223E+01 
  68298.9927     0.49316E+01 
  68331.2549     0.49410E+01 
  68363.5170     0.49504E+01 
  68395.7792     0.49598E+01 
  68428.0414     0.49692E+01 
  68460.3035     0.49786E+01 
  68492.5657     0.49881E+01 
  68524.8278     0.49975E+01 
  68557.0900     0.50070E+01 
  68589.3522     0.50165E+01 
  68621.6143     0.50260E+01 
  68653.8765     0.50355E+01 
  68686.1386     0.50450E+01 
  68718.4008     0.50545E+01 
  68750.6630     0.50641E+01 
  68782.9251     0.50736E+01 
  68815.1873     0.50832E+01 
  68847.4494     0.50928E+01 
  68879.7116     0.51024E+01 
  68911.9738     0.51120E+01 
  68944.2359     0.51216E+01 
  68976.4981     0.51313E+01 
  69008.7602     0.51409E+01 
  69041.0224     0.51506E+01 
  69073.2846     0.51603E+01 
  69105.5467     0.51700E+01 
  69137.8089     0.51797E+01 
  69170.0710     0.51894E+01 
  69202.3332     0.51991E+01 
  69234.5954     0.52089E+01 
  69266.8575     0.52187E+01 
  69299.1197     0.52284E+01 
  69331.3818     0.52382E+01 
  69363.6440     0.52480E+01 
  69395.9062     0.52579E+01 
  69428.1683     0.52677E+01 
  69460.4305     0.52775E+01 
  69492.6926     0.52874E+01 
  69524.9548     0.52973E+01 
  69557.2170     0.53071E+01 
  69589.4791     0.53170E+01 
  69621.7413     0.53270E+01 
  69654.0034     0.53369E+01 
  69686.2656     0.53468E+01 
  69718.5278     0.53568E+01 
  69750.7899     0.53667E+01 
  69783.0521     0.53767E+01 
  69815.3142     0.53867E+01 
  69847.5764     0.53967E+01 
  69879.8386     0.54068E+01 
  69912.1007     0.54168E+01 
  69944.3629     0.54268E+01 
  69976.6250     0.54369E+01 
  70008.8872     0.54470E+01 
  70041.1494     0.54571E+01 
  70073.4115     0.54672E+01 
  70105.6737     0.54773E+01 
  70137.9358     0.54874E+01 
  70170.1980     0.54976E+01 
  70202.4602     0.55078E+01 
  70234.7223     0.55179E+01 
  70266.9845     0.55281E+01 
  70299.2466     0.55383E+01 
  70331.5088     0.55485E+01 
  70363.7710     0.55588E+01 
  70396.0331     0.55690E+01 
  70428.2953     0.55793E+01 
  70460.5574     0.55896E+01 
  70492.8196     0.55998E+01 
  70525.0818     0.56101E+01 
  70557.3439     0.56205E+01 
  70589.6061     0.56308E+01 
  70621.8682     0.56411E+01 
  70654.1304     0.56515E+01 
  70686.3926     0.56619E+01 
  70718.6547     0.56722E+01 
  70750.9169     0.56826E+01 
  70783.1790     0.56931E+01 
  70815.4412     0.57035E+01 
  70847.7034     0.57139E+01 
  70879.9655     0.57244E+01 
  70912.2277     0.57349E+01 
  70944.4898     0.57453E+01 
  70976.7520     0.57558E+01 
  71009.0142     0.57664E+01 
  71041.2763     0.57769E+01 
  71073.5385     0.57874E+01 
  71105.8006     0.57980E+01 
  71138.0628     0.58086E+01 
  71170.3250     0.58191E+01 
  71202.5871     0.58297E+01 
  71234.8493     0.58404E+01 
  71267.1114     0.58510E+01 
  71299.3736     0.58616E+01 
  71331.6358     0.58723E+01 
  71363.8979     0.58830E+01 
  71396.1601     0.58936E+01 
  71428.4222     0.59043E+01 
  71460.6844     0.59151E+01 
  71492.9466     0.59258E+01 
  71525.2087     0.59365E+01 
  71557.4709     0.59473E+01 
  71589.7330     0.59581E+01 
  71621.9952     0.59688E+01 
  71654.2574     0.59796E+01 
  71686.5195     0.59905E+01 
  71718.7817     0.60013E+01 
  71751.0438     0.60121E+01 
  71783.3060     0.60230E+01 
  71815.5682     0.60339E+01 
  71847.8303     0.60448E+01 
  71880.0925     0.60557E+01 
  71912.3546     0.60666E+01 
  71944.6168     0.60775E+01 
  71976.8790     0.60885E+01 
  72009.1411     0.60994E+01 
  72041.4033     0.61104E+01 
  72073.6654     0.61214E+01 
  72105.9276     0.61324E+01 
  72138.1898     0.61434E+01 
  72170.4519     0.61544E+01 
  72202.7141     0.61655E+01 
  72234.9762     0.61766E+01 
  72267.2384     0.61876E+01 
  72299.5006     0.61987E+01 
  72331.7627     0.62098E+01 
  72364.0249     0.62210E+01 
  72396.2870     0.62321E+01 
  72428.5492     0.62432E+01 
  72460.8114     0.62544E+01 
  72493.0735     0.62656E+01 
  72525.3357     0.62768E+01 
  72557.5978     0.62880E+01 
  72589.8600     0.62992E+01 
