  32262.1600     0.45500E-02 
  32294.4222     0.45892E-02 
  32326.6843     0.46286E-02 
  32358.9465     0.46682E-02 
  32391.2086     0.47080E-02 
  32423.4708     0.47480E-02 
  32455.7330     0.47882E-02 
  32487.9951     0.48287E-02 
  32520.2573     0.48693E-02 
  32552.5194     0.49102E-02 
  32584.7816     0.49513E-02 
  32617.0438     0.49925E-02 
  32649.3059     0.50340E-02 
  32681.5681     0.50757E-02 
  32713.8302     0.51176E-02 
  32746.0924     0.51597E-02 
  32778.3546     0.52020E-02 
  32810.6167     0.52445E-02 
  32842.8789     0.52872E-02 
  32875.1410     0.53301E-02 
  32907.4032     0.53732E-02 
  32939.6654     0.54165E-02 
  32971.9275     0.54600E-02 
  33004.1897     0.55038E-02 
  33036.4518     0.55477E-02 
  33068.7140     0.55918E-02 
  33100.9762     0.56361E-02 
  33133.2383     0.56807E-02 
  33165.5005     0.57254E-02 
  33197.7626     0.57703E-02 
  33230.0248     0.58154E-02 
  33262.2870     0.58608E-02 
  33294.5491     0.59063E-02 
  33326.8113     0.59520E-02 
  33359.0734     0.59979E-02 
  33391.3356     0.60440E-02 
  33423.5978     0.60903E-02 
  33455.8599     0.61368E-02 
  33488.1221     0.61835E-02 
  33520.3842     0.62304E-02 
  33552.6464     0.62774E-02 
  33584.9086     0.63247E-02 
  33617.1707     0.63721E-02 
  33649.4329     0.64198E-02 
  33681.6950     0.64676E-02 
  33713.9572     0.65156E-02 
  33746.2194     0.65638E-02 
  33778.4815     0.66122E-02 
  33810.7437     0.66608E-02 
  33843.0058     0.67095E-02 
  33875.2680     0.67584E-02 
  33907.5302     0.68076E-02 
  33939.7923     0.68569E-02 
  33972.0545     0.69063E-02 
  34004.3166     0.69560E-02 
  34036.5788     0.70058E-02 
  34068.8410     0.70558E-02 
  34101.1031     0.71060E-02 
  34133.3653     0.71564E-02 
  34165.6274     0.72069E-02 
  34197.8896     0.72576E-02 
  34230.1518     0.73085E-02 
  34262.4139     0.73595E-02 
  34294.6761     0.74108E-02 
  34326.9382     0.74621E-02 
  34359.2004     0.75137E-02 
  34391.4626     0.75654E-02 
  34423.7247     0.76173E-02 
  34455.9869     0.76693E-02 
  34488.2490     0.77216E-02 
  34520.5112     0.77739E-02 
  34552.7734     0.78265E-02 
  34585.0355     0.78791E-02 
  34617.2977     0.79320E-02 
  34649.5598     0.79850E-02 
  34681.8220     0.80381E-02 
  34714.0842     0.80914E-02 
  34746.3463     0.81449E-02 
  34778.6085     0.81985E-02 
  34810.8706     0.82523E-02 
  34843.1328     0.83062E-02 
  34875.3950     0.83602E-02 
  34907.6571     0.84144E-02 
  34939.9193     0.84687E-02 
  34972.1814     0.85232E-02 
  35004.4436     0.85778E-02 
  35036.7058     0.86326E-02 
  35068.9679     0.86875E-02 
  35101.2301     0.87425E-02 
  35133.4922     0.87977E-02 
  35165.7544     0.88530E-02 
  35198.0166     0.89084E-02 
  35230.2787     0.89639E-02 
  35262.5409     0.90196E-02 
  35294.8030     0.90754E-02 
  35327.0652     0.91313E-02 
  35359.3274     0.91874E-02 
  35391.5895     0.92436E-02 
  35423.8517     0.92999E-02 
  35456.1138     0.93563E-02 
  35488.3760     0.94128E-02 
  35520.6382     0.94694E-02 
  35552.9003     0.95262E-02 
  35585.1625     0.95831E-02 
  35617.4246     0.96400E-02 
  35649.6868     0.96971E-02 
  35681.9490     0.97543E-02 
  35714.2111     0.98116E-02 
  35746.4733     0.98690E-02 
  35778.7354     0.99264E-02 
  35810.9976     0.99840E-02 
  35843.2598     0.10042E-01 
  35875.5219     0.10099E-01 
  35907.7841     0.10157E-01 
  35940.0462     0.10215E-01 
  35972.3084     0.10273E-01 
  36004.5706     0.10331E-01 
  36036.8327     0.10390E-01 
  36069.0949     0.10448E-01 
  36101.3570     0.10506E-01 
  36133.6192     0.10565E-01 
  36165.8814     0.10623E-01 
  36198.1435     0.10682E-01 
  36230.4057     0.10741E-01 
  36262.6678     0.10799E-01 
  36294.9300     0.10858E-01 
  36327.1922     0.10917E-01 
  36359.4543     0.10976E-01 
  36391.7165     0.11035E-01 
  36423.9786     0.11094E-01 
  36456.2408     0.11153E-01 
  36488.5030     0.11212E-01 
  36520.7651     0.11272E-01 
  36553.0273     0.11331E-01 
  36585.2894     0.11390E-01 
  36617.5516     0.11450E-01 
  36649.8138     0.11509E-01 
  36682.0759     0.11569E-01 
  36714.3381     0.11628E-01 
  36746.6002     0.11688E-01 
  36778.8624     0.11747E-01 
  36811.1246     0.11807E-01 
  36843.3867     0.11866E-01 
  36875.6489     0.11926E-01 
  36907.9110     0.11986E-01 
  36940.1732     0.12046E-01 
  36972.4354     0.12105E-01 
  37004.6975     0.12165E-01 
  37036.9597     0.12225E-01 
  37069.2218     0.12285E-01 
  37101.4840     0.12345E-01 
  37133.7462     0.12404E-01 
  37166.0083     0.12464E-01 
  37198.2705     0.12524E-01 
  37230.5326     0.12584E-01 
  37262.7948     0.12644E-01 
  37295.0570     0.12704E-01 
  37327.3191     0.12763E-01 
  37359.5813     0.12823E-01 
  37391.8434     0.12883E-01 
  37424.1056     0.12943E-01 
  37456.3678     0.13003E-01 
  37488.6299     0.13063E-01 
  37520.8921     0.13122E-01 
  37553.1542     0.13182E-01 
  37585.4164     0.13242E-01 
  37617.6786     0.13302E-01 
  37649.9407     0.13361E-01 
  37682.2029     0.13421E-01 
  37714.4650     0.13481E-01 
  37746.7272     0.13540E-01 
  37778.9894     0.13600E-01 
  37811.2515     0.13659E-01 
  37843.5137     0.13719E-01 
  37875.7758     0.13778E-01 
  37908.0380     0.13837E-01 
  37940.3002     0.13897E-01 
  37972.5623     0.13956E-01 
  38004.8245     0.14015E-01 
  38037.0866     0.14074E-01 
  38069.3488     0.14134E-01 
  38101.6110     0.14193E-01 
  38133.8731     0.14252E-01 
  38166.1353     0.14311E-01 
  38198.3974     0.14369E-01 
  38230.6596     0.14428E-01 
  38262.9218     0.14487E-01 
  38295.1839     0.14545E-01 
  38327.4461     0.14604E-01 
  38359.7082     0.14663E-01 
  38391.9704     0.14721E-01 
  38424.2326     0.14779E-01 
  38456.4947     0.14837E-01 
  38488.7569     0.14896E-01 
  38521.0190     0.14954E-01 
  38553.2812     0.15011E-01 
  38585.5434     0.15069E-01 
  38617.8055     0.15127E-01 
  38650.0677     0.15185E-01 
  38682.3298     0.15242E-01 
  38714.5920     0.15300E-01 
  38746.8542     0.15357E-01 
  38779.1163     0.15414E-01 
  38811.3785     0.15471E-01 
  38843.6406     0.15528E-01 
  38875.9028     0.15585E-01 
  38908.1650     0.15642E-01 
  38940.4271     0.15698E-01 
  38972.6893     0.15755E-01 
  39004.9514     0.15811E-01 
  39037.2136     0.15867E-01 
  39069.4758     0.15923E-01 
  39101.7379     0.15979E-01 
  39134.0001     0.16035E-01 
  39166.2622     0.16090E-01 
  39198.5244     0.16146E-01 
  39230.7866     0.16201E-01 
  39263.0487     0.16256E-01 
  39295.3109     0.16311E-01 
  39327.5730     0.16366E-01 
  39359.8352     0.16421E-01 
  39392.0974     0.16475E-01 
  39424.3595     0.16530E-01 
  39456.6217     0.16584E-01 
  39488.8838     0.16638E-01 
  39521.1460     0.16692E-01 
  39553.4082     0.16746E-01 
  39585.6703     0.16799E-01 
  39617.9325     0.16852E-01 
  39650.1946     0.16906E-01 
  39682.4568     0.16959E-01 
  39714.7190     0.17011E-01 
  39746.9811     0.17064E-01 
  39779.2433     0.17116E-01 
  39811.5054     0.17169E-01 
  39843.7676     0.17221E-01 
  39876.0298     0.17272E-01 
  39908.2919     0.17324E-01 
  39940.5541     0.17376E-01 
  39972.8162     0.17427E-01 
  40005.0784     0.17478E-01 
  40037.3406     0.17529E-01 
  40069.6027     0.17579E-01 
  40101.8649     0.17630E-01 
  40134.1270     0.17680E-01 
  40166.3892     0.17730E-01 
  40198.6514     0.17779E-01 
  40230.9135     0.17829E-01 
  40263.1757     0.17878E-01 
  40295.4378     0.17927E-01 
  40327.7000     0.17976E-01 
  40359.9622     0.18025E-01 
  40392.2243     0.18073E-01 
  40424.4865     0.18121E-01 
  40456.7486     0.18169E-01 
  40489.0108     0.18217E-01 
  40521.2730     0.18264E-01 
  40553.5351     0.18311E-01 
  40585.7973     0.18358E-01 
  40618.0594     0.18405E-01 
  40650.3216     0.18451E-01 
  40682.5838     0.18497E-01 
  40714.8459     0.18543E-01 
  40747.1081     0.18589E-01 
  40779.3702     0.18634E-01 
  40811.6324     0.18679E-01 
  40843.8946     0.18724E-01 
  40876.1567     0.18769E-01 
  40908.4189     0.18813E-01 
  40940.6810     0.18857E-01 
  40972.9432     0.18901E-01 
  41005.2054     0.18944E-01 
  41037.4675     0.18987E-01 
  41069.7297     0.19030E-01 
  41101.9918     0.19073E-01 
  41134.2540     0.19115E-01 
  41166.5162     0.19157E-01 
  41198.7783     0.19199E-01 
  41231.0405     0.19241E-01 
  41263.3026     0.19282E-01 
  41295.5648     0.19323E-01 
  41327.8270     0.19364E-01 
  41360.0891     0.19404E-01 
  41392.3513     0.19444E-01 
  41424.6134     0.19484E-01 
  41456.8756     0.19523E-01 
  41489.1378     0.19562E-01 
  41521.3999     0.19601E-01 
  41553.6621     0.19640E-01 
  41585.9242     0.19678E-01 
  41618.1864     0.19716E-01 
  41650.4486     0.19753E-01 
  41682.7107     0.19791E-01 
  41714.9729     0.19828E-01 
  41747.2350     0.19864E-01 
  41779.4972     0.19901E-01 
  41811.7594     0.19937E-01 
  41844.0215     0.19972E-01 
  41876.2837     0.20008E-01 
  41908.5458     0.20043E-01 
  41940.8080     0.20078E-01 
  41973.0702     0.20112E-01 
  42005.3323     0.20146E-01 
  42037.5945     0.20180E-01 
  42069.8566     0.20213E-01 
  42102.1188     0.20246E-01 
  42134.3810     0.20279E-01 
  42166.6431     0.20311E-01 
  42198.9053     0.20343E-01 
  42231.1674     0.20375E-01 
  42263.4296     0.20407E-01 
  42295.6918     0.20438E-01 
  42327.9539     0.20468E-01 
  42360.2161     0.20499E-01 
  42392.4782     0.20529E-01 
  42424.7404     0.20558E-01 
  42457.0026     0.20588E-01 
  42489.2647     0.20616E-01 
  42521.5269     0.20645E-01 
  42553.7890     0.20673E-01 
  42586.0512     0.20701E-01 
  42618.3134     0.20729E-01 
  42650.5755     0.20756E-01 
  42682.8377     0.20783E-01 
  42715.0998     0.20809E-01 
  42747.3620     0.20835E-01 
  42779.6242     0.20861E-01 
  42811.8863     0.20886E-01 
  42844.1485     0.20912E-01 
  42876.4106     0.20936E-01 
  42908.6728     0.20960E-01 
  42940.9350     0.20984E-01 
  42973.1971     0.21008E-01 
  43005.4593     0.21031E-01 
  43037.7214     0.21054E-01 
  43069.9836     0.21076E-01 
  43102.2458     0.21099E-01 
  43134.5079     0.21120E-01 
  43166.7701     0.21142E-01 
  43199.0322     0.21163E-01 
  43231.2944     0.21183E-01 
  43263.5566     0.21203E-01 
  43295.8187     0.21223E-01 
  43328.0809     0.21243E-01 
  43360.3430     0.21262E-01 
  43392.6052     0.21280E-01 
  43424.8674     0.21299E-01 
  43457.1295     0.21317E-01 
  43489.3917     0.21334E-01 
  43521.6538     0.21351E-01 
  43553.9160     0.21368E-01 
  43586.1782     0.21385E-01 
  43618.4403     0.21401E-01 
  43650.7025     0.21416E-01 
  43682.9646     0.21432E-01 
  43715.2268     0.21447E-01 
  43747.4890     0.21461E-01 
  43779.7511     0.21475E-01 
  43812.0133     0.21489E-01 
  43844.2754     0.21502E-01 
  43876.5376     0.21515E-01 
  43908.7998     0.21528E-01 
  43941.0619     0.21540E-01 
  43973.3241     0.21552E-01 
  44005.5862     0.21563E-01 
  44037.8484     0.21574E-01 
  44070.1106     0.21585E-01 
  44102.3727     0.21595E-01 
  44134.6349     0.21605E-01 
  44166.8970     0.21614E-01 
  44199.1592     0.21623E-01 
  44231.4214     0.21632E-01 
  44263.6835     0.21640E-01 
  44295.9457     0.21648E-01 
  44328.2078     0.21656E-01 
  44360.4700     0.21663E-01 
  44392.7322     0.21670E-01 
  44424.9943     0.21676E-01 
  44457.2565     0.21682E-01 
  44489.5186     0.21688E-01 
  44521.7808     0.21693E-01 
  44554.0430     0.21698E-01 
  44586.3051     0.21702E-01 
  44618.5673     0.21706E-01 
  44650.8294     0.21709E-01 
  44683.0916     0.21713E-01 
  44715.3538     0.21716E-01 
  44747.6159     0.21718E-01 
  44779.8781     0.21720E-01 
  44812.1402     0.21722E-01 
  44844.4024     0.21723E-01 
  44876.6646     0.21724E-01 
  44908.9267     0.21724E-01 
  44941.1889     0.21724E-01 
  44973.4510     0.21724E-01 
  45005.7132     0.21723E-01 
  45037.9754     0.21722E-01 
  45070.2375     0.21721E-01 
  45102.4997     0.21719E-01 
  45134.7618     0.21717E-01 
  45167.0240     0.21714E-01 
  45199.2862     0.21711E-01 
  45231.5483     0.21708E-01 
  45263.8105     0.21704E-01 
  45296.0726     0.21700E-01 
  45328.3348     0.21695E-01 
  45360.5970     0.21690E-01 
  45392.8591     0.21685E-01 
  45425.1213     0.21679E-01 
  45457.3834     0.21673E-01 
  45489.6456     0.21667E-01 
  45521.9078     0.21660E-01 
  45554.1699     0.21652E-01 
  45586.4321     0.21645E-01 
  45618.6942     0.21637E-01 
  45650.9564     0.21628E-01 
  45683.2186     0.21620E-01 
  45715.4807     0.21610E-01 
  45747.7429     0.21601E-01 
  45780.0050     0.21591E-01 
  45812.2672     0.21581E-01 
  45844.5294     0.21570E-01 
  45876.7915     0.21559E-01 
  45909.0537     0.21548E-01 
  45941.3158     0.21536E-01 
  45973.5780     0.21524E-01 
  46005.8402     0.21511E-01 
  46038.1023     0.21498E-01 
  46070.3645     0.21485E-01 
  46102.6266     0.21471E-01 
  46134.8888     0.21457E-01 
  46167.1510     0.21443E-01 
  46199.4131     0.21428E-01 
  46231.6753     0.21413E-01 
  46263.9374     0.21398E-01 
  46296.1996     0.21382E-01 
  46328.4618     0.21366E-01 
  46360.7239     0.21349E-01 
  46392.9861     0.21332E-01 
  46425.2482     0.21315E-01 
  46457.5104     0.21297E-01 
  46489.7726     0.21279E-01 
  46522.0347     0.21261E-01 
  46554.2969     0.21242E-01 
  46586.5590     0.21223E-01 
  46618.8212     0.21204E-01 
  46651.0834     0.21184E-01 
  46683.3455     0.21164E-01 
  46715.6077     0.21143E-01 
  46747.8698     0.21122E-01 
  46780.1320     0.21101E-01 
  46812.3942     0.21080E-01 
  46844.6563     0.21058E-01 
  46876.9185     0.21036E-01 
  46909.1806     0.21013E-01 
  46941.4428     0.20990E-01 
  46973.7050     0.20967E-01 
  47005.9671     0.20943E-01 
  47038.2293     0.20919E-01 
  47070.4914     0.20895E-01 
  47102.7536     0.20871E-01 
  47135.0158     0.20846E-01 
  47167.2779     0.20820E-01 
  47199.5401     0.20795E-01 
  47231.8022     0.20769E-01 
  47264.0644     0.20743E-01 
  47296.3266     0.20716E-01 
  47328.5887     0.20689E-01 
  47360.8509     0.20662E-01 
  47393.1130     0.20635E-01 
  47425.3752     0.20607E-01 
  47457.6374     0.20578E-01 
  47489.8995     0.20550E-01 
  47522.1617     0.20521E-01 
  47554.4238     0.20492E-01 
  47586.6860     0.20463E-01 
  47618.9482     0.20433E-01 
  47651.2103     0.20403E-01 
  47683.4725     0.20372E-01 
  47715.7346     0.20342E-01 
  47747.9968     0.20311E-01 
  47780.2590     0.20279E-01 
  47812.5211     0.20248E-01 
  47844.7833     0.20216E-01 
  47877.0454     0.20184E-01 
  47909.3076     0.20151E-01 
  47941.5698     0.20118E-01 
  47973.8319     0.20085E-01 
  48006.0941     0.20052E-01 
  48038.3562     0.20018E-01 
  48070.6184     0.19984E-01 
  48102.8806     0.19950E-01 
  48135.1427     0.19915E-01 
  48167.4049     0.19881E-01 
  48199.6670     0.19845E-01 
  48231.9292     0.19810E-01 
  48264.1914     0.19774E-01 
  48296.4535     0.19738E-01 
  48328.7157     0.19702E-01 
  48360.9778     0.19666E-01 
  48393.2400     0.19629E-01 
  48425.5022     0.19592E-01 
  48457.7643     0.19554E-01 
  48490.0265     0.19517E-01 
  48522.2886     0.19479E-01 
  48554.5508     0.19441E-01 
  48586.8130     0.19402E-01 
  48619.0751     0.19364E-01 
  48651.3373     0.19325E-01 
  48683.5994     0.19286E-01 
  48715.8616     0.19246E-01 
  48748.1238     0.19207E-01 
  48780.3859     0.19167E-01 
  48812.6481     0.19126E-01 
  48844.9102     0.19086E-01 
  48877.1724     0.19045E-01 
  48909.4346     0.19004E-01 
  48941.6967     0.18963E-01 
  48973.9589     0.18922E-01 
  49006.2210     0.18880E-01 
  49038.4832     0.18838E-01 
  49070.7454     0.18796E-01 
  49103.0075     0.18754E-01 
  49135.2697     0.18711E-01 
  49167.5318     0.18668E-01 
  49199.7940     0.18625E-01 
  49232.0562     0.18582E-01 
  49264.3183     0.18539E-01 
  49296.5805     0.18495E-01 
  49328.8426     0.18451E-01 
  49361.1048     0.18407E-01 
  49393.3670     0.18362E-01 
  49425.6291     0.18318E-01 
  49457.8913     0.18273E-01 
  49490.1534     0.18228E-01 
  49522.4156     0.18183E-01 
  49554.6778     0.18137E-01 
  49586.9399     0.18092E-01 
  49619.2021     0.18046E-01 
  49651.4642     0.18000E-01 
  49683.7264     0.17954E-01 
  49715.9886     0.17907E-01 
  49748.2507     0.17860E-01 
  49780.5129     0.17814E-01 
  49812.7750     0.17767E-01 
  49845.0372     0.17719E-01 
  49877.2994     0.17672E-01 
  49909.5615     0.17624E-01 
  49941.8237     0.17577E-01 
  49974.0858     0.17529E-01 
  50006.3480     0.17480E-01 
  50038.6102     0.17432E-01 
  50070.8723     0.17384E-01 
  50103.1345     0.17335E-01 
  50135.3966     0.17286E-01 
  50167.6588     0.17237E-01 
  50199.9210     0.17188E-01 
  50232.1831     0.17139E-01 
  50264.4453     0.17089E-01 
  50296.7074     0.17039E-01 
  50328.9696     0.16990E-01 
  50361.2318     0.16940E-01 
  50393.4939     0.16889E-01 
  50425.7561     0.16839E-01 
  50458.0182     0.16789E-01 
  50490.2804     0.16738E-01 
  50522.5426     0.16687E-01 
  50554.8047     0.16636E-01 
  50587.0669     0.16585E-01 
  50619.3290     0.16534E-01 
  50651.5912     0.16483E-01 
  50683.8534     0.16431E-01 
  50716.1155     0.16380E-01 
  50748.3777     0.16328E-01 
  50780.6398     0.16276E-01 
  50812.9020     0.16224E-01 
  50845.1642     0.16172E-01 
  50877.4263     0.16119E-01 
  50909.6885     0.16067E-01 
  50941.9506     0.16015E-01 
  50974.2128     0.15962E-01 
  51006.4750     0.15909E-01 
  51038.7371     0.15856E-01 
  51070.9993     0.15803E-01 
  51103.2614     0.15750E-01 
  51135.5236     0.15697E-01 
  51167.7858     0.15643E-01 
  51200.0479     0.15590E-01 
  51232.3101     0.15536E-01 
  51264.5722     0.15483E-01 
  51296.8344     0.15429E-01 
  51329.0966     0.15375E-01 
  51361.3587     0.15321E-01 
  51393.6209     0.15267E-01 
  51425.8830     0.15213E-01 
  51458.1452     0.15159E-01 
  51490.4074     0.15104E-01 
  51522.6695     0.15050E-01 
  51554.9317     0.14995E-01 
  51587.1938     0.14941E-01 
  51619.4560     0.14886E-01 
  51651.7182     0.14831E-01 
  51683.9803     0.14776E-01 
  51716.2425     0.14721E-01 
  51748.5046     0.14666E-01 
  51780.7668     0.14611E-01 
  51813.0290     0.14556E-01 
  51845.2911     0.14501E-01 
  51877.5533     0.14445E-01 
  51909.8154     0.14390E-01 
  51942.0776     0.14335E-01 
  51974.3398     0.14279E-01 
  52006.6019     0.14223E-01 
  52038.8641     0.14168E-01 
  52071.1262     0.14112E-01 
  52103.3884     0.14056E-01 
  52135.6506     0.14001E-01 
  52167.9127     0.13945E-01 
  52200.1749     0.13889E-01 
  52232.4370     0.13833E-01 
  52264.6992     0.13777E-01 
  52296.9614     0.13721E-01 
  52329.2235     0.13665E-01 
  52361.4857     0.13608E-01 
  52393.7478     0.13552E-01 
  52426.0100     0.13496E-01 
  52458.2722     0.13440E-01 
  52490.5343     0.13383E-01 
  52522.7965     0.13327E-01 
  52555.0586     0.13271E-01 
  52587.3208     0.13214E-01 
  52619.5830     0.13158E-01 
  52651.8451     0.13101E-01 
  52684.1073     0.13045E-01 
  52716.3694     0.12988E-01 
  52748.6316     0.12932E-01 
  52780.8938     0.12875E-01 
  52813.1559     0.12819E-01 
  52845.4181     0.12762E-01 
  52877.6802     0.12705E-01 
  52909.9424     0.12649E-01 
  52942.2046     0.12592E-01 
  52974.4667     0.12536E-01 
  53006.7289     0.12479E-01 
  53038.9910     0.12422E-01 
  53071.2532     0.12366E-01 
  53103.5154     0.12309E-01 
  53135.7775     0.12252E-01 
  53168.0397     0.12196E-01 
  53200.3018     0.12139E-01 
  53232.5640     0.12082E-01 
  53264.8262     0.12026E-01 
  53297.0883     0.11969E-01 
  53329.3505     0.11912E-01 
  53361.6126     0.11856E-01 
  53393.8748     0.11799E-01 
  53426.1370     0.11742E-01 
  53458.3991     0.11686E-01 
  53490.6613     0.11629E-01 
  53522.9234     0.11572E-01 
  53555.1856     0.11516E-01 
  53587.4478     0.11459E-01 
  53619.7099     0.11403E-01 
  53651.9721     0.11346E-01 
  53684.2342     0.11290E-01 
  53716.4964     0.11233E-01 
  53748.7586     0.11177E-01 
  53781.0207     0.11121E-01 
  53813.2829     0.11064E-01 
  53845.5450     0.11008E-01 
  53877.8072     0.10952E-01 
  53910.0694     0.10895E-01 
  53942.3315     0.10839E-01 
  53974.5937     0.10783E-01 
  54006.8558     0.10727E-01 
  54039.1180     0.10671E-01 
  54071.3802     0.10615E-01 
  54103.6423     0.10559E-01 
  54135.9045     0.10503E-01 
  54168.1666     0.10447E-01 
  54200.4288     0.10391E-01 
  54232.6910     0.10335E-01 
  54264.9531     0.10279E-01 
  54297.2153     0.10223E-01 
  54329.4774     0.10168E-01 
  54361.7396     0.10112E-01 
  54394.0018     0.10057E-01 
  54426.2639     0.10001E-01 
  54458.5261     0.99456E-02 
  54490.7882     0.98902E-02 
  54523.0504     0.98349E-02 
  54555.3126     0.97796E-02 
  54587.5747     0.97244E-02 
  54619.8369     0.96693E-02 
  54652.0990     0.96142E-02 
  54684.3612     0.95592E-02 
  54716.6234     0.95043E-02 
  54748.8855     0.94495E-02 
  54781.1477     0.93947E-02 
  54813.4098     0.93400E-02 
  54845.6720     0.92854E-02 
  54877.9342     0.92308E-02 
  54910.1963     0.91763E-02 
  54942.4585     0.91219E-02 
  54974.7206     0.90676E-02 
  55006.9828     0.90134E-02 
  55039.2450     0.89592E-02 
  55071.5071     0.89052E-02 
  55103.7693     0.88512E-02 
  55136.0314     0.87973E-02 
  55168.2936     0.87435E-02 
  55200.5558     0.86898E-02 
  55232.8179     0.86362E-02 
  55265.0801     0.85827E-02 
  55297.3422     0.85293E-02 
  55329.6044     0.84759E-02 
  55361.8666     0.84227E-02 
  55394.1287     0.83696E-02 
  55426.3909     0.83165E-02 
  55458.6530     0.82636E-02 
  55490.9152     0.82107E-02 
  55523.1774     0.81580E-02 
  55555.4395     0.81054E-02 
  55587.7017     0.80529E-02 
  55619.9638     0.80005E-02 
  55652.2260     0.79482E-02 
  55684.4882     0.78960E-02 
  55716.7503     0.78439E-02 
  55749.0125     0.77919E-02 
  55781.2746     0.77401E-02 
  55813.5368     0.76883E-02 
  55845.7990     0.76367E-02 
  55878.0611     0.75852E-02 
  55910.3233     0.75338E-02 
  55942.5854     0.74825E-02 
  55974.8476     0.74314E-02 
  56007.1098     0.73803E-02 
  56039.3719     0.73294E-02 
  56071.6341     0.72787E-02 
  56103.8962     0.72280E-02 
  56136.1584     0.71775E-02 
  56168.4206     0.71271E-02 
  56200.6827     0.70768E-02 
  56232.9449     0.70267E-02 
  56265.2070     0.69767E-02 
  56297.4692     0.69269E-02 
  56329.7314     0.68771E-02 
  56361.9935     0.68275E-02 
  56394.2557     0.67781E-02 
  56426.5178     0.67288E-02 
  56458.7800     0.66796E-02 
  56491.0422     0.66306E-02 
  56523.3043     0.65817E-02 
  56555.5665     0.65329E-02 
  56587.8286     0.64843E-02 
  56620.0908     0.64359E-02 
  56652.3530     0.63876E-02 
  56684.6151     0.63394E-02 
  56716.8773     0.62914E-02 
  56749.1394     0.62436E-02 
  56781.4016     0.61959E-02 
  56813.6638     0.61483E-02 
  56845.9259     0.61009E-02 
  56878.1881     0.60537E-02 
  56910.4502     0.60066E-02 
  56942.7124     0.59597E-02 
  56974.9746     0.59130E-02 
  57007.2367     0.58664E-02 
  57039.4989     0.58200E-02 
  57071.7610     0.57737E-02 
  57104.0232     0.57276E-02 
  57136.2854     0.56817E-02 
  57168.5475     0.56360E-02 
  57200.8097     0.55904E-02 
  57233.0718     0.55450E-02 
  57265.3340     0.54998E-02 
  57297.5962     0.54547E-02 
  57329.8583     0.54098E-02 
  57362.1205     0.53651E-02 
  57394.3826     0.53206E-02 
  57426.6448     0.52763E-02 
  57458.9070     0.52321E-02 
  57491.1691     0.51881E-02 
  57523.4313     0.51443E-02 
  57555.6934     0.51007E-02 
  57587.9556     0.50573E-02 
  57620.2178     0.50141E-02 
  57652.4799     0.49711E-02 
  57684.7421     0.49282E-02 
  57717.0042     0.48856E-02 
  57749.2664     0.48431E-02 
  57781.5286     0.48009E-02 
  57813.7907     0.47588E-02 
  57846.0529     0.47170E-02 
  57878.3150     0.46753E-02 
  57910.5772     0.46339E-02 
  57942.8394     0.45927E-02 
  57975.1015     0.45516E-02 
  58007.3637     0.45108E-02 
  58039.6258     0.44702E-02 
  58071.8880     0.44298E-02 
  58104.1502     0.43896E-02 
  58136.4123     0.43496E-02 
  58168.6745     0.43099E-02 
  58200.9366     0.42703E-02 
  58233.1988     0.42310E-02 
  58265.4610     0.41919E-02 
  58297.7231     0.41531E-02 
  58329.9853     0.41144E-02 
  58362.2474     0.40760E-02 
  58394.5096     0.40378E-02 
  58426.7718     0.39999E-02 
  58459.0339     0.39621E-02 
  58491.2961     0.39247E-02 
  58523.5582     0.38874E-02 
  58555.8204     0.38504E-02 
  58588.0826     0.38136E-02 
  58620.3447     0.37771E-02 
  58652.6069     0.37408E-02 
  58684.8690     0.37048E-02 
  58717.1312     0.36690E-02 
  58749.3934     0.36334E-02 
  58781.6555     0.35982E-02 
  58813.9177     0.35631E-02 
  58846.1798     0.35283E-02 
  58878.4420     0.34938E-02 
  58910.7042     0.34596E-02 
  58942.9663     0.34256E-02 
  58975.2285     0.33918E-02 
  59007.4906     0.33584E-02 
  59039.7528     0.33252E-02 
  59072.0150     0.32923E-02 
  59104.2771     0.32596E-02 
  59136.5393     0.32272E-02 
  59168.8014     0.31951E-02 
  59201.0636     0.31633E-02 
  59233.3258     0.31318E-02 
  59265.5879     0.31005E-02 
  59297.8501     0.30696E-02 
  59330.1122     0.30389E-02 
  59362.3744     0.30085E-02 
  59394.6366     0.29785E-02 
  59426.8987     0.29487E-02 
  59459.1609     0.29192E-02 
  59491.4230     0.28900E-02 
  59523.6852     0.28611E-02 
  59555.9474     0.28326E-02 
  59588.2095     0.28043E-02 
  59620.4717     0.27763E-02 
  59652.7338     0.27487E-02 
  59684.9960     0.27214E-02 
  59717.2582     0.26944E-02 
  59749.5203     0.26677E-02 
  59781.7825     0.26414E-02 
  59814.0446     0.26154E-02 
  59846.3068     0.25897E-02 
  59878.5690     0.25643E-02 
  59910.8311     0.25393E-02 
  59943.0933     0.25146E-02 
  59975.3554     0.24903E-02 
  60007.6176     0.24663E-02 
  60039.8798     0.24427E-02 
  60072.1419     0.24194E-02 
  60104.4041     0.23965E-02 
  60136.6662     0.23739E-02 
  60168.9284     0.23517E-02 
  60201.1906     0.23299E-02 
  60233.4527     0.23084E-02 
  60265.7149     0.22873E-02 
  60297.9770     0.22666E-02 
  60330.2392     0.22462E-02 
  60362.5014     0.22262E-02 
  60394.7635     0.22067E-02 
  60427.0257     0.21875E-02 
  60459.2878     0.21687E-02 
  60491.5500     0.21502E-02 
  60523.8122     0.21322E-02 
  60556.0743     0.21146E-02 
  60588.3365     0.20974E-02 
  60620.5986     0.20806E-02 
  60652.8608     0.20643E-02 
  60685.1230     0.20483E-02 
  60717.3851     0.20327E-02 
  60749.6473     0.20176E-02 
  60781.9094     0.20029E-02 
  60814.1716     0.19887E-02 
  60846.4338     0.19749E-02 
  60878.6959     0.19615E-02 
  60910.9581     0.19486E-02 
  60943.2202     0.19361E-02 
  60975.4824     0.19240E-02 
  61007.7446     0.19124E-02 
  61040.0067     0.19013E-02 
  61072.2689     0.18907E-02 
  61104.5310     0.18805E-02 
  61136.7932     0.18708E-02 
  61169.0554     0.18615E-02 
  61201.3175     0.18528E-02 
  61233.5797     0.18445E-02 
  61265.8418     0.18368E-02 
  61298.1040     0.18295E-02 
  61330.3662     0.18227E-02 
  61362.6283     0.18164E-02 
  61394.8905     0.18107E-02 
  61427.1526     0.18054E-02 
  61459.4148     0.18007E-02 
  61491.6770     0.17965E-02 
  61523.9391     0.17928E-02 
  61556.2013     0.17896E-02 
  61588.4634     0.17870E-02 
  61620.7256     0.17850E-02 
  61652.9878     0.17834E-02 
  61685.2499     0.17825E-02 
  61717.5121     0.17821E-02 
  61749.7742     0.17822E-02 
  61782.0364     0.17830E-02 
  61814.2986     0.17843E-02 
  61846.5607     0.17861E-02 
  61878.8229     0.17886E-02 
  61911.0850     0.17917E-02 
  61943.3472     0.17953E-02 
  61975.6094     0.17996E-02 
  62007.8715     0.18044E-02 
  62040.1337     0.18099E-02 
  62072.3958     0.18160E-02 
  62104.6580     0.18227E-02 
  62136.9202     0.18300E-02 
  62169.1823     0.18380E-02 
  62201.4445     0.18466E-02 
  62233.7066     0.18559E-02 
  62265.9688     0.18658E-02 
  62298.2310     0.18764E-02 
  62330.4931     0.18877E-02 
  62362.7553     0.18996E-02 
  62395.0174     0.19122E-02 
  62427.2796     0.19254E-02 
  62459.5418     0.19394E-02 
  62491.8039     0.19541E-02 
  62524.0661     0.19695E-02 
  62556.3282     0.19855E-02 
  62588.5904     0.20023E-02 
  62620.8526     0.20198E-02 
  62653.1147     0.20381E-02 
  62685.3769     0.20571E-02 
  62717.6390     0.20768E-02 
  62749.9012     0.20973E-02 
  62782.1634     0.21185E-02 
  62814.4255     0.21405E-02 
  62846.6877     0.21633E-02 
  62878.9498     0.21868E-02 
  62911.2120     0.22111E-02 
  62943.4742     0.22362E-02 
  62975.7363     0.22622E-02 
  63007.9985     0.22889E-02 
  63040.2606     0.23164E-02 
  63072.5228     0.23448E-02 
  63104.7850     0.23740E-02 
  63137.0471     0.24040E-02 
  63169.3093     0.24348E-02 
  63201.5714     0.24666E-02 
  63233.8336     0.24991E-02 
  63266.0958     0.25326E-02 
  63298.3579     0.25669E-02 
  63330.6201     0.26021E-02 
  63362.8822     0.26381E-02 
  63395.1444     0.26751E-02 
  63427.4066     0.27130E-02 
  63459.6687     0.27518E-02 
  63491.9309     0.27915E-02 
  63524.1930     0.28322E-02 
  63556.4552     0.28737E-02 
  63588.7174     0.29163E-02 
  63620.9795     0.29598E-02 
  63653.2417     0.30042E-02 
  63685.5038     0.30496E-02 
  63717.7660     0.30960E-02 
  63750.0282     0.31434E-02 
  63782.2903     0.31918E-02 
  63814.5525     0.32412E-02 
  63846.8146     0.32916E-02 
  63879.0768     0.33430E-02 
  63911.3390     0.33954E-02 
  63943.6011     0.34489E-02 
  63975.8633     0.35035E-02 
  64008.1254     0.35591E-02 
  64040.3876     0.36157E-02 
  64072.6498     0.36735E-02 
  64104.9119     0.37323E-02 
  64137.1741     0.37922E-02 
  64169.4362     0.38533E-02 
  64201.6984     0.39154E-02 
  64233.9606     0.39787E-02 
  64266.2227     0.40431E-02 
  64298.4849     0.41086E-02 
  64330.7470     0.41753E-02 
  64363.0092     0.42432E-02 
  64395.2714     0.43122E-02 
  64427.5335     0.43824E-02 
  64459.7957     0.44538E-02 
  64492.0578     0.45264E-02 
  64524.3200     0.46001E-02 
  64556.5822     0.46752E-02 
  64588.8443     0.47514E-02 
  64621.1065     0.48289E-02 
  64653.3686     0.49076E-02 
  64685.6308     0.49876E-02 
  64717.8930     0.50689E-02 
  64750.1551     0.51514E-02 
  64782.4173     0.52353E-02 
  64814.6794     0.53204E-02 
  64846.9416     0.54068E-02 
  64879.2038     0.54946E-02 
  64911.4659     0.55837E-02 
  64943.7281     0.56741E-02 
  64975.9902     0.57659E-02 
  65008.2524     0.58591E-02 
  65040.5146     0.59536E-02 
  65072.7767     0.60495E-02 
  65105.0389     0.61468E-02 
  65137.3010     0.62455E-02 
  65169.5632     0.63456E-02 
  65201.8254     0.64472E-02 
  65234.0875     0.65502E-02 
  65266.3497     0.66546E-02 
  65298.6118     0.67605E-02 
  65330.8740     0.68679E-02 
  65363.1362     0.69767E-02 
  65395.3983     0.70870E-02 
  65427.6605     0.71989E-02 
  65459.9226     0.73123E-02 
  65492.1848     0.74271E-02 
  65524.4470     0.75436E-02 
  65556.7091     0.76615E-02 
  65588.9713     0.77811E-02 
  65621.2334     0.79022E-02 
  65653.4956     0.80249E-02 
  65685.7578     0.81491E-02 
  65718.0199     0.82750E-02 
  65750.2821     0.84025E-02 
  65782.5442     0.85317E-02 
  65814.8064     0.86625E-02 
  65847.0686     0.87949E-02 
  65879.3307     0.89290E-02 
  65911.5929     0.90647E-02 
  65943.8550     0.92022E-02 
  65976.1172     0.93413E-02 
  66008.3794     0.94822E-02 
  66040.6415     0.96248E-02 
  66072.9037     0.97691E-02 
  66105.1658     0.99152E-02 
  66137.4280     0.10063E-01 
  66169.6902     0.10213E-01 
  66201.9523     0.10364E-01 
  66234.2145     0.10517E-01 
  66266.4766     0.10672E-01 
  66298.7388     0.10829E-01 
  66331.0010     0.10987E-01 
  66363.2631     0.11148E-01 
  66395.5253     0.11310E-01 
  66427.7874     0.11474E-01 
  66460.0496     0.11640E-01 
  66492.3118     0.11808E-01 
  66524.5739     0.11978E-01 
  66556.8361     0.12150E-01 
  66589.0982     0.12324E-01 
  66621.3604     0.12499E-01 
  66653.6226     0.12677E-01 
  66685.8847     0.12856E-01 
  66718.1469     0.13038E-01 
  66750.4090     0.13221E-01 
  66782.6712     0.13407E-01 
  66814.9334     0.13594E-01 
  66847.1955     0.13784E-01 
  66879.4577     0.13975E-01 
  66911.7198     0.14169E-01 
  66943.9820     0.14364E-01 
  66976.2442     0.14562E-01 
  67008.5063     0.14762E-01 
  67040.7685     0.14964E-01 
  67073.0306     0.15168E-01 
  67105.2928     0.15374E-01 
  67137.5550     0.15582E-01 
  67169.8171     0.15793E-01 
  67202.0793     0.16005E-01 
  67234.3414     0.16220E-01 
  67266.6036     0.16437E-01 
  67298.8658     0.16656E-01 
  67331.1279     0.16877E-01 
  67363.3901     0.17100E-01 
  67395.6522     0.17326E-01 
  67427.9144     0.17554E-01 
  67460.1766     0.17784E-01 
  67492.4387     0.18017E-01 
  67524.7009     0.18252E-01 
  67556.9630     0.18489E-01 
  67589.2252     0.18728E-01 
  67621.4874     0.18969E-01 
  67653.7495     0.19213E-01 
  67686.0117     0.19460E-01 
  67718.2738     0.19708E-01 
  67750.5360     0.19959E-01 
  67782.7982     0.20213E-01 
  67815.0603     0.20468E-01 
  67847.3225     0.20726E-01 
  67879.5846     0.20987E-01 
  67911.8468     0.21250E-01 
  67944.1090     0.21515E-01 
  67976.3711     0.21783E-01 
  68008.6333     0.22053E-01 
  68040.8954     0.22326E-01 
  68073.1576     0.22601E-01 
  68105.4198     0.22879E-01 
  68137.6819     0.23159E-01 
  68169.9441     0.23442E-01 
  68202.2062     0.23727E-01 
  68234.4684     0.24014E-01 
  68266.7306     0.24305E-01 
  68298.9927     0.24597E-01 
  68331.2549     0.24893E-01 
  68363.5170     0.25191E-01 
  68395.7792     0.25491E-01 
  68428.0414     0.25794E-01 
  68460.3035     0.26100E-01 
  68492.5657     0.26408E-01 
  68524.8278     0.26719E-01 
  68557.0900     0.27033E-01 
  68589.3522     0.27349E-01 
  68621.6143     0.27668E-01 
  68653.8765     0.27989E-01 
  68686.1386     0.28313E-01 
  68718.4008     0.28640E-01 
  68750.6630     0.28970E-01 
  68782.9251     0.29302E-01 
  68815.1873     0.29637E-01 
  68847.4494     0.29975E-01 
  68879.7116     0.30315E-01 
  68911.9738     0.30658E-01 
  68944.2359     0.31004E-01 
  68976.4981     0.31353E-01 
  69008.7602     0.31704E-01 
  69041.0224     0.32059E-01 
  69073.2846     0.32416E-01 
  69105.5467     0.32775E-01 
  69137.8089     0.33138E-01 
  69170.0710     0.33504E-01 
  69202.3332     0.33872E-01 
  69234.5954     0.34243E-01 
  69266.8575     0.34617E-01 
  69299.1197     0.34994E-01 
  69331.3818     0.35373E-01 
  69363.6440     0.35756E-01 
  69395.9062     0.36141E-01 
  69428.1683     0.36529E-01 
  69460.4305     0.36921E-01 
  69492.6926     0.37315E-01 
  69524.9548     0.37712E-01 
  69557.2170     0.38111E-01 
  69589.4791     0.38514E-01 
  69621.7413     0.38920E-01 
  69654.0034     0.39329E-01 
  69686.2656     0.39740E-01 
  69718.5278     0.40155E-01 
  69750.7899     0.40572E-01 
  69783.0521     0.40993E-01 
  69815.3142     0.41416E-01 
  69847.5764     0.41843E-01 
  69879.8386     0.42272E-01 
  69912.1007     0.42704E-01 
  69944.3629     0.43140E-01 
  69976.6250     0.43578E-01 
  70008.8872     0.44019E-01 
  70041.1494     0.44464E-01 
  70073.4115     0.44911E-01 
  70105.6737     0.45362E-01 
  70137.9358     0.45815E-01 
  70170.1980     0.46271E-01 
  70202.4602     0.46731E-01 
  70234.7223     0.47194E-01 
  70266.9845     0.47659E-01 
  70299.2466     0.48128E-01 
  70331.5088     0.48599E-01 
  70363.7710     0.49074E-01 
  70396.0331     0.49552E-01 
  70428.2953     0.50033E-01 
  70460.5574     0.50517E-01 
  70492.8196     0.51004E-01 
  70525.0818     0.51494E-01 
  70557.3439     0.51987E-01 
  70589.6061     0.52483E-01 
  70621.8682     0.52983E-01 
  70654.1304     0.53485E-01 
  70686.3926     0.53990E-01 
  70718.6547     0.54499E-01 
  70750.9169     0.55011E-01 
  70783.1790     0.55525E-01 
  70815.4412     0.56043E-01 
  70847.7034     0.56564E-01 
  70879.9655     0.57088E-01 
  70912.2277     0.57615E-01 
  70944.4898     0.58146E-01 
  70976.7520     0.58679E-01 
  71009.0142     0.59216E-01 
  71041.2763     0.59755E-01 
  71073.5385     0.60298E-01 
  71105.8006     0.60844E-01 
  71138.0628     0.61392E-01 
  71170.3250     0.61944E-01 
  71202.5871     0.62499E-01 
  71234.8493     0.63058E-01 
  71267.1114     0.63619E-01 
  71299.3736     0.64183E-01 
  71331.6358     0.64751E-01 
  71363.8979     0.65321E-01 
  71396.1601     0.65895E-01 
  71428.4222     0.66472E-01 
  71460.6844     0.67052E-01 
  71492.9466     0.67635E-01 
  71525.2087     0.68221E-01 
  71557.4709     0.68810E-01 
  71589.7330     0.69402E-01 
  71621.9952     0.69997E-01 
  71654.2574     0.70595E-01 
  71686.5195     0.71197E-01 
  71718.7817     0.71801E-01 
  71751.0438     0.72409E-01 
  71783.3060     0.73019E-01 
  71815.5682     0.73633E-01 
  71847.8303     0.74250E-01 
  71880.0925     0.74870E-01 
  71912.3546     0.75492E-01 
  71944.6168     0.76118E-01 
  71976.8790     0.76747E-01 
  72009.1411     0.77379E-01 
  72041.4033     0.78014E-01 
  72073.6654     0.78652E-01 
  72105.9276     0.79292E-01 
  72138.1898     0.79936E-01 
  72170.4519     0.80583E-01 
  72202.7141     0.81233E-01 
  72234.9762     0.81886E-01 
  72267.2384     0.82542E-01 
  72299.5006     0.83201E-01 
  72331.7627     0.83862E-01 
  72364.0249     0.84527E-01 
  72396.2870     0.85194E-01 
  72428.5492     0.85865E-01 
  72460.8114     0.86538E-01 
  72493.0735     0.87215E-01 
  72525.3357     0.87894E-01 
  72557.5978     0.88576E-01 
  72589.8600     0.89261E-01 
