  32262.1600     0.34412E+00 
  32294.4222     0.34793E+00 
  32326.6843     0.35176E+00 
  32358.9465     0.35563E+00 
  32391.2086     0.35952E+00 
  32423.4708     0.36344E+00 
  32455.7330     0.36738E+00 
  32487.9951     0.37136E+00 
  32520.2573     0.37536E+00 
  32552.5194     0.37939E+00 
  32584.7816     0.38344E+00 
  32617.0438     0.38753E+00 
  32649.3059     0.39164E+00 
  32681.5681     0.39577E+00 
  32713.8302     0.39994E+00 
  32746.0924     0.40413E+00 
  32778.3546     0.40835E+00 
  32810.6167     0.41259E+00 
  32842.8789     0.41687E+00 
  32875.1410     0.42117E+00 
  32907.4032     0.42549E+00 
  32939.6654     0.42985E+00 
  32971.9275     0.43423E+00 
  33004.1897     0.43863E+00 
  33036.4518     0.44307E+00 
  33068.7140     0.44753E+00 
  33100.9762     0.45201E+00 
  33133.2383     0.45652E+00 
  33165.5005     0.46106E+00 
  33197.7626     0.46563E+00 
  33230.0248     0.47022E+00 
  33262.2870     0.47484E+00 
  33294.5491     0.47948E+00 
  33326.8113     0.48415E+00 
  33359.0734     0.48885E+00 
  33391.3356     0.49357E+00 
  33423.5978     0.49832E+00 
  33455.8599     0.50309E+00 
  33488.1221     0.50789E+00 
  33520.3842     0.51271E+00 
  33552.6464     0.51756E+00 
  33584.9086     0.52243E+00 
  33617.1707     0.52733E+00 
  33649.4329     0.53225E+00 
  33681.6950     0.53720E+00 
  33713.9572     0.54217E+00 
  33746.2194     0.54717E+00 
  33778.4815     0.55219E+00 
  33810.7437     0.55723E+00 
  33843.0058     0.56230E+00 
  33875.2680     0.56739E+00 
  33907.5302     0.57251E+00 
  33939.7923     0.57765E+00 
  33972.0545     0.58281E+00 
  34004.3166     0.58800E+00 
  34036.5788     0.59321E+00 
  34068.8410     0.59844E+00 
  34101.1031     0.60369E+00 
  34133.3653     0.60897E+00 
  34165.6274     0.61427E+00 
  34197.8896     0.61959E+00 
  34230.1518     0.62493E+00 
  34262.4139     0.63030E+00 
  34294.6761     0.63568E+00 
  34326.9382     0.64109E+00 
  34359.2004     0.64652E+00 
  34391.4626     0.65197E+00 
  34423.7247     0.65744E+00 
  34455.9869     0.66293E+00 
  34488.2490     0.66844E+00 
  34520.5112     0.67397E+00 
  34552.7734     0.67952E+00 
  34585.0355     0.68509E+00 
  34617.2977     0.69068E+00 
  34649.5598     0.69629E+00 
  34681.8220     0.70192E+00 
  34714.0842     0.70757E+00 
  34746.3463     0.71323E+00 
  34778.6085     0.71892E+00 
  34810.8706     0.72462E+00 
  34843.1328     0.73034E+00 
  34875.3950     0.73607E+00 
  34907.6571     0.74183E+00 
  34939.9193     0.74760E+00 
  34972.1814     0.75338E+00 
  35004.4436     0.75919E+00 
  35036.7058     0.76501E+00 
  35068.9679     0.77084E+00 
  35101.2301     0.77669E+00 
  35133.4922     0.78256E+00 
  35165.7544     0.78844E+00 
  35198.0166     0.79434E+00 
  35230.2787     0.80025E+00 
  35262.5409     0.80618E+00 
  35294.8030     0.81211E+00 
  35327.0652     0.81807E+00 
  35359.3274     0.82403E+00 
  35391.5895     0.83001E+00 
  35423.8517     0.83600E+00 
  35456.1138     0.84201E+00 
  35488.3760     0.84802E+00 
  35520.6382     0.85405E+00 
  35552.9003     0.86009E+00 
  35585.1625     0.86614E+00 
  35617.4246     0.87221E+00 
  35649.6868     0.87828E+00 
  35681.9490     0.88436E+00 
  35714.2111     0.89045E+00 
  35746.4733     0.89655E+00 
  35778.7354     0.90267E+00 
  35810.9976     0.90879E+00 
  35843.2598     0.91492E+00 
  35875.5219     0.92105E+00 
  35907.7841     0.92720E+00 
  35940.0462     0.93335E+00 
  35972.3084     0.93951E+00 
  36004.5706     0.94568E+00 
  36036.8327     0.95185E+00 
  36069.0949     0.95803E+00 
  36101.3570     0.96422E+00 
  36133.6192     0.97041E+00 
  36165.8814     0.97660E+00 
  36198.1435     0.98281E+00 
  36230.4057     0.98901E+00 
  36262.6678     0.99522E+00 
  36294.9300     0.10014E+01 
  36327.1922     0.10077E+01 
  36359.4543     0.10139E+01 
  36391.7165     0.10201E+01 
  36423.9786     0.10263E+01 
  36456.2408     0.10325E+01 
  36488.5030     0.10388E+01 
  36520.7651     0.10450E+01 
  36553.0273     0.10512E+01 
  36585.2894     0.10575E+01 
  36617.5516     0.10637E+01 
  36649.8138     0.10699E+01 
  36682.0759     0.10762E+01 
  36714.3381     0.10824E+01 
  36746.6002     0.10886E+01 
  36778.8624     0.10948E+01 
  36811.1246     0.11011E+01 
  36843.3867     0.11073E+01 
  36875.6489     0.11135E+01 
  36907.9110     0.11197E+01 
  36940.1732     0.11259E+01 
  36972.4354     0.11321E+01 
  37004.6975     0.11383E+01 
  37036.9597     0.11445E+01 
  37069.2218     0.11507E+01 
  37101.4840     0.11569E+01 
  37133.7462     0.11631E+01 
  37166.0083     0.11693E+01 
  37198.2705     0.11755E+01 
  37230.5326     0.11816E+01 
  37262.7948     0.11878E+01 
  37295.0570     0.11939E+01 
  37327.3191     0.12001E+01 
  37359.5813     0.12062E+01 
  37391.8434     0.12123E+01 
  37424.1056     0.12184E+01 
  37456.3678     0.12245E+01 
  37488.6299     0.12306E+01 
  37520.8921     0.12367E+01 
  37553.1542     0.12428E+01 
  37585.4164     0.12488E+01 
  37617.6786     0.12549E+01 
  37649.9407     0.12609E+01 
  37682.2029     0.12669E+01 
  37714.4650     0.12729E+01 
  37746.7272     0.12789E+01 
  37778.9894     0.12849E+01 
  37811.2515     0.12909E+01 
  37843.5137     0.12968E+01 
  37875.7758     0.13027E+01 
  37908.0380     0.13087E+01 
  37940.3002     0.13146E+01 
  37972.5623     0.13205E+01 
  38004.8245     0.13263E+01 
  38037.0866     0.13322E+01 
  38069.3488     0.13380E+01 
  38101.6110     0.13438E+01 
  38133.8731     0.13497E+01 
  38166.1353     0.13554E+01 
  38198.3974     0.13612E+01 
  38230.6596     0.13669E+01 
  38262.9218     0.13727E+01 
  38295.1839     0.13784E+01 
  38327.4461     0.13841E+01 
  38359.7082     0.13897E+01 
  38391.9704     0.13954E+01 
  38424.2326     0.14010E+01 
  38456.4947     0.14066E+01 
  38488.7569     0.14122E+01 
  38521.0190     0.14177E+01 
  38553.2812     0.14233E+01 
  38585.5434     0.14288E+01 
  38617.8055     0.14343E+01 
  38650.0677     0.14397E+01 
  38682.3298     0.14452E+01 
  38714.5920     0.14506E+01 
  38746.8542     0.14560E+01 
  38779.1163     0.14614E+01 
  38811.3785     0.14667E+01 
  38843.6406     0.14720E+01 
  38875.9028     0.14773E+01 
  38908.1650     0.14826E+01 
  38940.4271     0.14878E+01 
  38972.6893     0.14930E+01 
  39004.9514     0.14982E+01 
  39037.2136     0.15033E+01 
  39069.4758     0.15084E+01 
  39101.7379     0.15135E+01 
  39134.0001     0.15186E+01 
  39166.2622     0.15236E+01 
  39198.5244     0.15286E+01 
  39230.7866     0.15336E+01 
  39263.0487     0.15385E+01 
  39295.3109     0.15435E+01 
  39327.5730     0.15483E+01 
  39359.8352     0.15532E+01 
  39392.0974     0.15580E+01 
  39424.3595     0.15628E+01 
  39456.6217     0.15675E+01 
  39488.8838     0.15723E+01 
  39521.1460     0.15769E+01 
  39553.4082     0.15816E+01 
  39585.6703     0.15862E+01 
  39617.9325     0.15908E+01 
  39650.1946     0.15954E+01 
  39682.4568     0.15999E+01 
  39714.7190     0.16044E+01 
  39746.9811     0.16088E+01 
  39779.2433     0.16132E+01 
  39811.5054     0.16176E+01 
  39843.7676     0.16219E+01 
  39876.0298     0.16262E+01 
  39908.2919     0.16305E+01 
  39940.5541     0.16347E+01 
  39972.8162     0.16389E+01 
  40005.0784     0.16431E+01 
  40037.3406     0.16472E+01 
  40069.6027     0.16513E+01 
  40101.8649     0.16553E+01 
  40134.1270     0.16593E+01 
  40166.3892     0.16633E+01 
  40198.6514     0.16672E+01 
  40230.9135     0.16711E+01 
  40263.1757     0.16750E+01 
  40295.4378     0.16788E+01 
  40327.7000     0.16826E+01 
  40359.9622     0.16863E+01 
  40392.2243     0.16900E+01 
  40424.4865     0.16936E+01 
  40456.7486     0.16972E+01 
  40489.0108     0.17008E+01 
  40521.2730     0.17043E+01 
  40553.5351     0.17078E+01 
  40585.7973     0.17113E+01 
  40618.0594     0.17147E+01 
  40650.3216     0.17180E+01 
  40682.5838     0.17214E+01 
  40714.8459     0.17246E+01 
  40747.1081     0.17279E+01 
  40779.3702     0.17311E+01 
  40811.6324     0.17342E+01 
  40843.8946     0.17373E+01 
  40876.1567     0.17404E+01 
  40908.4189     0.17434E+01 
  40940.6810     0.17464E+01 
  40972.9432     0.17493E+01 
  41005.2054     0.17522E+01 
  41037.4675     0.17551E+01 
  41069.7297     0.17579E+01 
  41101.9918     0.17606E+01 
  41134.2540     0.17634E+01 
  41166.5162     0.17660E+01 
  41198.7783     0.17686E+01 
  41231.0405     0.17712E+01 
  41263.3026     0.17738E+01 
  41295.5648     0.17763E+01 
  41327.8270     0.17787E+01 
  41360.0891     0.17811E+01 
  41392.3513     0.17835E+01 
  41424.6134     0.17858E+01 
  41456.8756     0.17880E+01 
  41489.1378     0.17903E+01 
  41521.3999     0.17924E+01 
  41553.6621     0.17946E+01 
  41585.9242     0.17966E+01 
  41618.1864     0.17987E+01 
  41650.4486     0.18007E+01 
  41682.7107     0.18026E+01 
  41714.9729     0.18045E+01 
  41747.2350     0.18064E+01 
  41779.4972     0.18082E+01 
  41811.7594     0.18099E+01 
  41844.0215     0.18116E+01 
  41876.2837     0.18133E+01 
  41908.5458     0.18149E+01 
  41940.8080     0.18165E+01 
  41973.0702     0.18180E+01 
  42005.3323     0.18195E+01 
  42037.5945     0.18209E+01 
  42069.8566     0.18223E+01 
  42102.1188     0.18236E+01 
  42134.3810     0.18249E+01 
  42166.6431     0.18262E+01 
  42198.9053     0.18274E+01 
  42231.1674     0.18285E+01 
  42263.4296     0.18296E+01 
  42295.6918     0.18307E+01 
  42327.9539     0.18317E+01 
  42360.2161     0.18326E+01 
  42392.4782     0.18336E+01 
  42424.7404     0.18344E+01 
  42457.0026     0.18352E+01 
  42489.2647     0.18360E+01 
  42521.5269     0.18367E+01 
  42553.7890     0.18374E+01 
  42586.0512     0.18381E+01 
  42618.3134     0.18386E+01 
  42650.5755     0.18392E+01 
  42682.8377     0.18397E+01 
  42715.0998     0.18401E+01 
  42747.3620     0.18405E+01 
  42779.6242     0.18409E+01 
  42811.8863     0.18412E+01 
  42844.1485     0.18414E+01 
  42876.4106     0.18416E+01 
  42908.6728     0.18418E+01 
  42940.9350     0.18419E+01 
  42973.1971     0.18420E+01 
  43005.4593     0.18420E+01 
  43037.7214     0.18420E+01 
  43069.9836     0.18419E+01 
  43102.2458     0.18418E+01 
  43134.5079     0.18417E+01 
  43166.7701     0.18415E+01 
  43199.0322     0.18412E+01 
  43231.2944     0.18409E+01 
  43263.5566     0.18406E+01 
  43295.8187     0.18402E+01 
  43328.0809     0.18397E+01 
  43360.3430     0.18393E+01 
  43392.6052     0.18387E+01 
  43424.8674     0.18382E+01 
  43457.1295     0.18376E+01 
  43489.3917     0.18369E+01 
  43521.6538     0.18362E+01 
  43553.9160     0.18355E+01 
  43586.1782     0.18347E+01 
  43618.4403     0.18338E+01 
  43650.7025     0.18329E+01 
  43682.9646     0.18320E+01 
  43715.2268     0.18310E+01 
  43747.4890     0.18300E+01 
  43779.7511     0.18290E+01 
  43812.0133     0.18279E+01 
  43844.2754     0.18267E+01 
  43876.5376     0.18255E+01 
  43908.7998     0.18243E+01 
  43941.0619     0.18230E+01 
  43973.3241     0.18217E+01 
  44005.5862     0.18204E+01 
  44037.8484     0.18190E+01 
  44070.1106     0.18175E+01 
  44102.3727     0.18160E+01 
  44134.6349     0.18145E+01 
  44166.8970     0.18129E+01 
  44199.1592     0.18113E+01 
  44231.4214     0.18097E+01 
  44263.6835     0.18080E+01 
  44295.9457     0.18062E+01 
  44328.2078     0.18044E+01 
  44360.4700     0.18026E+01 
  44392.7322     0.18008E+01 
  44424.9943     0.17989E+01 
  44457.2565     0.17969E+01 
  44489.5186     0.17949E+01 
  44521.7808     0.17929E+01 
  44554.0430     0.17909E+01 
  44586.3051     0.17888E+01 
  44618.5673     0.17866E+01 
  44650.8294     0.17844E+01 
  44683.0916     0.17822E+01 
  44715.3538     0.17800E+01 
  44747.6159     0.17777E+01 
  44779.8781     0.17753E+01 
  44812.1402     0.17730E+01 
  44844.4024     0.17706E+01 
  44876.6646     0.17681E+01 
  44908.9267     0.17656E+01 
  44941.1889     0.17631E+01 
  44973.4510     0.17606E+01 
  45005.7132     0.17580E+01 
  45037.9754     0.17553E+01 
  45070.2375     0.17527E+01 
  45102.4997     0.17500E+01 
  45134.7618     0.17472E+01 
  45167.0240     0.17445E+01 
  45199.2862     0.17417E+01 
  45231.5483     0.17388E+01 
  45263.8105     0.17359E+01 
  45296.0726     0.17330E+01 
  45328.3348     0.17301E+01 
  45360.5970     0.17271E+01 
  45392.8591     0.17241E+01 
  45425.1213     0.17210E+01 
  45457.3834     0.17179E+01 
  45489.6456     0.17148E+01 
  45521.9078     0.17117E+01 
  45554.1699     0.17085E+01 
  45586.4321     0.17053E+01 
  45618.6942     0.17020E+01 
  45650.9564     0.16988E+01 
  45683.2186     0.16955E+01 
  45715.4807     0.16921E+01 
  45747.7429     0.16888E+01 
  45780.0050     0.16854E+01 
  45812.2672     0.16819E+01 
  45844.5294     0.16785E+01 
  45876.7915     0.16750E+01 
  45909.0537     0.16715E+01 
  45941.3158     0.16679E+01 
  45973.5780     0.16643E+01 
  46005.8402     0.16607E+01 
  46038.1023     0.16571E+01 
  46070.3645     0.16534E+01 
  46102.6266     0.16497E+01 
  46134.8888     0.16460E+01 
  46167.1510     0.16422E+01 
  46199.4131     0.16385E+01 
  46231.6753     0.16347E+01 
  46263.9374     0.16308E+01 
  46296.1996     0.16270E+01 
  46328.4618     0.16231E+01 
  46360.7239     0.16192E+01 
  46392.9861     0.16153E+01 
  46425.2482     0.16113E+01 
  46457.5104     0.16073E+01 
  46489.7726     0.16033E+01 
  46522.0347     0.15993E+01 
  46554.2969     0.15952E+01 
  46586.5590     0.15911E+01 
  46618.8212     0.15870E+01 
  46651.0834     0.15829E+01 
  46683.3455     0.15787E+01 
  46715.6077     0.15746E+01 
  46747.8698     0.15704E+01 
  46780.1320     0.15661E+01 
  46812.3942     0.15619E+01 
  46844.6563     0.15576E+01 
  46876.9185     0.15533E+01 
  46909.1806     0.15490E+01 
  46941.4428     0.15447E+01 
  46973.7050     0.15404E+01 
  47005.9671     0.15360E+01 
  47038.2293     0.15316E+01 
  47070.4914     0.15272E+01 
  47102.7536     0.15228E+01 
  47135.0158     0.15183E+01 
  47167.2779     0.15138E+01 
  47199.5401     0.15093E+01 
  47231.8022     0.15048E+01 
  47264.0644     0.15003E+01 
  47296.3266     0.14958E+01 
  47328.5887     0.14912E+01 
  47360.8509     0.14866E+01 
  47393.1130     0.14821E+01 
  47425.3752     0.14774E+01 
  47457.6374     0.14728E+01 
  47489.8995     0.14682E+01 
  47522.1617     0.14635E+01 
  47554.4238     0.14588E+01 
  47586.6860     0.14541E+01 
  47618.9482     0.14494E+01 
  47651.2103     0.14447E+01 
  47683.4725     0.14400E+01 
  47715.7346     0.14352E+01 
  47747.9968     0.14305E+01 
  47780.2590     0.14257E+01 
  47812.5211     0.14209E+01 
  47844.7833     0.14161E+01 
  47877.0454     0.14113E+01 
  47909.3076     0.14065E+01 
  47941.5698     0.14016E+01 
  47973.8319     0.13968E+01 
  48006.0941     0.13919E+01 
  48038.3562     0.13870E+01 
  48070.6184     0.13821E+01 
  48102.8806     0.13772E+01 
  48135.1427     0.13723E+01 
  48167.4049     0.13674E+01 
  48199.6670     0.13625E+01 
  48231.9292     0.13575E+01 
  48264.1914     0.13526E+01 
  48296.4535     0.13476E+01 
  48328.7157     0.13426E+01 
  48360.9778     0.13377E+01 
  48393.2400     0.13327E+01 
  48425.5022     0.13277E+01 
  48457.7643     0.13227E+01 
  48490.0265     0.13176E+01 
  48522.2886     0.13126E+01 
  48554.5508     0.13076E+01 
  48586.8130     0.13026E+01 
  48619.0751     0.12975E+01 
  48651.3373     0.12925E+01 
  48683.5994     0.12874E+01 
  48715.8616     0.12823E+01 
  48748.1238     0.12773E+01 
  48780.3859     0.12722E+01 
  48812.6481     0.12671E+01 
  48844.9102     0.12620E+01 
  48877.1724     0.12569E+01 
  48909.4346     0.12518E+01 
  48941.6967     0.12467E+01 
  48973.9589     0.12416E+01 
  49006.2210     0.12365E+01 
  49038.4832     0.12314E+01 
  49070.7454     0.12263E+01 
  49103.0075     0.12212E+01 
  49135.2697     0.12161E+01 
  49167.5318     0.12109E+01 
  49199.7940     0.12058E+01 
  49232.0562     0.12007E+01 
  49264.3183     0.11955E+01 
  49296.5805     0.11904E+01 
  49328.8426     0.11853E+01 
  49361.1048     0.11801E+01 
  49393.3670     0.11750E+01 
  49425.6291     0.11698E+01 
  49457.8913     0.11647E+01 
  49490.1534     0.11595E+01 
  49522.4156     0.11544E+01 
  49554.6778     0.11493E+01 
  49586.9399     0.11441E+01 
  49619.2021     0.11390E+01 
  49651.4642     0.11338E+01 
  49683.7264     0.11287E+01 
  49715.9886     0.11235E+01 
  49748.2507     0.11184E+01 
  49780.5129     0.11132E+01 
  49812.7750     0.11081E+01 
  49845.0372     0.11030E+01 
  49877.2994     0.10978E+01 
  49909.5615     0.10927E+01 
  49941.8237     0.10876E+01 
  49974.0858     0.10824E+01 
  50006.3480     0.10773E+01 
  50038.6102     0.10722E+01 
  50070.8723     0.10670E+01 
  50103.1345     0.10619E+01 
  50135.3966     0.10568E+01 
  50167.6588     0.10517E+01 
  50199.9210     0.10466E+01 
  50232.1831     0.10415E+01 
  50264.4453     0.10364E+01 
  50296.7074     0.10313E+01 
  50328.9696     0.10262E+01 
  50361.2318     0.10211E+01 
  50393.4939     0.10160E+01 
  50425.7561     0.10109E+01 
  50458.0182     0.10059E+01 
  50490.2804     0.10008E+01 
  50522.5426     0.99573E+00 
  50554.8047     0.99067E+00 
  50587.0669     0.98562E+00 
  50619.3290     0.98058E+00 
  50651.5912     0.97554E+00 
  50683.8534     0.97050E+00 
  50716.1155     0.96547E+00 
  50748.3777     0.96045E+00 
  50780.6398     0.95544E+00 
  50812.9020     0.95043E+00 
  50845.1642     0.94543E+00 
  50877.4263     0.94044E+00 
  50909.6885     0.93545E+00 
  50941.9506     0.93047E+00 
  50974.2128     0.92550E+00 
  51006.4750     0.92054E+00 
  51038.7371     0.91558E+00 
  51070.9993     0.91063E+00 
  51103.2614     0.90569E+00 
  51135.5236     0.90076E+00 
  51167.7858     0.89584E+00 
  51200.0479     0.89093E+00 
  51232.3101     0.88602E+00 
  51264.5722     0.88113E+00 
  51296.8344     0.87624E+00 
  51329.0966     0.87136E+00 
  51361.3587     0.86649E+00 
  51393.6209     0.86163E+00 
  51425.8830     0.85678E+00 
  51458.1452     0.85194E+00 
  51490.4074     0.84711E+00 
  51522.6695     0.84229E+00 
  51554.9317     0.83748E+00 
  51587.1938     0.83268E+00 
  51619.4560     0.82789E+00 
  51651.7182     0.82311E+00 
  51683.9803     0.81834E+00 
  51716.2425     0.81358E+00 
  51748.5046     0.80883E+00 
  51780.7668     0.80410E+00 
  51813.0290     0.79937E+00 
  51845.2911     0.79466E+00 
  51877.5533     0.78995E+00 
  51909.8154     0.78526E+00 
  51942.0776     0.78058E+00 
  51974.3398     0.77591E+00 
  52006.6019     0.77125E+00 
  52038.8641     0.76660E+00 
  52071.1262     0.76197E+00 
  52103.3884     0.75735E+00 
  52135.6506     0.75274E+00 
  52167.9127     0.74814E+00 
  52200.1749     0.74355E+00 
  52232.4370     0.73897E+00 
  52264.6992     0.73441E+00 
  52296.9614     0.72986E+00 
  52329.2235     0.72532E+00 
  52361.4857     0.72080E+00 
  52393.7478     0.71629E+00 
  52426.0100     0.71179E+00 
  52458.2722     0.70730E+00 
  52490.5343     0.70283E+00 
  52522.7965     0.69837E+00 
  52555.0586     0.69392E+00 
  52587.3208     0.68949E+00 
  52619.5830     0.68506E+00 
  52651.8451     0.68066E+00 
  52684.1073     0.67626E+00 
  52716.3694     0.67188E+00 
  52748.6316     0.66751E+00 
  52780.8938     0.66316E+00 
  52813.1559     0.65882E+00 
  52845.4181     0.65449E+00 
  52877.6802     0.65018E+00 
  52909.9424     0.64588E+00 
  52942.2046     0.64159E+00 
  52974.4667     0.63732E+00 
  53006.7289     0.63306E+00 
  53038.9910     0.62882E+00 
  53071.2532     0.62459E+00 
  53103.5154     0.62038E+00 
  53135.7775     0.61618E+00 
  53168.0397     0.61199E+00 
  53200.3018     0.60782E+00 
  53232.5640     0.60366E+00 
  53264.8262     0.59952E+00 
  53297.0883     0.59539E+00 
  53329.3505     0.59127E+00 
  53361.6126     0.58717E+00 
  53393.8748     0.58309E+00 
  53426.1370     0.57902E+00 
  53458.3991     0.57496E+00 
  53490.6613     0.57092E+00 
  53522.9234     0.56689E+00 
  53555.1856     0.56288E+00 
  53587.4478     0.55888E+00 
  53619.7099     0.55490E+00 
  53651.9721     0.55093E+00 
  53684.2342     0.54698E+00 
  53716.4964     0.54305E+00 
  53748.7586     0.53912E+00 
  53781.0207     0.53522E+00 
  53813.2829     0.53132E+00 
  53845.5450     0.52745E+00 
  53877.8072     0.52359E+00 
  53910.0694     0.51974E+00 
  53942.3315     0.51591E+00 
  53974.5937     0.51209E+00 
  54006.8558     0.50829E+00 
  54039.1180     0.50451E+00 
  54071.3802     0.50073E+00 
  54103.6423     0.49698E+00 
  54135.9045     0.49324E+00 
  54168.1666     0.48952E+00 
  54200.4288     0.48581E+00 
  54232.6910     0.48211E+00 
  54264.9531     0.47843E+00 
  54297.2153     0.47477E+00 
  54329.4774     0.47112E+00 
  54361.7396     0.46749E+00 
  54394.0018     0.46388E+00 
  54426.2639     0.46027E+00 
  54458.5261     0.45669E+00 
  54490.7882     0.45312E+00 
  54523.0504     0.44956E+00 
  54555.3126     0.44602E+00 
  54587.5747     0.44250E+00 
  54619.8369     0.43899E+00 
  54652.0990     0.43550E+00 
  54684.3612     0.43202E+00 
  54716.6234     0.42856E+00 
  54748.8855     0.42511E+00 
  54781.1477     0.42168E+00 
  54813.4098     0.41827E+00 
  54845.6720     0.41487E+00 
  54877.9342     0.41148E+00 
  54910.1963     0.40812E+00 
  54942.4585     0.40476E+00 
  54974.7206     0.40143E+00 
  55006.9828     0.39810E+00 
  55039.2450     0.39480E+00 
  55071.5071     0.39151E+00 
  55103.7693     0.38823E+00 
  55136.0314     0.38497E+00 
  55168.2936     0.38173E+00 
  55200.5558     0.37850E+00 
  55232.8179     0.37528E+00 
  55265.0801     0.37208E+00 
  55297.3422     0.36890E+00 
  55329.6044     0.36573E+00 
  55361.8666     0.36258E+00 
  55394.1287     0.35945E+00 
  55426.3909     0.35633E+00 
  55458.6530     0.35322E+00 
  55490.9152     0.35013E+00 
  55523.1774     0.34706E+00 
  55555.4395     0.34400E+00 
  55587.7017     0.34095E+00 
  55619.9638     0.33792E+00 
  55652.2260     0.33491E+00 
  55684.4882     0.33191E+00 
  55716.7503     0.32893E+00 
  55749.0125     0.32596E+00 
  55781.2746     0.32301E+00 
  55813.5368     0.32007E+00 
  55845.7990     0.31715E+00 
  55878.0611     0.31424E+00 
  55910.3233     0.31135E+00 
  55942.5854     0.30847E+00 
  55974.8476     0.30561E+00 
  56007.1098     0.30277E+00 
  56039.3719     0.29994E+00 
  56071.6341     0.29712E+00 
  56103.8962     0.29432E+00 
  56136.1584     0.29153E+00 
  56168.4206     0.28876E+00 
  56200.6827     0.28601E+00 
  56232.9449     0.28327E+00 
  56265.2070     0.28054E+00 
  56297.4692     0.27783E+00 
  56329.7314     0.27513E+00 
  56361.9935     0.27245E+00 
  56394.2557     0.26978E+00 
  56426.5178     0.26713E+00 
  56458.7800     0.26449E+00 
  56491.0422     0.26187E+00 
  56523.3043     0.25926E+00 
  56555.5665     0.25667E+00 
  56587.8286     0.25409E+00 
  56620.0908     0.25153E+00 
  56652.3530     0.24898E+00 
  56684.6151     0.24645E+00 
  56716.8773     0.24393E+00 
  56749.1394     0.24142E+00 
  56781.4016     0.23893E+00 
  56813.6638     0.23645E+00 
  56845.9259     0.23399E+00 
  56878.1881     0.23154E+00 
  56910.4502     0.22911E+00 
  56942.7124     0.22669E+00 
  56974.9746     0.22429E+00 
  57007.2367     0.22190E+00 
  57039.4989     0.21952E+00 
  57071.7610     0.21716E+00 
  57104.0232     0.21481E+00 
  57136.2854     0.21248E+00 
  57168.5475     0.21016E+00 
  57200.8097     0.20786E+00 
  57233.0718     0.20557E+00 
  57265.3340     0.20329E+00 
  57297.5962     0.20103E+00 
  57329.8583     0.19878E+00 
  57362.1205     0.19654E+00 
  57394.3826     0.19432E+00 
  57426.6448     0.19212E+00 
  57458.9070     0.18992E+00 
  57491.1691     0.18774E+00 
  57523.4313     0.18558E+00 
  57555.6934     0.18343E+00 
  57587.9556     0.18129E+00 
  57620.2178     0.17916E+00 
  57652.4799     0.17705E+00 
  57684.7421     0.17496E+00 
  57717.0042     0.17287E+00 
  57749.2664     0.17080E+00 
  57781.5286     0.16875E+00 
  57813.7907     0.16671E+00 
  57846.0529     0.16468E+00 
  57878.3150     0.16266E+00 
  57910.5772     0.16066E+00 
  57942.8394     0.15867E+00 
  57975.1015     0.15670E+00 
  58007.3637     0.15474E+00 
  58039.6258     0.15279E+00 
  58071.8880     0.15085E+00 
  58104.1502     0.14893E+00 
  58136.4123     0.14702E+00 
  58168.6745     0.14513E+00 
  58200.9366     0.14325E+00 
  58233.1988     0.14138E+00 
  58265.4610     0.13952E+00 
  58297.7231     0.13768E+00 
  58329.9853     0.13585E+00 
  58362.2474     0.13403E+00 
  58394.5096     0.13223E+00 
  58426.7718     0.13044E+00 
  58459.0339     0.12866E+00 
  58491.2961     0.12690E+00 
  58523.5582     0.12515E+00 
  58555.8204     0.12341E+00 
  58588.0826     0.12168E+00 
  58620.3447     0.11997E+00 
  58652.6069     0.11827E+00 
  58684.8690     0.11659E+00 
  58717.1312     0.11491E+00 
  58749.3934     0.11325E+00 
  58781.6555     0.11160E+00 
  58813.9177     0.10997E+00 
  58846.1798     0.10835E+00 
  58878.4420     0.10674E+00 
  58910.7042     0.10514E+00 
  58942.9663     0.10356E+00 
  58975.2285     0.10198E+00 
  59007.4906     0.10042E+00 
  59039.7528     0.98878E-01 
  59072.0150     0.97345E-01 
  59104.2771     0.95824E-01 
  59136.5393     0.94316E-01 
  59168.8014     0.92820E-01 
  59201.0636     0.91337E-01 
  59233.3258     0.89866E-01 
  59265.5879     0.88409E-01 
  59297.8501     0.86963E-01 
  59330.1122     0.85531E-01 
  59362.3744     0.84110E-01 
  59394.6366     0.82703E-01 
  59426.8987     0.81308E-01 
  59459.1609     0.79925E-01 
  59491.4230     0.78556E-01 
  59523.6852     0.77198E-01 
  59555.9474     0.75853E-01 
  59588.2095     0.74521E-01 
  59620.4717     0.73201E-01 
  59652.7338     0.71894E-01 
  59684.9960     0.70600E-01 
  59717.2582     0.69318E-01 
  59749.5203     0.68048E-01 
  59781.7825     0.66791E-01 
  59814.0446     0.65547E-01 
  59846.3068     0.64315E-01 
  59878.5690     0.63096E-01 
  59910.8311     0.61890E-01 
  59943.0933     0.60696E-01 
  59975.3554     0.59514E-01 
  60007.6176     0.58346E-01 
  60039.8798     0.57190E-01 
  60072.1419     0.56046E-01 
  60104.4041     0.54916E-01 
  60136.6662     0.53798E-01 
  60168.9284     0.52693E-01 
  60201.1906     0.51600E-01 
  60233.4527     0.50521E-01 
  60265.7149     0.49454E-01 
  60297.9770     0.48400E-01 
  60330.2392     0.47359E-01 
  60362.5014     0.46331E-01 
  60394.7635     0.45315E-01 
  60427.0257     0.44313E-01 
  60459.2878     0.43324E-01 
  60491.5500     0.42347E-01 
  60523.8122     0.41384E-01 
  60556.0743     0.40434E-01 
  60588.3365     0.39497E-01 
  60620.5986     0.38573E-01 
  60652.8608     0.37663E-01 
  60685.1230     0.36765E-01 
  60717.3851     0.35882E-01 
  60749.6473     0.35011E-01 
  60781.9094     0.34154E-01 
  60814.1716     0.33310E-01 
  60846.4338     0.32480E-01 
  60878.6959     0.31664E-01 
  60910.9581     0.30861E-01 
  60943.2202     0.30072E-01 
  60975.4824     0.29297E-01 
  61007.7446     0.28536E-01 
  61040.0067     0.27788E-01 
  61072.2689     0.27055E-01 
  61104.5310     0.26336E-01 
  61136.7932     0.25631E-01 
  61169.0554     0.24940E-01 
  61201.3175     0.24264E-01 
  61233.5797     0.23602E-01 
  61265.8418     0.22954E-01 
  61298.1040     0.22321E-01 
  61330.3662     0.21703E-01 
  61362.6283     0.21100E-01 
  61394.8905     0.20511E-01 
  61427.1526     0.19937E-01 
  61459.4148     0.19379E-01 
  61491.6770     0.18836E-01 
  61523.9391     0.18308E-01 
  61556.2013     0.17795E-01 
  61588.4634     0.17298E-01 
  61620.7256     0.16817E-01 
  61652.9878     0.16351E-01 
  61685.2499     0.15902E-01 
  61717.5121     0.15468E-01 
  61749.7742     0.15051E-01 
  61782.0364     0.14650E-01 
  61814.2986     0.14265E-01 
  61846.5607     0.13897E-01 
  61878.8229     0.13546E-01 
  61911.0850     0.13211E-01 
  61943.3472     0.12894E-01 
  61975.6094     0.12593E-01 
  62007.8715     0.12311E-01 
  62040.1337     0.12045E-01 
  62072.3958     0.11797E-01 
  62104.6580     0.11568E-01 
  62136.9202     0.11356E-01 
  62169.1823     0.11162E-01 
  62201.4445     0.10987E-01 
  62233.7066     0.10830E-01 
  62265.9688     0.10693E-01 
  62298.2310     0.10574E-01 
  62330.4931     0.10474E-01 
  62362.7553     0.10394E-01 
  62395.0174     0.10333E-01 
  62427.2796     0.10292E-01 
  62459.5418     0.10271E-01 
  62491.8039     0.10271E-01 
  62524.0661     0.10291E-01 
  62556.3282     0.10331E-01 
  62588.5904     0.10393E-01 
  62620.8526     0.10475E-01 
  62653.1147     0.10580E-01 
  62685.3769     0.10705E-01 
  62717.6390     0.10853E-01 
  62749.9012     0.11023E-01 
  62782.1634     0.11216E-01 
  62814.4255     0.11431E-01 
  62846.6877     0.11669E-01 
  62878.9498     0.11931E-01 
  62911.2120     0.12216E-01 
  62943.4742     0.12525E-01 
  62975.7363     0.12859E-01 
  63007.9985     0.13217E-01 
  63040.2606     0.13600E-01 
  63072.5228     0.14007E-01 
  63104.7850     0.14441E-01 
  63137.0471     0.14900E-01 
  63169.3093     0.15386E-01 
  63201.5714     0.15897E-01 
  63233.8336     0.16436E-01 
  63266.0958     0.17002E-01 
  63298.3579     0.17596E-01 
  63330.6201     0.18217E-01 
  63362.8822     0.18867E-01 
  63395.1444     0.19546E-01 
  63427.4066     0.20253E-01 
  63459.6687     0.20990E-01 
  63491.9309     0.21758E-01 
  63524.1930     0.22555E-01 
  63556.4552     0.23383E-01 
  63588.7174     0.24242E-01 
  63620.9795     0.25133E-01 
  63653.2417     0.26056E-01 
  63685.5038     0.27012E-01 
  63717.7660     0.28000E-01 
  63750.0282     0.29022E-01 
  63782.2903     0.30078E-01 
  63814.5525     0.31168E-01 
  63846.8146     0.32294E-01 
  63879.0768     0.33454E-01 
  63911.3390     0.34650E-01 
  63943.6011     0.35883E-01 
  63975.8633     0.37153E-01 
  64008.1254     0.38460E-01 
  64040.3876     0.39805E-01 
  64072.6498     0.41189E-01 
  64104.9119     0.42611E-01 
  64137.1741     0.44074E-01 
  64169.4362     0.45577E-01 
  64201.6984     0.47120E-01 
  64233.9606     0.48705E-01 
  64266.2227     0.50332E-01 
  64298.4849     0.52002E-01 
  64330.7470     0.53715E-01 
  64363.0092     0.55471E-01 
  64395.2714     0.57273E-01 
  64427.5335     0.59119E-01 
  64459.7957     0.61012E-01 
  64492.0578     0.62950E-01 
  64524.3200     0.64937E-01 
  64556.5822     0.66971E-01 
  64588.8443     0.69053E-01 
  64621.1065     0.71185E-01 
  64653.3686     0.73367E-01 
  64685.6308     0.75600E-01 
  64717.8930     0.77884E-01 
  64750.1551     0.80221E-01 
  64782.4173     0.82611E-01 
  64814.6794     0.85054E-01 
  64846.9416     0.87552E-01 
  64879.2038     0.90105E-01 
  64911.4659     0.92715E-01 
  64943.7281     0.95382E-01 
  64975.9902     0.98106E-01 
  65008.2524     0.10089E+00 
  65040.5146     0.10373E+00 
  65072.7767     0.10664E+00 
  65105.0389     0.10960E+00 
  65137.3010     0.11263E+00 
  65169.5632     0.11572E+00 
  65201.8254     0.11887E+00 
  65234.0875     0.12209E+00 
  65266.3497     0.12537E+00 
  65298.6118     0.12873E+00 
  65330.8740     0.13215E+00 
  65363.1362     0.13563E+00 
  65395.3983     0.13919E+00 
  65427.6605     0.14282E+00 
  65459.9226     0.14652E+00 
  65492.1848     0.15029E+00 
  65524.4470     0.15414E+00 
  65556.7091     0.15806E+00 
  65588.9713     0.16206E+00 
  65621.2334     0.16614E+00 
  65653.4956     0.17029E+00 
  65685.7578     0.17452E+00 
  65718.0199     0.17884E+00 
  65750.2821     0.18323E+00 
  65782.5442     0.18771E+00 
  65814.8064     0.19227E+00 
  65847.0686     0.19691E+00 
  65879.3307     0.20165E+00 
  65911.5929     0.20646E+00 
  65943.8550     0.21137E+00 
  65976.1172     0.21637E+00 
  66008.3794     0.22146E+00 
  66040.6415     0.22664E+00 
  66072.9037     0.23191E+00 
  66105.1658     0.23728E+00 
  66137.4280     0.24275E+00 
  66169.6902     0.24831E+00 
  66201.9523     0.25397E+00 
  66234.2145     0.25973E+00 
  66266.4766     0.26560E+00 
  66298.7388     0.27156E+00 
  66331.0010     0.27763E+00 
  66363.2631     0.28381E+00 
  66395.5253     0.29009E+00 
  66427.7874     0.29648E+00 
  66460.0496     0.30298E+00 
  66492.3118     0.30959E+00 
  66524.5739     0.31632E+00 
  66556.8361     0.32316E+00 
  66589.0982     0.33011E+00 
  66621.3604     0.33718E+00 
  66653.6226     0.34438E+00 
  66685.8847     0.35169E+00 
  66718.1469     0.35912E+00 
  66750.4090     0.36668E+00 
  66782.6712     0.37436E+00 
  66814.9334     0.38216E+00 
  66847.1955     0.39010E+00 
  66879.4577     0.39817E+00 
  66911.7198     0.40636E+00 
  66943.9820     0.41469E+00 
  66976.2442     0.42316E+00 
  67008.5063     0.43176E+00 
  67040.7685     0.44050E+00 
  67073.0306     0.44938E+00 
  67105.2928     0.45840E+00 
  67137.5550     0.46756E+00 
  67169.8171     0.47687E+00 
  67202.0793     0.48633E+00 
  67234.3414     0.49593E+00 
  67266.6036     0.50569E+00 
  67298.8658     0.51560E+00 
  67331.1279     0.52566E+00 
  67363.3901     0.53587E+00 
  67395.6522     0.54625E+00 
  67427.9144     0.55678E+00 
  67460.1766     0.56748E+00 
  67492.4387     0.57834E+00 
  67524.7009     0.58936E+00 
  67556.9630     0.60055E+00 
  67589.2252     0.61191E+00 
  67621.4874     0.62344E+00 
  67653.7495     0.63515E+00 
  67686.0117     0.64703E+00 
  67718.2738     0.65908E+00 
  67750.5360     0.67132E+00 
  67782.7982     0.68373E+00 
  67815.0603     0.69633E+00 
  67847.3225     0.70911E+00 
  67879.5846     0.72208E+00 
  67911.8468     0.73524E+00 
  67944.1090     0.74859E+00 
  67976.3711     0.76213E+00 
  68008.6333     0.77587E+00 
  68040.8954     0.78980E+00 
  68073.1576     0.80394E+00 
  68105.4198     0.81827E+00 
  68137.6819     0.83281E+00 
  68169.9441     0.84756E+00 
  68202.2062     0.86251E+00 
  68234.4684     0.87767E+00 
  68266.7306     0.89305E+00 
  68298.9927     0.90864E+00 
  68331.2549     0.92444E+00 
  68363.5170     0.94047E+00 
  68395.7792     0.95671E+00 
  68428.0414     0.97318E+00 
  68460.3035     0.98988E+00 
  68492.5657     0.10068E+01 
  68524.8278     0.10239E+01 
  68557.0900     0.10413E+01 
  68589.3522     0.10589E+01 
  68621.6143     0.10768E+01 
  68653.8765     0.10949E+01 
  68686.1386     0.11132E+01 
  68718.4008     0.11318E+01 
  68750.6630     0.11506E+01 
  68782.9251     0.11697E+01 
  68815.1873     0.11890E+01 
  68847.4494     0.12086E+01 
  68879.7116     0.12284E+01 
  68911.9738     0.12485E+01 
  68944.2359     0.12689E+01 
  68976.4981     0.12895E+01 
  69008.7602     0.13103E+01 
  69041.0224     0.13315E+01 
  69073.2846     0.13529E+01 
  69105.5467     0.13746E+01 
  69137.8089     0.13965E+01 
  69170.0710     0.14187E+01 
  69202.3332     0.14412E+01 
  69234.5954     0.14640E+01 
  69266.8575     0.14871E+01 
  69299.1197     0.15104E+01 
  69331.3818     0.15341E+01 
  69363.6440     0.15580E+01 
  69395.9062     0.15822E+01 
  69428.1683     0.16068E+01 
  69460.4305     0.16316E+01 
  69492.6926     0.16567E+01 
  69524.9548     0.16821E+01 
  69557.2170     0.17078E+01 
  69589.4791     0.17338E+01 
  69621.7413     0.17602E+01 
  69654.0034     0.17868E+01 
  69686.2656     0.18138E+01 
  69718.5278     0.18410E+01 
  69750.7899     0.18686E+01 
  69783.0521     0.18965E+01 
  69815.3142     0.19248E+01 
  69847.5764     0.19533E+01 
  69879.8386     0.19822E+01 
  69912.1007     0.20114E+01 
  69944.3629     0.20410E+01 
  69976.6250     0.20709E+01 
  70008.8872     0.21011E+01 
  70041.1494     0.21316E+01 
  70073.4115     0.21625E+01 
  70105.6737     0.21938E+01 
  70137.9358     0.22254E+01 
  70170.1980     0.22573E+01 
  70202.4602     0.22896E+01 
  70234.7223     0.23222E+01 
  70266.9845     0.23552E+01 
  70299.2466     0.23885E+01 
  70331.5088     0.24222E+01 
  70363.7710     0.24563E+01 
  70396.0331     0.24907E+01 
  70428.2953     0.25255E+01 
  70460.5574     0.25607E+01 
  70492.8196     0.25962E+01 
  70525.0818     0.26321E+01 
  70557.3439     0.26684E+01 
  70589.6061     0.27050E+01 
  70621.8682     0.27420E+01 
  70654.1304     0.27794E+01 
  70686.3926     0.28172E+01 
  70718.6547     0.28554E+01 
  70750.9169     0.28939E+01 
  70783.1790     0.29329E+01 
  70815.4412     0.29722E+01 
  70847.7034     0.30119E+01 
  70879.9655     0.30520E+01 
  70912.2277     0.30925E+01 
  70944.4898     0.31334E+01 
  70976.7520     0.31747E+01 
  71009.0142     0.32164E+01 
  71041.2763     0.32585E+01 
  71073.5385     0.33010E+01 
  71105.8006     0.33439E+01 
  71138.0628     0.33872E+01 
  71170.3250     0.34310E+01 
  71202.5871     0.34751E+01 
  71234.8493     0.35197E+01 
  71267.1114     0.35646E+01 
  71299.3736     0.36100E+01 
  71331.6358     0.36558E+01 
  71363.8979     0.37020E+01 
  71396.1601     0.37486E+01 
  71428.4222     0.37957E+01 
  71460.6844     0.38431E+01 
  71492.9466     0.38910E+01 
  71525.2087     0.39393E+01 
  71557.4709     0.39881E+01 
  71589.7330     0.40373E+01 
  71621.9952     0.40869E+01 
  71654.2574     0.41369E+01 
  71686.5195     0.41874E+01 
  71718.7817     0.42383E+01 
  71751.0438     0.42896E+01 
  71783.3060     0.43414E+01 
  71815.5682     0.43936E+01 
  71847.8303     0.44462E+01 
  71880.0925     0.44993E+01 
  71912.3546     0.45528E+01 
  71944.6168     0.46067E+01 
  71976.8790     0.46611E+01 
  72009.1411     0.47160E+01 
  72041.4033     0.47712E+01 
  72073.6654     0.48269E+01 
  72105.9276     0.48831E+01 
  72138.1898     0.49397E+01 
  72170.4519     0.49968E+01 
  72202.7141     0.50542E+01 
  72234.9762     0.51122E+01 
  72267.2384     0.51706E+01 
  72299.5006     0.52294E+01 
  72331.7627     0.52887E+01 
  72364.0249     0.53484E+01 
  72396.2870     0.54086E+01 
  72428.5492     0.54692E+01 
  72460.8114     0.55303E+01 
  72493.0735     0.55918E+01 
  72525.3357     0.56538E+01 
  72557.5978     0.57162E+01 
  72589.8600     0.57790E+01 
