  32262.1600     0.70308E-02 
  32294.4222     0.70874E-02 
  32326.6843     0.71443E-02 
  32358.9465     0.72014E-02 
  32391.2086     0.72589E-02 
  32423.4708     0.73166E-02 
  32455.7330     0.73746E-02 
  32487.9951     0.74328E-02 
  32520.2573     0.74914E-02 
  32552.5194     0.75502E-02 
  32584.7816     0.76093E-02 
  32617.0438     0.76686E-02 
  32649.3059     0.77283E-02 
  32681.5681     0.77882E-02 
  32713.8302     0.78483E-02 
  32746.0924     0.79088E-02 
  32778.3546     0.79695E-02 
  32810.6167     0.80305E-02 
  32842.8789     0.80917E-02 
  32875.1410     0.81532E-02 
  32907.4032     0.82150E-02 
  32939.6654     0.82771E-02 
  32971.9275     0.83394E-02 
  33004.1897     0.84020E-02 
  33036.4518     0.84648E-02 
  33068.7140     0.85279E-02 
  33100.9762     0.85913E-02 
  33133.2383     0.86549E-02 
  33165.5005     0.87188E-02 
  33197.7626     0.87830E-02 
  33230.0248     0.88474E-02 
  33262.2870     0.89121E-02 
  33294.5491     0.89770E-02 
  33326.8113     0.90422E-02 
  33359.0734     0.91076E-02 
  33391.3356     0.91733E-02 
  33423.5978     0.92393E-02 
  33455.8599     0.93055E-02 
  33488.1221     0.93719E-02 
  33520.3842     0.94386E-02 
  33552.6464     0.95056E-02 
  33584.9086     0.95728E-02 
  33617.1707     0.96403E-02 
  33649.4329     0.97080E-02 
  33681.6950     0.97759E-02 
  33713.9572     0.98441E-02 
  33746.2194     0.99125E-02 
  33778.4815     0.99812E-02 
  33810.7437     0.10050E-01 
  33843.0058     0.10119E-01 
  33875.2680     0.10189E-01 
  33907.5302     0.10258E-01 
  33939.7923     0.10328E-01 
  33972.0545     0.10398E-01 
  34004.3166     0.10469E-01 
  34036.5788     0.10539E-01 
  34068.8410     0.10610E-01 
  34101.1031     0.10681E-01 
  34133.3653     0.10752E-01 
  34165.6274     0.10824E-01 
  34197.8896     0.10895E-01 
  34230.1518     0.10967E-01 
  34262.4139     0.11039E-01 
  34294.6761     0.11112E-01 
  34326.9382     0.11184E-01 
  34359.2004     0.11257E-01 
  34391.4626     0.11330E-01 
  34423.7247     0.11404E-01 
  34455.9869     0.11477E-01 
  34488.2490     0.11551E-01 
  34520.5112     0.11624E-01 
  34552.7734     0.11699E-01 
  34585.0355     0.11773E-01 
  34617.2977     0.11847E-01 
  34649.5598     0.11922E-01 
  34681.8220     0.11997E-01 
  34714.0842     0.12072E-01 
  34746.3463     0.12147E-01 
  34778.6085     0.12223E-01 
  34810.8706     0.12298E-01 
  34843.1328     0.12374E-01 
  34875.3950     0.12450E-01 
  34907.6571     0.12527E-01 
  34939.9193     0.12603E-01 
  34972.1814     0.12680E-01 
  35004.4436     0.12756E-01 
  35036.7058     0.12833E-01 
  35068.9679     0.12910E-01 
  35101.2301     0.12988E-01 
  35133.4922     0.13065E-01 
  35165.7544     0.13143E-01 
  35198.0166     0.13221E-01 
  35230.2787     0.13299E-01 
  35262.5409     0.13377E-01 
  35294.8030     0.13455E-01 
  35327.0652     0.13534E-01 
  35359.3274     0.13612E-01 
  35391.5895     0.13691E-01 
  35423.8517     0.13770E-01 
  35456.1138     0.13849E-01 
  35488.3760     0.13929E-01 
  35520.6382     0.14008E-01 
  35552.9003     0.14088E-01 
  35585.1625     0.14167E-01 
  35617.4246     0.14247E-01 
  35649.6868     0.14327E-01 
  35681.9490     0.14407E-01 
  35714.2111     0.14488E-01 
  35746.4733     0.14568E-01 
  35778.7354     0.14649E-01 
  35810.9976     0.14729E-01 
  35843.2598     0.14810E-01 
  35875.5219     0.14891E-01 
  35907.7841     0.14972E-01 
  35940.0462     0.15053E-01 
  35972.3084     0.15134E-01 
  36004.5706     0.15216E-01 
  36036.8327     0.15297E-01 
  36069.0949     0.15379E-01 
  36101.3570     0.15461E-01 
  36133.6192     0.15543E-01 
  36165.8814     0.15624E-01 
  36198.1435     0.15706E-01 
  36230.4057     0.15789E-01 
  36262.6678     0.15871E-01 
  36294.9300     0.15953E-01 
  36327.1922     0.16035E-01 
  36359.4543     0.16118E-01 
  36391.7165     0.16200E-01 
  36423.9786     0.16283E-01 
  36456.2408     0.16366E-01 
  36488.5030     0.16449E-01 
  36520.7651     0.16531E-01 
  36553.0273     0.16614E-01 
  36585.2894     0.16697E-01 
  36617.5516     0.16780E-01 
  36649.8138     0.16864E-01 
  36682.0759     0.16947E-01 
  36714.3381     0.17030E-01 
  36746.6002     0.17113E-01 
  36778.8624     0.17197E-01 
  36811.1246     0.17280E-01 
  36843.3867     0.17364E-01 
  36875.6489     0.17447E-01 
  36907.9110     0.17531E-01 
  36940.1732     0.17614E-01 
  36972.4354     0.17698E-01 
  37004.6975     0.17781E-01 
  37036.9597     0.17865E-01 
  37069.2218     0.17949E-01 
  37101.4840     0.18032E-01 
  37133.7462     0.18116E-01 
  37166.0083     0.18200E-01 
  37198.2705     0.18284E-01 
  37230.5326     0.18367E-01 
  37262.7948     0.18451E-01 
  37295.0570     0.18535E-01 
  37327.3191     0.18619E-01 
  37359.5813     0.18702E-01 
  37391.8434     0.18786E-01 
  37424.1056     0.18870E-01 
  37456.3678     0.18954E-01 
  37488.6299     0.19037E-01 
  37520.8921     0.19121E-01 
  37553.1542     0.19205E-01 
  37585.4164     0.19288E-01 
  37617.6786     0.19372E-01 
  37649.9407     0.19456E-01 
  37682.2029     0.19539E-01 
  37714.4650     0.19623E-01 
  37746.7272     0.19706E-01 
  37778.9894     0.19790E-01 
  37811.2515     0.19873E-01 
  37843.5137     0.19957E-01 
  37875.7758     0.20040E-01 
  37908.0380     0.20123E-01 
  37940.3002     0.20207E-01 
  37972.5623     0.20290E-01 
  38004.8245     0.20373E-01 
  38037.0866     0.20456E-01 
  38069.3488     0.20539E-01 
  38101.6110     0.20622E-01 
  38133.8731     0.20705E-01 
  38166.1353     0.20787E-01 
  38198.3974     0.20870E-01 
  38230.6596     0.20953E-01 
  38262.9218     0.21035E-01 
  38295.1839     0.21118E-01 
  38327.4461     0.21200E-01 
  38359.7082     0.21282E-01 
  38391.9704     0.21364E-01 
  38424.2326     0.21446E-01 
  38456.4947     0.21528E-01 
  38488.7569     0.21610E-01 
  38521.0190     0.21692E-01 
  38553.2812     0.21773E-01 
  38585.5434     0.21855E-01 
  38617.8055     0.21936E-01 
  38650.0677     0.22017E-01 
  38682.3298     0.22098E-01 
  38714.5920     0.22179E-01 
  38746.8542     0.22260E-01 
  38779.1163     0.22341E-01 
  38811.3785     0.22421E-01 
  38843.6406     0.22502E-01 
  38875.9028     0.22582E-01 
  38908.1650     0.22662E-01 
  38940.4271     0.22742E-01 
  38972.6893     0.22822E-01 
  39004.9514     0.22901E-01 
  39037.2136     0.22981E-01 
  39069.4758     0.23060E-01 
  39101.7379     0.23139E-01 
  39134.0001     0.23218E-01 
  39166.2622     0.23297E-01 
  39198.5244     0.23376E-01 
  39230.7866     0.23454E-01 
  39263.0487     0.23532E-01 
  39295.3109     0.23610E-01 
  39327.5730     0.23688E-01 
  39359.8352     0.23766E-01 
  39392.0974     0.23843E-01 
  39424.3595     0.23921E-01 
  39456.6217     0.23998E-01 
  39488.8838     0.24075E-01 
  39521.1460     0.24151E-01 
  39553.4082     0.24228E-01 
  39585.6703     0.24304E-01 
  39617.9325     0.24380E-01 
  39650.1946     0.24456E-01 
  39682.4568     0.24531E-01 
  39714.7190     0.24607E-01 
  39746.9811     0.24682E-01 
  39779.2433     0.24756E-01 
  39811.5054     0.24831E-01 
  39843.7676     0.24905E-01 
  39876.0298     0.24980E-01 
  39908.2919     0.25053E-01 
  39940.5541     0.25127E-01 
  39972.8162     0.25200E-01 
  40005.0784     0.25274E-01 
  40037.3406     0.25346E-01 
  40069.6027     0.25419E-01 
  40101.8649     0.25491E-01 
  40134.1270     0.25564E-01 
  40166.3892     0.25635E-01 
  40198.6514     0.25707E-01 
  40230.9135     0.25778E-01 
  40263.1757     0.25849E-01 
  40295.4378     0.25920E-01 
  40327.7000     0.25990E-01 
  40359.9622     0.26060E-01 
  40392.2243     0.26130E-01 
  40424.4865     0.26200E-01 
  40456.7486     0.26269E-01 
  40489.0108     0.26338E-01 
  40521.2730     0.26406E-01 
  40553.5351     0.26475E-01 
  40585.7973     0.26543E-01 
  40618.0594     0.26610E-01 
  40650.3216     0.26678E-01 
  40682.5838     0.26745E-01 
  40714.8459     0.26812E-01 
  40747.1081     0.26878E-01 
  40779.3702     0.26944E-01 
  40811.6324     0.27010E-01 
  40843.8946     0.27075E-01 
  40876.1567     0.27141E-01 
  40908.4189     0.27205E-01 
  40940.6810     0.27270E-01 
  40972.9432     0.27334E-01 
  41005.2054     0.27398E-01 
  41037.4675     0.27461E-01 
  41069.7297     0.27524E-01 
  41101.9918     0.27587E-01 
  41134.2540     0.27649E-01 
  41166.5162     0.27711E-01 
  41198.7783     0.27773E-01 
  41231.0405     0.27834E-01 
  41263.3026     0.27895E-01 
  41295.5648     0.27955E-01 
  41327.8270     0.28016E-01 
  41360.0891     0.28075E-01 
  41392.3513     0.28135E-01 
  41424.6134     0.28194E-01 
  41456.8756     0.28253E-01 
  41489.1378     0.28311E-01 
  41521.3999     0.28369E-01 
  41553.6621     0.28426E-01 
  41585.9242     0.28483E-01 
  41618.1864     0.28540E-01 
  41650.4486     0.28596E-01 
  41682.7107     0.28652E-01 
  41714.9729     0.28708E-01 
  41747.2350     0.28763E-01 
  41779.4972     0.28818E-01 
  41811.7594     0.28872E-01 
  41844.0215     0.28926E-01 
  41876.2837     0.28979E-01 
  41908.5458     0.29033E-01 
  41940.8080     0.29085E-01 
  41973.0702     0.29137E-01 
  42005.3323     0.29189E-01 
  42037.5945     0.29241E-01 
  42069.8566     0.29292E-01 
  42102.1188     0.29342E-01 
  42134.3810     0.29392E-01 
  42166.6431     0.29442E-01 
  42198.9053     0.29491E-01 
  42231.1674     0.29540E-01 
  42263.4296     0.29589E-01 
  42295.6918     0.29637E-01 
  42327.9539     0.29684E-01 
  42360.2161     0.29731E-01 
  42392.4782     0.29778E-01 
  42424.7404     0.29824E-01 
  42457.0026     0.29870E-01 
  42489.2647     0.29915E-01 
  42521.5269     0.29960E-01 
  42553.7890     0.30004E-01 
  42586.0512     0.30048E-01 
  42618.3134     0.30092E-01 
  42650.5755     0.30135E-01 
  42682.8377     0.30177E-01 
  42715.0998     0.30220E-01 
  42747.3620     0.30261E-01 
  42779.6242     0.30302E-01 
  42811.8863     0.30343E-01 
  42844.1485     0.30383E-01 
  42876.4106     0.30423E-01 
  42908.6728     0.30462E-01 
  42940.9350     0.30501E-01 
  42973.1971     0.30540E-01 
  43005.4593     0.30578E-01 
  43037.7214     0.30615E-01 
  43069.9836     0.30652E-01 
  43102.2458     0.30688E-01 
  43134.5079     0.30724E-01 
  43166.7701     0.30760E-01 
  43199.0322     0.30795E-01 
  43231.2944     0.30829E-01 
  43263.5566     0.30863E-01 
  43295.8187     0.30897E-01 
  43328.0809     0.30930E-01 
  43360.3430     0.30962E-01 
  43392.6052     0.30994E-01 
  43424.8674     0.31026E-01 
  43457.1295     0.31057E-01 
  43489.3917     0.31088E-01 
  43521.6538     0.31118E-01 
  43553.9160     0.31147E-01 
  43586.1782     0.31176E-01 
  43618.4403     0.31205E-01 
  43650.7025     0.31233E-01 
  43682.9646     0.31261E-01 
  43715.2268     0.31288E-01 
  43747.4890     0.31314E-01 
  43779.7511     0.31340E-01 
  43812.0133     0.31366E-01 
  43844.2754     0.31391E-01 
  43876.5376     0.31416E-01 
  43908.7998     0.31440E-01 
  43941.0619     0.31463E-01 
  43973.3241     0.31486E-01 
  44005.5862     0.31509E-01 
  44037.8484     0.31531E-01 
  44070.1106     0.31552E-01 
  44102.3727     0.31573E-01 
  44134.6349     0.31593E-01 
  44166.8970     0.31613E-01 
  44199.1592     0.31633E-01 
  44231.4214     0.31652E-01 
  44263.6835     0.31670E-01 
  44295.9457     0.31688E-01 
  44328.2078     0.31705E-01 
  44360.4700     0.31722E-01 
  44392.7322     0.31738E-01 
  44424.9943     0.31754E-01 
  44457.2565     0.31769E-01 
  44489.5186     0.31784E-01 
  44521.7808     0.31798E-01 
  44554.0430     0.31812E-01 
  44586.3051     0.31825E-01 
  44618.5673     0.31838E-01 
  44650.8294     0.31850E-01 
  44683.0916     0.31862E-01 
  44715.3538     0.31873E-01 
  44747.6159     0.31883E-01 
  44779.8781     0.31893E-01 
  44812.1402     0.31903E-01 
  44844.4024     0.31912E-01 
  44876.6646     0.31920E-01 
  44908.9267     0.31928E-01 
  44941.1889     0.31935E-01 
  44973.4510     0.31942E-01 
  45005.7132     0.31949E-01 
  45037.9754     0.31955E-01 
  45070.2375     0.31960E-01 
  45102.4997     0.31965E-01 
  45134.7618     0.31969E-01 
  45167.0240     0.31973E-01 
  45199.2862     0.31976E-01 
  45231.5483     0.31978E-01 
  45263.8105     0.31981E-01 
  45296.0726     0.31982E-01 
  45328.3348     0.31983E-01 
  45360.5970     0.31984E-01 
  45392.8591     0.31984E-01 
  45425.1213     0.31984E-01 
  45457.3834     0.31983E-01 
  45489.6456     0.31981E-01 
  45521.9078     0.31979E-01 
  45554.1699     0.31976E-01 
  45586.4321     0.31973E-01 
  45618.6942     0.31970E-01 
  45650.9564     0.31966E-01 
  45683.2186     0.31961E-01 
  45715.4807     0.31956E-01 
  45747.7429     0.31950E-01 
  45780.0050     0.31944E-01 
  45812.2672     0.31937E-01 
  45844.5294     0.31930E-01 
  45876.7915     0.31922E-01 
  45909.0537     0.31914E-01 
  45941.3158     0.31905E-01 
  45973.5780     0.31896E-01 
  46005.8402     0.31886E-01 
  46038.1023     0.31876E-01 
  46070.3645     0.31865E-01 
  46102.6266     0.31853E-01 
  46134.8888     0.31842E-01 
  46167.1510     0.31829E-01 
  46199.4131     0.31816E-01 
  46231.6753     0.31803E-01 
  46263.9374     0.31789E-01 
  46296.1996     0.31774E-01 
  46328.4618     0.31759E-01 
  46360.7239     0.31744E-01 
  46392.9861     0.31728E-01 
  46425.2482     0.31712E-01 
  46457.5104     0.31695E-01 
  46489.7726     0.31677E-01 
  46522.0347     0.31659E-01 
  46554.2969     0.31641E-01 
  46586.5590     0.31622E-01 
  46618.8212     0.31602E-01 
  46651.0834     0.31582E-01 
  46683.3455     0.31562E-01 
  46715.6077     0.31541E-01 
  46747.8698     0.31519E-01 
  46780.1320     0.31497E-01 
  46812.3942     0.31475E-01 
  46844.6563     0.31452E-01 
  46876.9185     0.31428E-01 
  46909.1806     0.31404E-01 
  46941.4428     0.31380E-01 
  46973.7050     0.31355E-01 
  47005.9671     0.31330E-01 
  47038.2293     0.31304E-01 
  47070.4914     0.31277E-01 
  47102.7536     0.31251E-01 
  47135.0158     0.31223E-01 
  47167.2779     0.31195E-01 
  47199.5401     0.31167E-01 
  47231.8022     0.31138E-01 
  47264.0644     0.31109E-01 
  47296.3266     0.31079E-01 
  47328.5887     0.31049E-01 
  47360.8509     0.31019E-01 
  47393.1130     0.30987E-01 
  47425.3752     0.30956E-01 
  47457.6374     0.30924E-01 
  47489.8995     0.30891E-01 
  47522.1617     0.30858E-01 
  47554.4238     0.30825E-01 
  47586.6860     0.30791E-01 
  47618.9482     0.30757E-01 
  47651.2103     0.30722E-01 
  47683.4725     0.30686E-01 
  47715.7346     0.30651E-01 
  47747.9968     0.30615E-01 
  47780.2590     0.30578E-01 
  47812.5211     0.30541E-01 
  47844.7833     0.30503E-01 
  47877.0454     0.30465E-01 
  47909.3076     0.30427E-01 
  47941.5698     0.30388E-01 
  47973.8319     0.30349E-01 
  48006.0941     0.30309E-01 
  48038.3562     0.30269E-01 
  48070.6184     0.30228E-01 
  48102.8806     0.30187E-01 
  48135.1427     0.30145E-01 
  48167.4049     0.30104E-01 
  48199.6670     0.30061E-01 
  48231.9292     0.30018E-01 
  48264.1914     0.29975E-01 
  48296.4535     0.29932E-01 
  48328.7157     0.29888E-01 
  48360.9778     0.29843E-01 
  48393.2400     0.29798E-01 
  48425.5022     0.29753E-01 
  48457.7643     0.29707E-01 
  48490.0265     0.29661E-01 
  48522.2886     0.29615E-01 
  48554.5508     0.29568E-01 
  48586.8130     0.29520E-01 
  48619.0751     0.29473E-01 
  48651.3373     0.29424E-01 
  48683.5994     0.29376E-01 
  48715.8616     0.29327E-01 
  48748.1238     0.29278E-01 
  48780.3859     0.29228E-01 
  48812.6481     0.29178E-01 
  48844.9102     0.29127E-01 
  48877.1724     0.29076E-01 
  48909.4346     0.29025E-01 
  48941.6967     0.28974E-01 
  48973.9589     0.28921E-01 
  49006.2210     0.28869E-01 
  49038.4832     0.28816E-01 
  49070.7454     0.28763E-01 
  49103.0075     0.28710E-01 
  49135.2697     0.28656E-01 
  49167.5318     0.28601E-01 
  49199.7940     0.28547E-01 
  49232.0562     0.28492E-01 
  49264.3183     0.28436E-01 
  49296.5805     0.28381E-01 
  49328.8426     0.28325E-01 
  49361.1048     0.28268E-01 
  49393.3670     0.28211E-01 
  49425.6291     0.28154E-01 
  49457.8913     0.28097E-01 
  49490.1534     0.28039E-01 
  49522.4156     0.27981E-01 
  49554.6778     0.27922E-01 
  49586.9399     0.27864E-01 
  49619.2021     0.27804E-01 
  49651.4642     0.27745E-01 
  49683.7264     0.27685E-01 
  49715.9886     0.27625E-01 
  49748.2507     0.27564E-01 
  49780.5129     0.27504E-01 
  49812.7750     0.27442E-01 
  49845.0372     0.27381E-01 
  49877.2994     0.27319E-01 
  49909.5615     0.27257E-01 
  49941.8237     0.27195E-01 
  49974.0858     0.27132E-01 
  50006.3480     0.27069E-01 
  50038.6102     0.27006E-01 
  50070.8723     0.26942E-01 
  50103.1345     0.26878E-01 
  50135.3966     0.26814E-01 
  50167.6588     0.26749E-01 
  50199.9210     0.26685E-01 
  50232.1831     0.26620E-01 
  50264.4453     0.26554E-01 
  50296.7074     0.26489E-01 
  50328.9696     0.26423E-01 
  50361.2318     0.26356E-01 
  50393.4939     0.26290E-01 
  50425.7561     0.26223E-01 
  50458.0182     0.26156E-01 
  50490.2804     0.26089E-01 
  50522.5426     0.26021E-01 
  50554.8047     0.25953E-01 
  50587.0669     0.25885E-01 
  50619.3290     0.25817E-01 
  50651.5912     0.25748E-01 
  50683.8534     0.25679E-01 
  50716.1155     0.25610E-01 
  50748.3777     0.25541E-01 
  50780.6398     0.25471E-01 
  50812.9020     0.25401E-01 
  50845.1642     0.25331E-01 
  50877.4263     0.25260E-01 
  50909.6885     0.25190E-01 
  50941.9506     0.25119E-01 
  50974.2128     0.25048E-01 
  51006.4750     0.24977E-01 
  51038.7371     0.24905E-01 
  51070.9993     0.24833E-01 
  51103.2614     0.24761E-01 
  51135.5236     0.24689E-01 
  51167.7858     0.24617E-01 
  51200.0479     0.24544E-01 
  51232.3101     0.24471E-01 
  51264.5722     0.24398E-01 
  51296.8344     0.24325E-01 
  51329.0966     0.24251E-01 
  51361.3587     0.24177E-01 
  51393.6209     0.24104E-01 
  51425.8830     0.24029E-01 
  51458.1452     0.23955E-01 
  51490.4074     0.23881E-01 
  51522.6695     0.23806E-01 
  51554.9317     0.23731E-01 
  51587.1938     0.23656E-01 
  51619.4560     0.23581E-01 
  51651.7182     0.23505E-01 
  51683.9803     0.23430E-01 
  51716.2425     0.23354E-01 
  51748.5046     0.23278E-01 
  51780.7668     0.23202E-01 
  51813.0290     0.23126E-01 
  51845.2911     0.23049E-01 
  51877.5533     0.22973E-01 
  51909.8154     0.22896E-01 
  51942.0776     0.22819E-01 
  51974.3398     0.22742E-01 
  52006.6019     0.22664E-01 
  52038.8641     0.22587E-01 
  52071.1262     0.22510E-01 
  52103.3884     0.22432E-01 
  52135.6506     0.22354E-01 
  52167.9127     0.22276E-01 
  52200.1749     0.22198E-01 
  52232.4370     0.22120E-01 
  52264.6992     0.22041E-01 
  52296.9614     0.21963E-01 
  52329.2235     0.21884E-01 
  52361.4857     0.21805E-01 
  52393.7478     0.21727E-01 
  52426.0100     0.21648E-01 
  52458.2722     0.21568E-01 
  52490.5343     0.21489E-01 
  52522.7965     0.21410E-01 
  52555.0586     0.21330E-01 
  52587.3208     0.21251E-01 
  52619.5830     0.21171E-01 
  52651.8451     0.21091E-01 
  52684.1073     0.21011E-01 
  52716.3694     0.20931E-01 
  52748.6316     0.20851E-01 
  52780.8938     0.20771E-01 
  52813.1559     0.20691E-01 
  52845.4181     0.20611E-01 
  52877.6802     0.20530E-01 
  52909.9424     0.20450E-01 
  52942.2046     0.20369E-01 
  52974.4667     0.20288E-01 
  53006.7289     0.20208E-01 
  53038.9910     0.20127E-01 
  53071.2532     0.20046E-01 
  53103.5154     0.19965E-01 
  53135.7775     0.19884E-01 
  53168.0397     0.19803E-01 
  53200.3018     0.19722E-01 
  53232.5640     0.19640E-01 
  53264.8262     0.19559E-01 
  53297.0883     0.19478E-01 
  53329.3505     0.19396E-01 
  53361.6126     0.19315E-01 
  53393.8748     0.19234E-01 
  53426.1370     0.19152E-01 
  53458.3991     0.19071E-01 
  53490.6613     0.18989E-01 
  53522.9234     0.18907E-01 
  53555.1856     0.18826E-01 
  53587.4478     0.18744E-01 
  53619.7099     0.18662E-01 
  53651.9721     0.18581E-01 
  53684.2342     0.18499E-01 
  53716.4964     0.18417E-01 
  53748.7586     0.18335E-01 
  53781.0207     0.18253E-01 
  53813.2829     0.18172E-01 
  53845.5450     0.18090E-01 
  53877.8072     0.18008E-01 
  53910.0694     0.17926E-01 
  53942.3315     0.17844E-01 
  53974.5937     0.17762E-01 
  54006.8558     0.17680E-01 
  54039.1180     0.17598E-01 
  54071.3802     0.17517E-01 
  54103.6423     0.17435E-01 
  54135.9045     0.17353E-01 
  54168.1666     0.17271E-01 
  54200.4288     0.17189E-01 
  54232.6910     0.17107E-01 
  54264.9531     0.17026E-01 
  54297.2153     0.16944E-01 
  54329.4774     0.16862E-01 
  54361.7396     0.16780E-01 
  54394.0018     0.16699E-01 
  54426.2639     0.16617E-01 
  54458.5261     0.16535E-01 
  54490.7882     0.16454E-01 
  54523.0504     0.16372E-01 
  54555.3126     0.16291E-01 
  54587.5747     0.16209E-01 
  54619.8369     0.16128E-01 
  54652.0990     0.16047E-01 
  54684.3612     0.15965E-01 
  54716.6234     0.15884E-01 
  54748.8855     0.15803E-01 
  54781.1477     0.15722E-01 
  54813.4098     0.15641E-01 
  54845.6720     0.15560E-01 
  54877.9342     0.15479E-01 
  54910.1963     0.15398E-01 
  54942.4585     0.15317E-01 
  54974.7206     0.15236E-01 
  55006.9828     0.15156E-01 
  55039.2450     0.15075E-01 
  55071.5071     0.14995E-01 
  55103.7693     0.14914E-01 
  55136.0314     0.14834E-01 
  55168.2936     0.14754E-01 
  55200.5558     0.14673E-01 
  55232.8179     0.14593E-01 
  55265.0801     0.14513E-01 
  55297.3422     0.14434E-01 
  55329.6044     0.14354E-01 
  55361.8666     0.14274E-01 
  55394.1287     0.14195E-01 
  55426.3909     0.14115E-01 
  55458.6530     0.14036E-01 
  55490.9152     0.13957E-01 
  55523.1774     0.13877E-01 
  55555.4395     0.13798E-01 
  55587.7017     0.13720E-01 
  55619.9638     0.13641E-01 
  55652.2260     0.13562E-01 
  55684.4882     0.13484E-01 
  55716.7503     0.13405E-01 
  55749.0125     0.13327E-01 
  55781.2746     0.13249E-01 
  55813.5368     0.13171E-01 
  55845.7990     0.13093E-01 
  55878.0611     0.13016E-01 
  55910.3233     0.12938E-01 
  55942.5854     0.12861E-01 
  55974.8476     0.12783E-01 
  56007.1098     0.12706E-01 
  56039.3719     0.12629E-01 
  56071.6341     0.12553E-01 
  56103.8962     0.12476E-01 
  56136.1584     0.12400E-01 
  56168.4206     0.12323E-01 
  56200.6827     0.12247E-01 
  56232.9449     0.12171E-01 
  56265.2070     0.12096E-01 
  56297.4692     0.12020E-01 
  56329.7314     0.11945E-01 
  56361.9935     0.11869E-01 
  56394.2557     0.11794E-01 
  56426.5178     0.11720E-01 
  56458.7800     0.11645E-01 
  56491.0422     0.11571E-01 
  56523.3043     0.11496E-01 
  56555.5665     0.11422E-01 
  56587.8286     0.11348E-01 
  56620.0908     0.11275E-01 
  56652.3530     0.11201E-01 
  56684.6151     0.11128E-01 
  56716.8773     0.11055E-01 
  56749.1394     0.10982E-01 
  56781.4016     0.10910E-01 
  56813.6638     0.10837E-01 
  56845.9259     0.10765E-01 
  56878.1881     0.10693E-01 
  56910.4502     0.10621E-01 
  56942.7124     0.10550E-01 
  56974.9746     0.10479E-01 
  57007.2367     0.10408E-01 
  57039.4989     0.10337E-01 
  57071.7610     0.10267E-01 
  57104.0232     0.10196E-01 
  57136.2854     0.10126E-01 
  57168.5475     0.10057E-01 
  57200.8097     0.99872E-02 
  57233.0718     0.99180E-02 
  57265.3340     0.98490E-02 
  57297.5962     0.97803E-02 
  57329.8583     0.97119E-02 
  57362.1205     0.96438E-02 
  57394.3826     0.95759E-02 
  57426.6448     0.95083E-02 
  57458.9070     0.94410E-02 
  57491.1691     0.93740E-02 
  57523.4313     0.93073E-02 
  57555.6934     0.92408E-02 
  57587.9556     0.91747E-02 
  57620.2178     0.91088E-02 
  57652.4799     0.90433E-02 
  57684.7421     0.89780E-02 
  57717.0042     0.89131E-02 
  57749.2664     0.88485E-02 
  57781.5286     0.87841E-02 
  57813.7907     0.87202E-02 
  57846.0529     0.86565E-02 
  57878.3150     0.85931E-02 
  57910.5772     0.85301E-02 
  57942.8394     0.84674E-02 
  57975.1015     0.84051E-02 
  58007.3637     0.83431E-02 
  58039.6258     0.82814E-02 
  58071.8880     0.82201E-02 
  58104.1502     0.81591E-02 
  58136.4123     0.80985E-02 
  58168.6745     0.80383E-02 
  58200.9366     0.79784E-02 
  58233.1988     0.79189E-02 
  58265.4610     0.78597E-02 
  58297.7231     0.78009E-02 
  58329.9853     0.77425E-02 
  58362.2474     0.76845E-02 
  58394.5096     0.76268E-02 
  58426.7718     0.75696E-02 
  58459.0339     0.75127E-02 
  58491.2961     0.74562E-02 
  58523.5582     0.74002E-02 
  58555.8204     0.73445E-02 
  58588.0826     0.72893E-02 
  58620.3447     0.72344E-02 
  58652.6069     0.71800E-02 
  58684.8690     0.71260E-02 
  58717.1312     0.70724E-02 
  58749.3934     0.70193E-02 
  58781.6555     0.69665E-02 
  58813.9177     0.69143E-02 
  58846.1798     0.68624E-02 
  58878.4420     0.68110E-02 
  58910.7042     0.67601E-02 
  58942.9663     0.67096E-02 
  58975.2285     0.66596E-02 
  59007.4906     0.66100E-02 
  59039.7528     0.65610E-02 
  59072.0150     0.65123E-02 
  59104.2771     0.64642E-02 
  59136.5393     0.64166E-02 
  59168.8014     0.63694E-02 
  59201.0636     0.63227E-02 
  59233.3258     0.62765E-02 
  59265.5879     0.62309E-02 
  59297.8501     0.61857E-02 
  59330.1122     0.61410E-02 
  59362.3744     0.60969E-02 
  59394.6366     0.60533E-02 
  59426.8987     0.60102E-02 
  59459.1609     0.59676E-02 
  59491.4230     0.59256E-02 
  59523.6852     0.58841E-02 
  59555.9474     0.58432E-02 
  59588.2095     0.58028E-02 
  59620.4717     0.57630E-02 
  59652.7338     0.57238E-02 
  59684.9960     0.56851E-02 
  59717.2582     0.56469E-02 
  59749.5203     0.56094E-02 
  59781.7825     0.55725E-02 
  59814.0446     0.55361E-02 
  59846.3068     0.55003E-02 
  59878.5690     0.54652E-02 
  59910.8311     0.54306E-02 
  59943.0933     0.53967E-02 
  59975.3554     0.53634E-02 
  60007.6176     0.53307E-02 
  60039.8798     0.52986E-02 
  60072.1419     0.52672E-02 
  60104.4041     0.52364E-02 
  60136.6662     0.52062E-02 
  60168.9284     0.51767E-02 
  60201.1906     0.51479E-02 
  60233.4527     0.51198E-02 
  60265.7149     0.50923E-02 
  60297.9770     0.50655E-02 
  60330.2392     0.50393E-02 
  60362.5014     0.50139E-02 
  60394.7635     0.49892E-02 
  60427.0257     0.49652E-02 
  60459.2878     0.49418E-02 
  60491.5500     0.49193E-02 
  60523.8122     0.48974E-02 
  60556.0743     0.48762E-02 
  60588.3365     0.48558E-02 
  60620.5986     0.48362E-02 
  60652.8608     0.48173E-02 
  60685.1230     0.47991E-02 
  60717.3851     0.47817E-02 
  60749.6473     0.47651E-02 
  60781.9094     0.47493E-02 
  60814.1716     0.47343E-02 
  60846.4338     0.47200E-02 
  60878.6959     0.47066E-02 
  60910.9581     0.46939E-02 
  60943.2202     0.46821E-02 
  60975.4824     0.46711E-02 
  61007.7446     0.46609E-02 
  61040.0067     0.46516E-02 
  61072.2689     0.46431E-02 
  61104.5310     0.46355E-02 
  61136.7932     0.46287E-02 
  61169.0554     0.46228E-02 
  61201.3175     0.46178E-02 
  61233.5797     0.46136E-02 
  61265.8418     0.46104E-02 
  61298.1040     0.46080E-02 
  61330.3662     0.46066E-02 
  61362.6283     0.46061E-02 
  61394.8905     0.46065E-02 
  61427.1526     0.46078E-02 
  61459.4148     0.46101E-02 
  61491.6770     0.46133E-02 
  61523.9391     0.46175E-02 
  61556.2013     0.46226E-02 
  61588.4634     0.46287E-02 
  61620.7256     0.46358E-02 
  61652.9878     0.46439E-02 
  61685.2499     0.46530E-02 
  61717.5121     0.46631E-02 
  61749.7742     0.46743E-02 
  61782.0364     0.46864E-02 
  61814.2986     0.46996E-02 
  61846.5607     0.47138E-02 
  61878.8229     0.47291E-02 
  61911.0850     0.47455E-02 
  61943.3472     0.47629E-02 
  61975.6094     0.47814E-02 
  62007.8715     0.48010E-02 
  62040.1337     0.48217E-02 
  62072.3958     0.48435E-02 
  62104.6580     0.48664E-02 
  62136.9202     0.48905E-02 
  62169.1823     0.49156E-02 
  62201.4445     0.49420E-02 
  62233.7066     0.49695E-02 
  62265.9688     0.49981E-02 
  62298.2310     0.50280E-02 
  62330.4931     0.50590E-02 
  62362.7553     0.50912E-02 
  62395.0174     0.51247E-02 
  62427.2796     0.51593E-02 
  62459.5418     0.51952E-02 
  62491.8039     0.52323E-02 
  62524.0661     0.52707E-02 
  62556.3282     0.53103E-02 
  62588.5904     0.53512E-02 
  62620.8526     0.53934E-02 
  62653.1147     0.54368E-02 
  62685.3769     0.54816E-02 
  62717.6390     0.55277E-02 
  62749.9012     0.55751E-02 
  62782.1634     0.56238E-02 
  62814.4255     0.56739E-02 
  62846.6877     0.57253E-02 
  62878.9498     0.57781E-02 
  62911.2120     0.58323E-02 
  62943.4742     0.58879E-02 
  62975.7363     0.59448E-02 
  63007.9985     0.60032E-02 
  63040.2606     0.60630E-02 
  63072.5228     0.61242E-02 
  63104.7850     0.61869E-02 
  63137.0471     0.62510E-02 
  63169.3093     0.63166E-02 
  63201.5714     0.63837E-02 
  63233.8336     0.64523E-02 
  63266.0958     0.65224E-02 
  63298.3579     0.65939E-02 
  63330.6201     0.66671E-02 
  63362.8822     0.67417E-02 
  63395.1444     0.68179E-02 
  63427.4066     0.68957E-02 
  63459.6687     0.69750E-02 
  63491.9309     0.70560E-02 
  63524.1930     0.71385E-02 
  63556.4552     0.72226E-02 
  63588.7174     0.73084E-02 
  63620.9795     0.73958E-02 
  63653.2417     0.74848E-02 
  63685.5038     0.75755E-02 
  63717.7660     0.76679E-02 
  63750.0282     0.77620E-02 
  63782.2903     0.78578E-02 
  63814.5525     0.79552E-02 
  63846.8146     0.80544E-02 
  63879.0768     0.81554E-02 
  63911.3390     0.82581E-02 
  63943.6011     0.83625E-02 
  63975.8633     0.84688E-02 
  64008.1254     0.85768E-02 
  64040.3876     0.86866E-02 
  64072.6498     0.87982E-02 
  64104.9119     0.89117E-02 
  64137.1741     0.90270E-02 
  64169.4362     0.91442E-02 
  64201.6984     0.92632E-02 
  64233.9606     0.93841E-02 
  64266.2227     0.95069E-02 
  64298.4849     0.96316E-02 
  64330.7470     0.97582E-02 
  64363.0092     0.98868E-02 
  64395.2714     0.10017E-01 
  64427.5335     0.10150E-01 
  64459.7957     0.10284E-01 
  64492.0578     0.10421E-01 
  64524.3200     0.10559E-01 
  64556.5822     0.10700E-01 
  64588.8443     0.10842E-01 
  64621.1065     0.10987E-01 
  64653.3686     0.11133E-01 
  64685.6308     0.11282E-01 
  64717.8930     0.11433E-01 
  64750.1551     0.11586E-01 
  64782.4173     0.11741E-01 
  64814.6794     0.11898E-01 
  64846.9416     0.12057E-01 
  64879.2038     0.12218E-01 
  64911.4659     0.12382E-01 
  64943.7281     0.12548E-01 
  64975.9902     0.12716E-01 
  65008.2524     0.12886E-01 
  65040.5146     0.13058E-01 
  65072.7767     0.13233E-01 
  65105.0389     0.13410E-01 
  65137.3010     0.13589E-01 
  65169.5632     0.13771E-01 
  65201.8254     0.13955E-01 
  65234.0875     0.14141E-01 
  65266.3497     0.14329E-01 
  65298.6118     0.14520E-01 
  65330.8740     0.14713E-01 
  65363.1362     0.14909E-01 
  65395.3983     0.15106E-01 
  65427.6605     0.15307E-01 
  65459.9226     0.15510E-01 
  65492.1848     0.15715E-01 
  65524.4470     0.15922E-01 
  65556.7091     0.16132E-01 
  65588.9713     0.16345E-01 
  65621.2334     0.16560E-01 
  65653.4956     0.16778E-01 
  65685.7578     0.16998E-01 
  65718.0199     0.17220E-01 
  65750.2821     0.17446E-01 
  65782.5442     0.17673E-01 
  65814.8064     0.17904E-01 
  65847.0686     0.18137E-01 
  65879.3307     0.18372E-01 
  65911.5929     0.18610E-01 
  65943.8550     0.18851E-01 
  65976.1172     0.19095E-01 
  66008.3794     0.19341E-01 
  66040.6415     0.19590E-01 
  66072.9037     0.19841E-01 
  66105.1658     0.20095E-01 
  66137.4280     0.20352E-01 
  66169.6902     0.20612E-01 
  66201.9523     0.20874E-01 
  66234.2145     0.21140E-01 
  66266.4766     0.21408E-01 
  66298.7388     0.21679E-01 
  66331.0010     0.21952E-01 
  66363.2631     0.22229E-01 
  66395.5253     0.22508E-01 
  66427.7874     0.22790E-01 
  66460.0496     0.23075E-01 
  66492.3118     0.23363E-01 
  66524.5739     0.23654E-01 
  66556.8361     0.23948E-01 
  66589.0982     0.24245E-01 
  66621.3604     0.24545E-01 
  66653.6226     0.24847E-01 
  66685.8847     0.25153E-01 
  66718.1469     0.25462E-01 
  66750.4090     0.25773E-01 
  66782.6712     0.26088E-01 
  66814.9334     0.26406E-01 
  66847.1955     0.26726E-01 
  66879.4577     0.27050E-01 
  66911.7198     0.27377E-01 
  66943.9820     0.27707E-01 
  66976.2442     0.28040E-01 
  67008.5063     0.28377E-01 
  67040.7685     0.28716E-01 
  67073.0306     0.29059E-01 
  67105.2928     0.29404E-01 
  67137.5550     0.29753E-01 
  67169.8171     0.30105E-01 
  67202.0793     0.30461E-01 
  67234.3414     0.30819E-01 
  67266.6036     0.31181E-01 
  67298.8658     0.31546E-01 
  67331.1279     0.31914E-01 
  67363.3901     0.32286E-01 
  67395.6522     0.32661E-01 
  67427.9144     0.33039E-01 
  67460.1766     0.33420E-01 
  67492.4387     0.33805E-01 
  67524.7009     0.34193E-01 
  67556.9630     0.34585E-01 
  67589.2252     0.34980E-01 
  67621.4874     0.35378E-01 
  67653.7495     0.35780E-01 
  67686.0117     0.36185E-01 
  67718.2738     0.36593E-01 
  67750.5360     0.37005E-01 
  67782.7982     0.37421E-01 
  67815.0603     0.37839E-01 
  67847.3225     0.38262E-01 
  67879.5846     0.38688E-01 
  67911.8468     0.39117E-01 
  67944.1090     0.39550E-01 
  67976.3711     0.39986E-01 
  68008.6333     0.40426E-01 
  68040.8954     0.40870E-01 
  68073.1576     0.41317E-01 
  68105.4198     0.41767E-01 
  68137.6819     0.42221E-01 
  68169.9441     0.42679E-01 
  68202.2062     0.43141E-01 
  68234.4684     0.43605E-01 
  68266.7306     0.44074E-01 
  68298.9927     0.44546E-01 
  68331.2549     0.45022E-01 
  68363.5170     0.45502E-01 
  68395.7792     0.45985E-01 
  68428.0414     0.46472E-01 
  68460.3035     0.46963E-01 
  68492.5657     0.47457E-01 
  68524.8278     0.47955E-01 
  68557.0900     0.48457E-01 
  68589.3522     0.48963E-01 
  68621.6143     0.49472E-01 
  68653.8765     0.49985E-01 
  68686.1386     0.50502E-01 
  68718.4008     0.51022E-01 
  68750.6630     0.51547E-01 
  68782.9251     0.52075E-01 
  68815.1873     0.52607E-01 
  68847.4494     0.53143E-01 
  68879.7116     0.53682E-01 
  68911.9738     0.54226E-01 
  68944.2359     0.54773E-01 
  68976.4981     0.55324E-01 
  69008.7602     0.55879E-01 
  69041.0224     0.56438E-01 
  69073.2846     0.57001E-01 
  69105.5467     0.57568E-01 
  69137.8089     0.58138E-01 
  69170.0710     0.58713E-01 
  69202.3332     0.59291E-01 
  69234.5954     0.59873E-01 
  69266.8575     0.60459E-01 
  69299.1197     0.61049E-01 
  69331.3818     0.61643E-01 
  69363.6440     0.62241E-01 
  69395.9062     0.62843E-01 
  69428.1683     0.63449E-01 
  69460.4305     0.64059E-01 
  69492.6926     0.64673E-01 
  69524.9548     0.65291E-01 
  69557.2170     0.65913E-01 
  69589.4791     0.66538E-01 
  69621.7413     0.67168E-01 
  69654.0034     0.67802E-01 
  69686.2656     0.68440E-01 
  69718.5278     0.69081E-01 
  69750.7899     0.69727E-01 
  69783.0521     0.70377E-01 
  69815.3142     0.71031E-01 
  69847.5764     0.71689E-01 
  69879.8386     0.72350E-01 
  69912.1007     0.73016E-01 
  69944.3629     0.73686E-01 
  69976.6250     0.74360E-01 
  70008.8872     0.75038E-01 
  70041.1494     0.75720E-01 
  70073.4115     0.76406E-01 
  70105.6737     0.77097E-01 
  70137.9358     0.77791E-01 
  70170.1980     0.78489E-01 
  70202.4602     0.79191E-01 
  70234.7223     0.79898E-01 
  70266.9845     0.80608E-01 
  70299.2466     0.81323E-01 
  70331.5088     0.82041E-01 
  70363.7710     0.82764E-01 
  70396.0331     0.83491E-01 
  70428.2953     0.84221E-01 
  70460.5574     0.84956E-01 
  70492.8196     0.85695E-01 
  70525.0818     0.86438E-01 
  70557.3439     0.87185E-01 
  70589.6061     0.87936E-01 
  70621.8682     0.88691E-01 
  70654.1304     0.89450E-01 
  70686.3926     0.90214E-01 
  70718.6547     0.90981E-01 
  70750.9169     0.91752E-01 
  70783.1790     0.92528E-01 
  70815.4412     0.93307E-01 
  70847.7034     0.94091E-01 
  70879.9655     0.94878E-01 
  70912.2277     0.95670E-01 
  70944.4898     0.96466E-01 
  70976.7520     0.97265E-01 
  71009.0142     0.98069E-01 
  71041.2763     0.98877E-01 
  71073.5385     0.99689E-01 
  71105.8006     0.10050E+00 
  71138.0628     0.10132E+00 
  71170.3250     0.10215E+00 
  71202.5871     0.10298E+00 
  71234.8493     0.10381E+00 
  71267.1114     0.10464E+00 
  71299.3736     0.10548E+00 
  71331.6358     0.10633E+00 
  71363.8979     0.10718E+00 
  71396.1601     0.10803E+00 
  71428.4222     0.10888E+00 
  71460.6844     0.10974E+00 
  71492.9466     0.11061E+00 
  71525.2087     0.11147E+00 
  71557.4709     0.11235E+00 
  71589.7330     0.11322E+00 
  71621.9952     0.11410E+00 
  71654.2574     0.11498E+00 
  71686.5195     0.11587E+00 
  71718.7817     0.11676E+00 
  71751.0438     0.11766E+00 
  71783.3060     0.11856E+00 
  71815.5682     0.11946E+00 
  71847.8303     0.12037E+00 
  71880.0925     0.12128E+00 
  71912.3546     0.12219E+00 
  71944.6168     0.12311E+00 
  71976.8790     0.12403E+00 
  72009.1411     0.12496E+00 
  72041.4033     0.12589E+00 
  72073.6654     0.12682E+00 
  72105.9276     0.12776E+00 
  72138.1898     0.12870E+00 
  72170.4519     0.12964E+00 
  72202.7141     0.13059E+00 
  72234.9762     0.13154E+00 
  72267.2384     0.13250E+00 
  72299.5006     0.13346E+00 
  72331.7627     0.13442E+00 
  72364.0249     0.13539E+00 
  72396.2870     0.13636E+00 
  72428.5492     0.13733E+00 
  72460.8114     0.13831E+00 
  72493.0735     0.13929E+00 
  72525.3357     0.14028E+00 
  72557.5978     0.14126E+00 
  72589.8600     0.14226E+00 
