  32262.1600     0.14978E-04 
  32294.4222     0.15125E-04 
  32326.6843     0.15274E-04 
  32358.9465     0.15424E-04 
  32391.2086     0.15575E-04 
  32423.4708     0.15727E-04 
  32455.7330     0.15879E-04 
  32487.9951     0.16033E-04 
  32520.2573     0.16187E-04 
  32552.5194     0.16343E-04 
  32584.7816     0.16499E-04 
  32617.0438     0.16657E-04 
  32649.3059     0.16815E-04 
  32681.5681     0.16974E-04 
  32713.8302     0.17134E-04 
  32746.0924     0.17295E-04 
  32778.3546     0.17457E-04 
  32810.6167     0.17620E-04 
  32842.8789     0.17783E-04 
  32875.1410     0.17948E-04 
  32907.4032     0.18114E-04 
  32939.6654     0.18280E-04 
  32971.9275     0.18448E-04 
  33004.1897     0.18616E-04 
  33036.4518     0.18785E-04 
  33068.7140     0.18955E-04 
  33100.9762     0.19126E-04 
  33133.2383     0.19298E-04 
  33165.5005     0.19471E-04 
  33197.7626     0.19645E-04 
  33230.0248     0.19819E-04 
  33262.2870     0.19995E-04 
  33294.5491     0.20171E-04 
  33326.8113     0.20348E-04 
  33359.0734     0.20527E-04 
  33391.3356     0.20706E-04 
  33423.5978     0.20886E-04 
  33455.8599     0.21066E-04 
  33488.1221     0.21248E-04 
  33520.3842     0.21431E-04 
  33552.6464     0.21614E-04 
  33584.9086     0.21798E-04 
  33617.1707     0.21983E-04 
  33649.4329     0.22169E-04 
  33681.6950     0.22356E-04 
  33713.9572     0.22544E-04 
  33746.2194     0.22732E-04 
  33778.4815     0.22921E-04 
  33810.7437     0.23111E-04 
  33843.0058     0.23302E-04 
  33875.2680     0.23494E-04 
  33907.5302     0.23687E-04 
  33939.7923     0.23880E-04 
  33972.0545     0.24074E-04 
  34004.3166     0.24269E-04 
  34036.5788     0.24465E-04 
  34068.8410     0.24662E-04 
  34101.1031     0.24859E-04 
  34133.3653     0.25057E-04 
  34165.6274     0.25256E-04 
  34197.8896     0.25456E-04 
  34230.1518     0.25657E-04 
  34262.4139     0.25858E-04 
  34294.6761     0.26060E-04 
  34326.9382     0.26263E-04 
  34359.2004     0.26466E-04 
  34391.4626     0.26670E-04 
  34423.7247     0.26875E-04 
  34455.9869     0.27081E-04 
  34488.2490     0.27287E-04 
  34520.5112     0.27494E-04 
  34552.7734     0.27702E-04 
  34585.0355     0.27911E-04 
  34617.2977     0.28120E-04 
  34649.5598     0.28330E-04 
  34681.8220     0.28541E-04 
  34714.0842     0.28752E-04 
  34746.3463     0.28964E-04 
  34778.6085     0.29176E-04 
  34810.8706     0.29390E-04 
  34843.1328     0.29603E-04 
  34875.3950     0.29818E-04 
  34907.6571     0.30033E-04 
  34939.9193     0.30249E-04 
  34972.1814     0.30465E-04 
  35004.4436     0.30682E-04 
  35036.7058     0.30900E-04 
  35068.9679     0.31118E-04 
  35101.2301     0.31337E-04 
  35133.4922     0.31556E-04 
  35165.7544     0.31776E-04 
  35198.0166     0.31996E-04 
  35230.2787     0.32217E-04 
  35262.5409     0.32439E-04 
  35294.8030     0.32661E-04 
  35327.0652     0.32884E-04 
  35359.3274     0.33107E-04 
  35391.5895     0.33330E-04 
  35423.8517     0.33554E-04 
  35456.1138     0.33779E-04 
  35488.3760     0.34004E-04 
  35520.6382     0.34230E-04 
  35552.9003     0.34456E-04 
  35585.1625     0.34682E-04 
  35617.4246     0.34909E-04 
  35649.6868     0.35137E-04 
  35681.9490     0.35364E-04 
  35714.2111     0.35593E-04 
  35746.4733     0.35821E-04 
  35778.7354     0.36050E-04 
  35810.9976     0.36280E-04 
  35843.2598     0.36510E-04 
  35875.5219     0.36740E-04 
  35907.7841     0.36970E-04 
  35940.0462     0.37201E-04 
  35972.3084     0.37432E-04 
  36004.5706     0.37664E-04 
  36036.8327     0.37896E-04 
  36069.0949     0.38128E-04 
  36101.3570     0.38360E-04 
  36133.6192     0.38593E-04 
  36165.8814     0.38826E-04 
  36198.1435     0.39059E-04 
  36230.4057     0.39293E-04 
  36262.6678     0.39527E-04 
  36294.9300     0.39761E-04 
  36327.1922     0.39995E-04 
  36359.4543     0.40230E-04 
  36391.7165     0.40464E-04 
  36423.9786     0.40699E-04 
  36456.2408     0.40934E-04 
  36488.5030     0.41170E-04 
  36520.7651     0.41405E-04 
  36553.0273     0.41640E-04 
  36585.2894     0.41876E-04 
  36617.5516     0.42112E-04 
  36649.8138     0.42348E-04 
  36682.0759     0.42584E-04 
  36714.3381     0.42820E-04 
  36746.6002     0.43056E-04 
  36778.8624     0.43292E-04 
  36811.1246     0.43529E-04 
  36843.3867     0.43765E-04 
  36875.6489     0.44002E-04 
  36907.9110     0.44238E-04 
  36940.1732     0.44474E-04 
  36972.4354     0.44711E-04 
  37004.6975     0.44947E-04 
  37036.9597     0.45184E-04 
  37069.2218     0.45420E-04 
  37101.4840     0.45656E-04 
  37133.7462     0.45893E-04 
  37166.0083     0.46129E-04 
  37198.2705     0.46365E-04 
  37230.5326     0.46601E-04 
  37262.7948     0.46837E-04 
  37295.0570     0.47073E-04 
  37327.3191     0.47308E-04 
  37359.5813     0.47544E-04 
  37391.8434     0.47779E-04 
  37424.1056     0.48014E-04 
  37456.3678     0.48249E-04 
  37488.6299     0.48484E-04 
  37520.8921     0.48719E-04 
  37553.1542     0.48953E-04 
  37585.4164     0.49187E-04 
  37617.6786     0.49421E-04 
  37649.9407     0.49655E-04 
  37682.2029     0.49888E-04 
  37714.4650     0.50122E-04 
  37746.7272     0.50354E-04 
  37778.9894     0.50587E-04 
  37811.2515     0.50819E-04 
  37843.5137     0.51051E-04 
  37875.7758     0.51283E-04 
  37908.0380     0.51514E-04 
  37940.3002     0.51745E-04 
  37972.5623     0.51975E-04 
  38004.8245     0.52205E-04 
  38037.0866     0.52435E-04 
  38069.3488     0.52664E-04 
  38101.6110     0.52893E-04 
  38133.8731     0.53122E-04 
  38166.1353     0.53350E-04 
  38198.3974     0.53577E-04 
  38230.6596     0.53804E-04 
  38262.9218     0.54031E-04 
  38295.1839     0.54257E-04 
  38327.4461     0.54482E-04 
  38359.7082     0.54707E-04 
  38391.9704     0.54932E-04 
  38424.2326     0.55156E-04 
  38456.4947     0.55379E-04 
  38488.7569     0.55602E-04 
  38521.0190     0.55824E-04 
  38553.2812     0.56046E-04 
  38585.5434     0.56267E-04 
  38617.8055     0.56487E-04 
  38650.0677     0.56707E-04 
  38682.3298     0.56926E-04 
  38714.5920     0.57144E-04 
  38746.8542     0.57362E-04 
  38779.1163     0.57579E-04 
  38811.3785     0.57795E-04 
  38843.6406     0.58011E-04 
  38875.9028     0.58226E-04 
  38908.1650     0.58440E-04 
  38940.4271     0.58654E-04 
  38972.6893     0.58866E-04 
  39004.9514     0.59078E-04 
  39037.2136     0.59290E-04 
  39069.4758     0.59500E-04 
  39101.7379     0.59709E-04 
  39134.0001     0.59918E-04 
  39166.2622     0.60126E-04 
  39198.5244     0.60333E-04 
  39230.7866     0.60540E-04 
  39263.0487     0.60745E-04 
  39295.3109     0.60949E-04 
  39327.5730     0.61153E-04 
  39359.8352     0.61356E-04 
  39392.0974     0.61558E-04 
  39424.3595     0.61759E-04 
  39456.6217     0.61959E-04 
  39488.8838     0.62158E-04 
  39521.1460     0.62356E-04 
  39553.4082     0.62553E-04 
  39585.6703     0.62749E-04 
  39617.9325     0.62944E-04 
  39650.1946     0.63138E-04 
  39682.4568     0.63332E-04 
  39714.7190     0.63524E-04 
  39746.9811     0.63715E-04 
  39779.2433     0.63905E-04 
  39811.5054     0.64094E-04 
  39843.7676     0.64282E-04 
  39876.0298     0.64469E-04 
  39908.2919     0.64655E-04 
  39940.5541     0.64840E-04 
  39972.8162     0.65023E-04 
  40005.0784     0.65206E-04 
  40037.3406     0.65387E-04 
  40069.6027     0.65567E-04 
  40101.8649     0.65746E-04 
  40134.1270     0.65924E-04 
  40166.3892     0.66101E-04 
  40198.6514     0.66277E-04 
  40230.9135     0.66451E-04 
  40263.1757     0.66625E-04 
  40295.4378     0.66797E-04 
  40327.7000     0.66968E-04 
  40359.9622     0.67137E-04 
  40392.2243     0.67306E-04 
  40424.4865     0.67473E-04 
  40456.7486     0.67639E-04 
  40489.0108     0.67803E-04 
  40521.2730     0.67967E-04 
  40553.5351     0.68129E-04 
  40585.7973     0.68290E-04 
  40618.0594     0.68449E-04 
  40650.3216     0.68607E-04 
  40682.5838     0.68764E-04 
  40714.8459     0.68920E-04 
  40747.1081     0.69074E-04 
  40779.3702     0.69227E-04 
  40811.6324     0.69379E-04 
  40843.8946     0.69529E-04 
  40876.1567     0.69678E-04 
  40908.4189     0.69825E-04 
  40940.6810     0.69972E-04 
  40972.9432     0.70116E-04 
  41005.2054     0.70260E-04 
  41037.4675     0.70402E-04 
  41069.7297     0.70542E-04 
  41101.9918     0.70681E-04 
  41134.2540     0.70819E-04 
  41166.5162     0.70955E-04 
  41198.7783     0.71090E-04 
  41231.0405     0.71224E-04 
  41263.3026     0.71355E-04 
  41295.5648     0.71486E-04 
  41327.8270     0.71615E-04 
  41360.0891     0.71743E-04 
  41392.3513     0.71869E-04 
  41424.6134     0.71993E-04 
  41456.8756     0.72116E-04 
  41489.1378     0.72238E-04 
  41521.3999     0.72358E-04 
  41553.6621     0.72477E-04 
  41585.9242     0.72594E-04 
  41618.1864     0.72709E-04 
  41650.4486     0.72823E-04 
  41682.7107     0.72936E-04 
  41714.9729     0.73047E-04 
  41747.2350     0.73156E-04 
  41779.4972     0.73264E-04 
  41811.7594     0.73370E-04 
  41844.0215     0.73475E-04 
  41876.2837     0.73578E-04 
  41908.5458     0.73680E-04 
  41940.8080     0.73780E-04 
  41973.0702     0.73878E-04 
  42005.3323     0.73975E-04 
  42037.5945     0.74070E-04 
  42069.8566     0.74164E-04 
  42102.1188     0.74256E-04 
  42134.3810     0.74347E-04 
  42166.6431     0.74435E-04 
  42198.9053     0.74523E-04 
  42231.1674     0.74608E-04 
  42263.4296     0.74692E-04 
  42295.6918     0.74775E-04 
  42327.9539     0.74856E-04 
  42360.2161     0.74935E-04 
  42392.4782     0.75012E-04 
  42424.7404     0.75088E-04 
  42457.0026     0.75162E-04 
  42489.2647     0.75235E-04 
  42521.5269     0.75306E-04 
  42553.7890     0.75375E-04 
  42586.0512     0.75443E-04 
  42618.3134     0.75509E-04 
  42650.5755     0.75573E-04 
  42682.8377     0.75636E-04 
  42715.0998     0.75697E-04 
  42747.3620     0.75757E-04 
  42779.6242     0.75814E-04 
  42811.8863     0.75870E-04 
  42844.1485     0.75925E-04 
  42876.4106     0.75977E-04 
  42908.6728     0.76028E-04 
  42940.9350     0.76078E-04 
  42973.1971     0.76126E-04 
  43005.4593     0.76172E-04 
  43037.7214     0.76216E-04 
  43069.9836     0.76259E-04 
  43102.2458     0.76300E-04 
  43134.5079     0.76339E-04 
  43166.7701     0.76377E-04 
  43199.0322     0.76413E-04 
  43231.2944     0.76447E-04 
  43263.5566     0.76480E-04 
  43295.8187     0.76510E-04 
  43328.0809     0.76540E-04 
  43360.3430     0.76567E-04 
  43392.6052     0.76593E-04 
  43424.8674     0.76617E-04 
  43457.1295     0.76640E-04 
  43489.3917     0.76661E-04 
  43521.6538     0.76680E-04 
  43553.9160     0.76697E-04 
  43586.1782     0.76713E-04 
  43618.4403     0.76727E-04 
  43650.7025     0.76740E-04 
  43682.9646     0.76751E-04 
  43715.2268     0.76760E-04 
  43747.4890     0.76767E-04 
  43779.7511     0.76773E-04 
  43812.0133     0.76777E-04 
  43844.2754     0.76779E-04 
  43876.5376     0.76780E-04 
  43908.7998     0.76779E-04 
  43941.0619     0.76777E-04 
  43973.3241     0.76772E-04 
  44005.5862     0.76767E-04 
  44037.8484     0.76759E-04 
  44070.1106     0.76750E-04 
  44102.3727     0.76739E-04 
  44134.6349     0.76726E-04 
  44166.8970     0.76712E-04 
  44199.1592     0.76697E-04 
  44231.4214     0.76679E-04 
  44263.6835     0.76660E-04 
  44295.9457     0.76639E-04 
  44328.2078     0.76617E-04 
  44360.4700     0.76593E-04 
  44392.7322     0.76567E-04 
  44424.9943     0.76540E-04 
  44457.2565     0.76511E-04 
  44489.5186     0.76481E-04 
  44521.7808     0.76449E-04 
  44554.0430     0.76415E-04 
  44586.3051     0.76380E-04 
  44618.5673     0.76343E-04 
  44650.8294     0.76304E-04 
  44683.0916     0.76264E-04 
  44715.3538     0.76223E-04 
  44747.6159     0.76179E-04 
  44779.8781     0.76134E-04 
  44812.1402     0.76088E-04 
  44844.4024     0.76040E-04 
  44876.6646     0.75990E-04 
  44908.9267     0.75939E-04 
  44941.1889     0.75887E-04 
  44973.4510     0.75832E-04 
  45005.7132     0.75777E-04 
  45037.9754     0.75719E-04 
  45070.2375     0.75660E-04 
  45102.4997     0.75600E-04 
  45134.7618     0.75538E-04 
  45167.0240     0.75475E-04 
  45199.2862     0.75410E-04 
  45231.5483     0.75343E-04 
  45263.8105     0.75275E-04 
  45296.0726     0.75206E-04 
  45328.3348     0.75135E-04 
  45360.5970     0.75062E-04 
  45392.8591     0.74988E-04 
  45425.1213     0.74913E-04 
  45457.3834     0.74836E-04 
  45489.6456     0.74758E-04 
  45521.9078     0.74678E-04 
  45554.1699     0.74596E-04 
  45586.4321     0.74514E-04 
  45618.6942     0.74430E-04 
  45650.9564     0.74344E-04 
  45683.2186     0.74257E-04 
  45715.4807     0.74168E-04 
  45747.7429     0.74079E-04 
  45780.0050     0.73987E-04 
  45812.2672     0.73895E-04 
  45844.5294     0.73801E-04 
  45876.7915     0.73705E-04 
  45909.0537     0.73608E-04 
  45941.3158     0.73510E-04 
  45973.5780     0.73411E-04 
  46005.8402     0.73310E-04 
  46038.1023     0.73207E-04 
  46070.3645     0.73104E-04 
  46102.6266     0.72999E-04 
  46134.8888     0.72892E-04 
  46167.1510     0.72785E-04 
  46199.4131     0.72676E-04 
  46231.6753     0.72566E-04 
  46263.9374     0.72454E-04 
  46296.1996     0.72341E-04 
  46328.4618     0.72227E-04 
  46360.7239     0.72112E-04 
  46392.9861     0.71995E-04 
  46425.2482     0.71877E-04 
  46457.5104     0.71758E-04 
  46489.7726     0.71638E-04 
  46522.0347     0.71516E-04 
  46554.2969     0.71393E-04 
  46586.5590     0.71269E-04 
  46618.8212     0.71144E-04 
  46651.0834     0.71017E-04 
  46683.3455     0.70889E-04 
  46715.6077     0.70761E-04 
  46747.8698     0.70630E-04 
  46780.1320     0.70499E-04 
  46812.3942     0.70367E-04 
  46844.6563     0.70233E-04 
  46876.9185     0.70098E-04 
  46909.1806     0.69963E-04 
  46941.4428     0.69826E-04 
  46973.7050     0.69688E-04 
  47005.9671     0.69548E-04 
  47038.2293     0.69408E-04 
  47070.4914     0.69267E-04 
  47102.7536     0.69124E-04 
  47135.0158     0.68981E-04 
  47167.2779     0.68836E-04 
  47199.5401     0.68690E-04 
  47231.8022     0.68543E-04 
  47264.0644     0.68396E-04 
  47296.3266     0.68247E-04 
  47328.5887     0.68097E-04 
  47360.8509     0.67946E-04 
  47393.1130     0.67794E-04 
  47425.3752     0.67641E-04 
  47457.6374     0.67487E-04 
  47489.8995     0.67333E-04 
  47522.1617     0.67177E-04 
  47554.4238     0.67020E-04 
  47586.6860     0.66862E-04 
  47618.9482     0.66704E-04 
  47651.2103     0.66544E-04 
  47683.4725     0.66384E-04 
  47715.7346     0.66222E-04 
  47747.9968     0.66060E-04 
  47780.2590     0.65897E-04 
  47812.5211     0.65732E-04 
  47844.7833     0.65567E-04 
  47877.0454     0.65401E-04 
  47909.3076     0.65235E-04 
  47941.5698     0.65067E-04 
  47973.8319     0.64899E-04 
  48006.0941     0.64729E-04 
  48038.3562     0.64559E-04 
  48070.6184     0.64388E-04 
  48102.8806     0.64217E-04 
  48135.1427     0.64044E-04 
  48167.4049     0.63871E-04 
  48199.6670     0.63697E-04 
  48231.9292     0.63522E-04 
  48264.1914     0.63346E-04 
  48296.4535     0.63170E-04 
  48328.7157     0.62993E-04 
  48360.9778     0.62815E-04 
  48393.2400     0.62637E-04 
  48425.5022     0.62457E-04 
  48457.7643     0.62277E-04 
  48490.0265     0.62097E-04 
  48522.2886     0.61915E-04 
  48554.5508     0.61733E-04 
  48586.8130     0.61551E-04 
  48619.0751     0.61367E-04 
  48651.3373     0.61184E-04 
  48683.5994     0.60999E-04 
  48715.8616     0.60814E-04 
  48748.1238     0.60628E-04 
  48780.3859     0.60441E-04 
  48812.6481     0.60254E-04 
  48844.9102     0.60067E-04 
  48877.1724     0.59878E-04 
  48909.4346     0.59690E-04 
  48941.6967     0.59500E-04 
  48973.9589     0.59310E-04 
  49006.2210     0.59120E-04 
  49038.4832     0.58929E-04 
  49070.7454     0.58737E-04 
  49103.0075     0.58545E-04 
  49135.2697     0.58353E-04 
  49167.5318     0.58160E-04 
  49199.7940     0.57966E-04 
  49232.0562     0.57772E-04 
  49264.3183     0.57577E-04 
  49296.5805     0.57382E-04 
  49328.8426     0.57187E-04 
  49361.1048     0.56991E-04 
  49393.3670     0.56795E-04 
  49425.6291     0.56598E-04 
  49457.8913     0.56401E-04 
  49490.1534     0.56203E-04 
  49522.4156     0.56005E-04 
  49554.6778     0.55807E-04 
  49586.9399     0.55608E-04 
  49619.2021     0.55409E-04 
  49651.4642     0.55210E-04 
  49683.7264     0.55010E-04 
  49715.9886     0.54810E-04 
  49748.2507     0.54609E-04 
  49780.5129     0.54408E-04 
  49812.7750     0.54207E-04 
  49845.0372     0.54006E-04 
  49877.2994     0.53804E-04 
  49909.5615     0.53602E-04 
  49941.8237     0.53399E-04 
  49974.0858     0.53197E-04 
  50006.3480     0.52994E-04 
  50038.6102     0.52791E-04 
  50070.8723     0.52587E-04 
  50103.1345     0.52383E-04 
  50135.3966     0.52180E-04 
  50167.6588     0.51975E-04 
  50199.9210     0.51771E-04 
  50232.1831     0.51566E-04 
  50264.4453     0.51362E-04 
  50296.7074     0.51157E-04 
  50328.9696     0.50951E-04 
  50361.2318     0.50746E-04 
  50393.4939     0.50541E-04 
  50425.7561     0.50335E-04 
  50458.0182     0.50129E-04 
  50490.2804     0.49923E-04 
  50522.5426     0.49717E-04 
  50554.8047     0.49511E-04 
  50587.0669     0.49304E-04 
  50619.3290     0.49098E-04 
  50651.5912     0.48891E-04 
  50683.8534     0.48685E-04 
  50716.1155     0.48478E-04 
  50748.3777     0.48271E-04 
  50780.6398     0.48064E-04 
  50812.9020     0.47857E-04 
  50845.1642     0.47650E-04 
  50877.4263     0.47443E-04 
  50909.6885     0.47236E-04 
  50941.9506     0.47028E-04 
  50974.2128     0.46821E-04 
  51006.4750     0.46614E-04 
  51038.7371     0.46407E-04 
  51070.9993     0.46199E-04 
  51103.2614     0.45992E-04 
  51135.5236     0.45785E-04 
  51167.7858     0.45577E-04 
  51200.0479     0.45370E-04 
  51232.3101     0.45163E-04 
  51264.5722     0.44956E-04 
  51296.8344     0.44749E-04 
  51329.0966     0.44541E-04 
  51361.3587     0.44334E-04 
  51393.6209     0.44127E-04 
  51425.8830     0.43920E-04 
  51458.1452     0.43714E-04 
  51490.4074     0.43507E-04 
  51522.6695     0.43300E-04 
  51554.9317     0.43094E-04 
  51587.1938     0.42887E-04 
  51619.4560     0.42681E-04 
  51651.7182     0.42474E-04 
  51683.9803     0.42268E-04 
  51716.2425     0.42062E-04 
  51748.5046     0.41856E-04 
  51780.7668     0.41651E-04 
  51813.0290     0.41445E-04 
  51845.2911     0.41240E-04 
  51877.5533     0.41034E-04 
  51909.8154     0.40829E-04 
  51942.0776     0.40624E-04 
  51974.3398     0.40420E-04 
  52006.6019     0.40215E-04 
  52038.8641     0.40011E-04 
  52071.1262     0.39806E-04 
  52103.3884     0.39602E-04 
  52135.6506     0.39399E-04 
  52167.9127     0.39195E-04 
  52200.1749     0.38992E-04 
  52232.4370     0.38789E-04 
  52264.6992     0.38586E-04 
  52296.9614     0.38383E-04 
  52329.2235     0.38181E-04 
  52361.4857     0.37979E-04 
  52393.7478     0.37777E-04 
  52426.0100     0.37575E-04 
  52458.2722     0.37374E-04 
  52490.5343     0.37172E-04 
  52522.7965     0.36972E-04 
  52555.0586     0.36771E-04 
  52587.3208     0.36571E-04 
  52619.5830     0.36371E-04 
  52651.8451     0.36171E-04 
  52684.1073     0.35972E-04 
  52716.3694     0.35772E-04 
  52748.6316     0.35574E-04 
  52780.8938     0.35375E-04 
  52813.1559     0.35177E-04 
  52845.4181     0.34979E-04 
  52877.6802     0.34782E-04 
  52909.9424     0.34585E-04 
  52942.2046     0.34388E-04 
  52974.4667     0.34191E-04 
  53006.7289     0.33995E-04 
  53038.9910     0.33799E-04 
  53071.2532     0.33604E-04 
  53103.5154     0.33409E-04 
  53135.7775     0.33214E-04 
  53168.0397     0.33020E-04 
  53200.3018     0.32826E-04 
  53232.5640     0.32632E-04 
  53264.8262     0.32439E-04 
  53297.0883     0.32246E-04 
  53329.3505     0.32054E-04 
  53361.6126     0.31862E-04 
  53393.8748     0.31670E-04 
  53426.1370     0.31479E-04 
  53458.3991     0.31288E-04 
  53490.6613     0.31098E-04 
  53522.9234     0.30908E-04 
  53555.1856     0.30718E-04 
  53587.4478     0.30529E-04 
  53619.7099     0.30340E-04 
  53651.9721     0.30152E-04 
  53684.2342     0.29964E-04 
  53716.4964     0.29776E-04 
  53748.7586     0.29589E-04 
  53781.0207     0.29403E-04 
  53813.2829     0.29217E-04 
  53845.5450     0.29031E-04 
  53877.8072     0.28846E-04 
  53910.0694     0.28661E-04 
  53942.3315     0.28477E-04 
  53974.5937     0.28293E-04 
  54006.8558     0.28110E-04 
  54039.1180     0.27927E-04 
  54071.3802     0.27744E-04 
  54103.6423     0.27562E-04 
  54135.9045     0.27381E-04 
  54168.1666     0.27200E-04 
  54200.4288     0.27019E-04 
  54232.6910     0.26839E-04 
  54264.9531     0.26660E-04 
  54297.2153     0.26481E-04 
  54329.4774     0.26302E-04 
  54361.7396     0.26124E-04 
  54394.0018     0.25947E-04 
  54426.2639     0.25770E-04 
  54458.5261     0.25593E-04 
  54490.7882     0.25417E-04 
  54523.0504     0.25241E-04 
  54555.3126     0.25066E-04 
  54587.5747     0.24892E-04 
  54619.8369     0.24718E-04 
  54652.0990     0.24545E-04 
  54684.3612     0.24372E-04 
  54716.6234     0.24199E-04 
  54748.8855     0.24027E-04 
  54781.1477     0.23856E-04 
  54813.4098     0.23685E-04 
  54845.6720     0.23515E-04 
  54877.9342     0.23345E-04 
  54910.1963     0.23176E-04 
  54942.4585     0.23007E-04 
  54974.7206     0.22839E-04 
  55006.9828     0.22672E-04 
  55039.2450     0.22505E-04 
  55071.5071     0.22338E-04 
  55103.7693     0.22172E-04 
  55136.0314     0.22007E-04 
  55168.2936     0.21842E-04 
  55200.5558     0.21678E-04 
  55232.8179     0.21514E-04 
  55265.0801     0.21351E-04 
  55297.3422     0.21188E-04 
  55329.6044     0.21026E-04 
  55361.8666     0.20865E-04 
  55394.1287     0.20704E-04 
  55426.3909     0.20544E-04 
  55458.6530     0.20384E-04 
  55490.9152     0.20225E-04 
  55523.1774     0.20066E-04 
  55555.4395     0.19908E-04 
  55587.7017     0.19751E-04 
  55619.9638     0.19594E-04 
  55652.2260     0.19438E-04 
  55684.4882     0.19282E-04 
  55716.7503     0.19127E-04 
  55749.0125     0.18972E-04 
  55781.2746     0.18818E-04 
  55813.5368     0.18665E-04 
  55845.7990     0.18512E-04 
  55878.0611     0.18360E-04 
  55910.3233     0.18208E-04 
  55942.5854     0.18057E-04 
  55974.8476     0.17907E-04 
  56007.1098     0.17757E-04 
  56039.3719     0.17608E-04 
  56071.6341     0.17459E-04 
  56103.8962     0.17311E-04 
  56136.1584     0.17163E-04 
  56168.4206     0.17016E-04 
  56200.6827     0.16870E-04 
  56232.9449     0.16724E-04 
  56265.2070     0.16579E-04 
  56297.4692     0.16435E-04 
  56329.7314     0.16291E-04 
  56361.9935     0.16148E-04 
  56394.2557     0.16005E-04 
  56426.5178     0.15863E-04 
  56458.7800     0.15721E-04 
  56491.0422     0.15581E-04 
  56523.3043     0.15440E-04 
  56555.5665     0.15301E-04 
  56587.8286     0.15162E-04 
  56620.0908     0.15023E-04 
  56652.3530     0.14885E-04 
  56684.6151     0.14748E-04 
  56716.8773     0.14612E-04 
  56749.1394     0.14476E-04 
  56781.4016     0.14340E-04 
  56813.6638     0.14205E-04 
  56845.9259     0.14071E-04 
  56878.1881     0.13938E-04 
  56910.4502     0.13805E-04 
  56942.7124     0.13672E-04 
  56974.9746     0.13541E-04 
  57007.2367     0.13410E-04 
  57039.4989     0.13279E-04 
  57071.7610     0.13149E-04 
  57104.0232     0.13020E-04 
  57136.2854     0.12892E-04 
  57168.5475     0.12764E-04 
  57200.8097     0.12636E-04 
  57233.0718     0.12510E-04 
  57265.3340     0.12383E-04 
  57297.5962     0.12258E-04 
  57329.8583     0.12133E-04 
  57362.1205     0.12009E-04 
  57394.3826     0.11885E-04 
  57426.6448     0.11762E-04 
  57458.9070     0.11640E-04 
  57491.1691     0.11518E-04 
  57523.4313     0.11397E-04 
  57555.6934     0.11277E-04 
  57587.9556     0.11157E-04 
  57620.2178     0.11037E-04 
  57652.4799     0.10919E-04 
  57684.7421     0.10801E-04 
  57717.0042     0.10684E-04 
  57749.2664     0.10567E-04 
  57781.5286     0.10451E-04 
  57813.7907     0.10335E-04 
  57846.0529     0.10221E-04 
  57878.3150     0.10107E-04 
  57910.5772     0.99930E-05 
  57942.8394     0.98801E-05 
  57975.1015     0.97679E-05 
  58007.3637     0.96563E-05 
  58039.6258     0.95453E-05 
  58071.8880     0.94350E-05 
  58104.1502     0.93253E-05 
  58136.4123     0.92163E-05 
  58168.6745     0.91079E-05 
  58200.9366     0.90001E-05 
  58233.1988     0.88930E-05 
  58265.4610     0.87866E-05 
  58297.7231     0.86808E-05 
  58329.9853     0.85756E-05 
  58362.2474     0.84711E-05 
  58394.5096     0.83673E-05 
  58426.7718     0.82641E-05 
  58459.0339     0.81615E-05 
  58491.2961     0.80596E-05 
  58523.5582     0.79584E-05 
  58555.8204     0.78578E-05 
  58588.0826     0.77578E-05 
  58620.3447     0.76586E-05 
  58652.6069     0.75599E-05 
  58684.8690     0.74620E-05 
  58717.1312     0.73647E-05 
  58749.3934     0.72681E-05 
  58781.6555     0.71721E-05 
  58813.9177     0.70768E-05 
  58846.1798     0.69822E-05 
  58878.4420     0.68883E-05 
  58910.7042     0.67950E-05 
  58942.9663     0.67024E-05 
  58975.2285     0.66105E-05 
  59007.4906     0.65192E-05 
  59039.7528     0.64286E-05 
  59072.0150     0.63387E-05 
  59104.2771     0.62495E-05 
  59136.5393     0.61610E-05 
  59168.8014     0.60732E-05 
  59201.0636     0.59860E-05 
  59233.3258     0.58996E-05 
  59265.5879     0.58138E-05 
  59297.8501     0.57288E-05 
  59330.1122     0.56444E-05 
  59362.3744     0.55607E-05 
  59394.6366     0.54778E-05 
  59426.8987     0.53955E-05 
  59459.1609     0.53140E-05 
  59491.4230     0.52331E-05 
  59523.6852     0.51530E-05 
  59555.9474     0.50736E-05 
  59588.2095     0.49949E-05 
  59620.4717     0.49169E-05 
  59652.7338     0.48397E-05 
  59684.9960     0.47631E-05 
  59717.2582     0.46874E-05 
  59749.5203     0.46123E-05 
  59781.7825     0.45380E-05 
  59814.0446     0.44644E-05 
  59846.3068     0.43916E-05 
  59878.5690     0.43195E-05 
  59910.8311     0.42481E-05 
  59943.0933     0.41776E-05 
  59975.3554     0.41077E-05 
  60007.6176     0.40387E-05 
  60039.8798     0.39704E-05 
  60072.1419     0.39028E-05 
  60104.4041     0.38361E-05 
  60136.6662     0.37701E-05 
  60168.9284     0.37049E-05 
  60201.1906     0.36405E-05 
  60233.4527     0.35769E-05 
  60265.7149     0.35141E-05 
  60297.9770     0.34521E-05 
  60330.2392     0.33908E-05 
  60362.5014     0.33304E-05 
  60394.7635     0.32708E-05 
  60427.0257     0.32121E-05 
  60459.2878     0.31541E-05 
  60491.5500     0.30970E-05 
  60523.8122     0.30407E-05 
  60556.0743     0.29853E-05 
  60588.3365     0.29307E-05 
  60620.5986     0.28769E-05 
  60652.8608     0.28241E-05 
  60685.1230     0.27720E-05 
  60717.3851     0.27209E-05 
  60749.6473     0.26706E-05 
  60781.9094     0.26212E-05 
  60814.1716     0.25727E-05 
  60846.4338     0.25251E-05 
  60878.6959     0.24784E-05 
  60910.9581     0.24326E-05 
  60943.2202     0.23877E-05 
  60975.4824     0.23438E-05 
  61007.7446     0.23008E-05 
  61040.0067     0.22587E-05 
  61072.2689     0.22175E-05 
  61104.5310     0.21773E-05 
  61136.7932     0.21381E-05 
  61169.0554     0.20999E-05 
  61201.3175     0.20626E-05 
  61233.5797     0.20263E-05 
  61265.8418     0.19910E-05 
  61298.1040     0.19567E-05 
  61330.3662     0.19234E-05 
  61362.6283     0.18911E-05 
  61394.8905     0.18599E-05 
  61427.1526     0.18297E-05 
  61459.4148     0.18005E-05 
  61491.6770     0.17724E-05 
  61523.9391     0.17454E-05 
  61556.2013     0.17195E-05 
  61588.4634     0.16946E-05 
  61620.7256     0.16708E-05 
  61652.9878     0.16482E-05 
  61685.2499     0.16266E-05 
  61717.5121     0.16062E-05 
  61749.7742     0.15869E-05 
  61782.0364     0.15688E-05 
  61814.2986     0.15518E-05 
  61846.5607     0.15361E-05 
  61878.8229     0.15214E-05 
  61911.0850     0.15080E-05 
  61943.3472     0.14958E-05 
  61975.6094     0.14849E-05 
  62007.8715     0.14751E-05 
  62040.1337     0.14666E-05 
  62072.3958     0.14594E-05 
  62104.6580     0.14534E-05 
  62136.9202     0.14487E-05 
  62169.1823     0.14454E-05 
  62201.4445     0.14433E-05 
  62233.7066     0.14426E-05 
  62265.9688     0.14432E-05 
  62298.2310     0.14451E-05 
  62330.4931     0.14484E-05 
  62362.7553     0.14531E-05 
  62395.0174     0.14593E-05 
  62427.2796     0.14668E-05 
  62459.5418     0.14757E-05 
  62491.8039     0.14861E-05 
  62524.0661     0.14980E-05 
  62556.3282     0.15113E-05 
  62588.5904     0.15262E-05 
  62620.8526     0.15425E-05 
  62653.1147     0.15604E-05 
  62685.3769     0.15798E-05 
  62717.6390     0.16008E-05 
  62749.9012     0.16234E-05 
  62782.1634     0.16475E-05 
  62814.4255     0.16733E-05 
  62846.6877     0.17007E-05 
  62878.9498     0.17298E-05 
  62911.2120     0.17605E-05 
  62943.4742     0.17929E-05 
  62975.7363     0.18271E-05 
  63007.9985     0.18629E-05 
  63040.2606     0.19006E-05 
  63072.5228     0.19400E-05 
  63104.7850     0.19811E-05 
  63137.0471     0.20241E-05 
  63169.3093     0.20690E-05 
  63201.5714     0.21156E-05 
  63233.8336     0.21642E-05 
  63266.0958     0.22147E-05 
  63298.3579     0.22670E-05 
  63330.6201     0.23213E-05 
  63362.8822     0.23776E-05 
  63395.1444     0.24359E-05 
  63427.4066     0.24962E-05 
  63459.6687     0.25585E-05 
  63491.9309     0.26229E-05 
  63524.1930     0.26893E-05 
  63556.4552     0.27579E-05 
  63588.7174     0.28286E-05 
  63620.9795     0.29015E-05 
  63653.2417     0.29765E-05 
  63685.5038     0.30538E-05 
  63717.7660     0.31333E-05 
  63750.0282     0.32150E-05 
  63782.2903     0.32991E-05 
  63814.5525     0.33854E-05 
  63846.8146     0.34741E-05 
  63879.0768     0.35652E-05 
  63911.3390     0.36586E-05 
  63943.6011     0.37545E-05 
  63975.8633     0.38529E-05 
  64008.1254     0.39537E-05 
  64040.3876     0.40571E-05 
  64072.6498     0.41630E-05 
  64104.9119     0.42714E-05 
  64137.1741     0.43825E-05 
  64169.4362     0.44962E-05 
  64201.6984     0.46125E-05 
  64233.9606     0.47316E-05 
  64266.2227     0.48534E-05 
  64298.4849     0.49779E-05 
  64330.7470     0.51053E-05 
  64363.0092     0.52354E-05 
  64395.2714     0.53685E-05 
  64427.5335     0.55044E-05 
  64459.7957     0.56432E-05 
  64492.0578     0.57850E-05 
  64524.3200     0.59298E-05 
  64556.5822     0.60776E-05 
  64588.8443     0.62285E-05 
  64621.1065     0.63824E-05 
  64653.3686     0.65395E-05 
  64685.6308     0.66998E-05 
  64717.8930     0.68633E-05 
  64750.1551     0.70300E-05 
  64782.4173     0.72000E-05 
  64814.6794     0.73734E-05 
  64846.9416     0.75500E-05 
  64879.2038     0.77301E-05 
  64911.4659     0.79136E-05 
  64943.7281     0.81006E-05 
  64975.9902     0.82911E-05 
  65008.2524     0.84851E-05 
  65040.5146     0.86827E-05 
  65072.7767     0.88840E-05 
  65105.0389     0.90889E-05 
  65137.3010     0.92976E-05 
  65169.5632     0.95100E-05 
  65201.8254     0.97261E-05 
  65234.0875     0.99462E-05 
  65266.3497     0.10170E-04 
  65298.6118     0.10398E-04 
  65330.8740     0.10630E-04 
  65363.1362     0.10866E-04 
  65395.3983     0.11105E-04 
  65427.6605     0.11349E-04 
  65459.9226     0.11597E-04 
  65492.1848     0.11850E-04 
  65524.4470     0.12106E-04 
  65556.7091     0.12367E-04 
  65588.9713     0.12632E-04 
  65621.2334     0.12902E-04 
  65653.4956     0.13176E-04 
  65685.7578     0.13454E-04 
  65718.0199     0.13737E-04 
  65750.2821     0.14024E-04 
  65782.5442     0.14317E-04 
  65814.8064     0.14613E-04 
  65847.0686     0.14915E-04 
  65879.3307     0.15221E-04 
  65911.5929     0.15532E-04 
  65943.8550     0.15848E-04 
  65976.1172     0.16169E-04 
  66008.3794     0.16494E-04 
  66040.6415     0.16825E-04 
  66072.9037     0.17161E-04 
  66105.1658     0.17502E-04 
  66137.4280     0.17848E-04 
  66169.6902     0.18199E-04 
  66201.9523     0.18556E-04 
  66234.2145     0.18918E-04 
  66266.4766     0.19285E-04 
  66298.7388     0.19658E-04 
  66331.0010     0.20036E-04 
  66363.2631     0.20420E-04 
  66395.5253     0.20809E-04 
  66427.7874     0.21204E-04 
  66460.0496     0.21605E-04 
  66492.3118     0.22011E-04 
  66524.5739     0.22423E-04 
  66556.8361     0.22842E-04 
  66589.0982     0.23266E-04 
  66621.3604     0.23696E-04 
  66653.6226     0.24132E-04 
  66685.8847     0.24574E-04 
  66718.1469     0.25022E-04 
  66750.4090     0.25477E-04 
  66782.6712     0.25938E-04 
  66814.9334     0.26405E-04 
  66847.1955     0.26879E-04 
  66879.4577     0.27359E-04 
  66911.7198     0.27845E-04 
  66943.9820     0.28338E-04 
  66976.2442     0.28838E-04 
  67008.5063     0.29345E-04 
  67040.7685     0.29858E-04 
  67073.0306     0.30378E-04 
  67105.2928     0.30905E-04 
  67137.5550     0.31439E-04 
  67169.8171     0.31979E-04 
  67202.0793     0.32527E-04 
  67234.3414     0.33082E-04 
  67266.6036     0.33645E-04 
  67298.8658     0.34214E-04 
  67331.1279     0.34791E-04 
  67363.3901     0.35375E-04 
  67395.6522     0.35967E-04 
  67427.9144     0.36566E-04 
  67460.1766     0.37172E-04 
  67492.4387     0.37787E-04 
  67524.7009     0.38409E-04 
  67556.9630     0.39038E-04 
  67589.2252     0.39676E-04 
  67621.4874     0.40321E-04 
  67653.7495     0.40975E-04 
  67686.0117     0.41636E-04 
  67718.2738     0.42305E-04 
  67750.5360     0.42983E-04 
  67782.7982     0.43669E-04 
  67815.0603     0.44363E-04 
  67847.3225     0.45065E-04 
  67879.5846     0.45776E-04 
  67911.8468     0.46496E-04 
  67944.1090     0.47223E-04 
  67976.3711     0.47960E-04 
  68008.6333     0.48705E-04 
  68040.8954     0.49459E-04 
  68073.1576     0.50221E-04 
  68105.4198     0.50993E-04 
  68137.6819     0.51773E-04 
  68169.9441     0.52563E-04 
  68202.2062     0.53361E-04 
  68234.4684     0.54169E-04 
  68266.7306     0.54986E-04 
  68298.9927     0.55812E-04 
  68331.2549     0.56647E-04 
  68363.5170     0.57492E-04 
  68395.7792     0.58347E-04 
  68428.0414     0.59210E-04 
  68460.3035     0.60084E-04 
  68492.5657     0.60967E-04 
  68524.8278     0.61860E-04 
  68557.0900     0.62762E-04 
  68589.3522     0.63675E-04 
  68621.6143     0.64597E-04 
  68653.8765     0.65530E-04 
  68686.1386     0.66472E-04 
  68718.4008     0.67425E-04 
  68750.6630     0.68388E-04 
  68782.9251     0.69361E-04 
  68815.1873     0.70344E-04 
  68847.4494     0.71338E-04 
  68879.7116     0.72342E-04 
  68911.9738     0.73357E-04 
  68944.2359     0.74382E-04 
  68976.4981     0.75418E-04 
  69008.7602     0.76465E-04 
  69041.0224     0.77522E-04 
  69073.2846     0.78591E-04 
  69105.5467     0.79670E-04 
  69137.8089     0.80760E-04 
  69170.0710     0.81862E-04 
  69202.3332     0.82974E-04 
  69234.5954     0.84097E-04 
  69266.8575     0.85232E-04 
  69299.1197     0.86378E-04 
  69331.3818     0.87536E-04 
  69363.6440     0.88704E-04 
  69395.9062     0.89885E-04 
  69428.1683     0.91077E-04 
  69460.4305     0.92280E-04 
  69492.6926     0.93495E-04 
  69524.9548     0.94722E-04 
  69557.2170     0.95960E-04 
  69589.4791     0.97211E-04 
  69621.7413     0.98473E-04 
  69654.0034     0.99748E-04 
  69686.2656     0.10103E-03 
  69718.5278     0.10233E-03 
  69750.7899     0.10364E-03 
  69783.0521     0.10497E-03 
  69815.3142     0.10630E-03 
  69847.5764     0.10765E-03 
  69879.8386     0.10901E-03 
  69912.1007     0.11038E-03 
  69944.3629     0.11176E-03 
  69976.6250     0.11316E-03 
  70008.8872     0.11457E-03 
  70041.1494     0.11599E-03 
  70073.4115     0.11743E-03 
  70105.6737     0.11888E-03 
  70137.9358     0.12034E-03 
  70170.1980     0.12181E-03 
  70202.4602     0.12330E-03 
  70234.7223     0.12480E-03 
  70266.9845     0.12631E-03 
  70299.2466     0.12783E-03 
  70331.5088     0.12937E-03 
  70363.7710     0.13092E-03 
  70396.0331     0.13249E-03 
  70428.2953     0.13407E-03 
  70460.5574     0.13566E-03 
  70492.8196     0.13726E-03 
  70525.0818     0.13888E-03 
  70557.3439     0.14051E-03 
  70589.6061     0.14216E-03 
  70621.8682     0.14382E-03 
  70654.1304     0.14549E-03 
  70686.3926     0.14717E-03 
  70718.6547     0.14887E-03 
  70750.9169     0.15058E-03 
  70783.1790     0.15231E-03 
  70815.4412     0.15405E-03 
  70847.7034     0.15581E-03 
  70879.9655     0.15757E-03 
  70912.2277     0.15936E-03 
  70944.4898     0.16115E-03 
  70976.7520     0.16296E-03 
  71009.0142     0.16479E-03 
  71041.2763     0.16662E-03 
  71073.5385     0.16847E-03 
  71105.8006     0.17034E-03 
  71138.0628     0.17222E-03 
  71170.3250     0.17411E-03 
  71202.5871     0.17602E-03 
  71234.8493     0.17794E-03 
  71267.1114     0.17988E-03 
  71299.3736     0.18183E-03 
  71331.6358     0.18380E-03 
  71363.8979     0.18578E-03 
  71396.1601     0.18777E-03 
  71428.4222     0.18978E-03 
  71460.6844     0.19180E-03 
  71492.9466     0.19384E-03 
  71525.2087     0.19589E-03 
  71557.4709     0.19795E-03 
  71589.7330     0.20003E-03 
  71621.9952     0.20213E-03 
  71654.2574     0.20424E-03 
  71686.5195     0.20636E-03 
  71718.7817     0.20850E-03 
  71751.0438     0.21065E-03 
  71783.3060     0.21282E-03 
  71815.5682     0.21500E-03 
  71847.8303     0.21719E-03 
  71880.0925     0.21940E-03 
  71912.3546     0.22163E-03 
  71944.6168     0.22387E-03 
  71976.8790     0.22612E-03 
  72009.1411     0.22839E-03 
  72041.4033     0.23067E-03 
  72073.6654     0.23297E-03 
  72105.9276     0.23528E-03 
  72138.1898     0.23761E-03 
  72170.4519     0.23995E-03 
  72202.7141     0.24230E-03 
  72234.9762     0.24467E-03 
  72267.2384     0.24706E-03 
  72299.5006     0.24946E-03 
  72331.7627     0.25187E-03 
  72364.0249     0.25430E-03 
  72396.2870     0.25674E-03 
  72428.5492     0.25920E-03 
  72460.8114     0.26167E-03 
  72493.0735     0.26415E-03 
  72525.3357     0.26665E-03 
  72557.5978     0.26917E-03 
  72589.8600     0.27169E-03 
