  32262.1600     0.16643E+01 
  32294.4222     0.16783E+01 
  32326.6843     0.16923E+01 
  32358.9465     0.17064E+01 
  32391.2086     0.17206E+01 
  32423.4708     0.17349E+01 
  32455.7330     0.17492E+01 
  32487.9951     0.17636E+01 
  32520.2573     0.17780E+01 
  32552.5194     0.17926E+01 
  32584.7816     0.18072E+01 
  32617.0438     0.18218E+01 
  32649.3059     0.18366E+01 
  32681.5681     0.18514E+01 
  32713.8302     0.18663E+01 
  32746.0924     0.18812E+01 
  32778.3546     0.18962E+01 
  32810.6167     0.19113E+01 
  32842.8789     0.19265E+01 
  32875.1410     0.19417E+01 
  32907.4032     0.19570E+01 
  32939.6654     0.19723E+01 
  32971.9275     0.19877E+01 
  33004.1897     0.20032E+01 
  33036.4518     0.20188E+01 
  33068.7140     0.20344E+01 
  33100.9762     0.20501E+01 
  33133.2383     0.20658E+01 
  33165.5005     0.20817E+01 
  33197.7626     0.20975E+01 
  33230.0248     0.21135E+01 
  33262.2870     0.21295E+01 
  33294.5491     0.21456E+01 
  33326.8113     0.21617E+01 
  33359.0734     0.21779E+01 
  33391.3356     0.21942E+01 
  33423.5978     0.22105E+01 
  33455.8599     0.22269E+01 
  33488.1221     0.22434E+01 
  33520.3842     0.22599E+01 
  33552.6464     0.22765E+01 
  33584.9086     0.22931E+01 
  33617.1707     0.23098E+01 
  33649.4329     0.23266E+01 
  33681.6950     0.23434E+01 
  33713.9572     0.23603E+01 
  33746.2194     0.23773E+01 
  33778.4815     0.23943E+01 
  33810.7437     0.24114E+01 
  33843.0058     0.24285E+01 
  33875.2680     0.24457E+01 
  33907.5302     0.24629E+01 
  33939.7923     0.24802E+01 
  33972.0545     0.24976E+01 
  34004.3166     0.25150E+01 
  34036.5788     0.25325E+01 
  34068.8410     0.25500E+01 
  34101.1031     0.25676E+01 
  34133.3653     0.25853E+01 
  34165.6274     0.26030E+01 
  34197.8896     0.26207E+01 
  34230.1518     0.26385E+01 
  34262.4139     0.26564E+01 
  34294.6761     0.26743E+01 
  34326.9382     0.26923E+01 
  34359.2004     0.27103E+01 
  34391.4626     0.27284E+01 
  34423.7247     0.27465E+01 
  34455.9869     0.27647E+01 
  34488.2490     0.27829E+01 
  34520.5112     0.28012E+01 
  34552.7734     0.28196E+01 
  34585.0355     0.28379E+01 
  34617.2977     0.28564E+01 
  34649.5598     0.28749E+01 
  34681.8220     0.28934E+01 
  34714.0842     0.29120E+01 
  34746.3463     0.29306E+01 
  34778.6085     0.29492E+01 
  34810.8706     0.29680E+01 
  34843.1328     0.29867E+01 
  34875.3950     0.30055E+01 
  34907.6571     0.30244E+01 
  34939.9193     0.30433E+01 
  34972.1814     0.30622E+01 
  35004.4436     0.30812E+01 
  35036.7058     0.31002E+01 
  35068.9679     0.31193E+01 
  35101.2301     0.31384E+01 
  35133.4922     0.31575E+01 
  35165.7544     0.31767E+01 
  35198.0166     0.31959E+01 
  35230.2787     0.32152E+01 
  35262.5409     0.32345E+01 
  35294.8030     0.32538E+01 
  35327.0652     0.32732E+01 
  35359.3274     0.32926E+01 
  35391.5895     0.33121E+01 
  35423.8517     0.33316E+01 
  35456.1138     0.33511E+01 
  35488.3760     0.33706E+01 
  35520.6382     0.33902E+01 
  35552.9003     0.34098E+01 
  35585.1625     0.34295E+01 
  35617.4246     0.34492E+01 
  35649.6868     0.34689E+01 
  35681.9490     0.34886E+01 
  35714.2111     0.35084E+01 
  35746.4733     0.35282E+01 
  35778.7354     0.35480E+01 
  35810.9976     0.35679E+01 
  35843.2598     0.35878E+01 
  35875.5219     0.36077E+01 
  35907.7841     0.36276E+01 
  35940.0462     0.36476E+01 
  35972.3084     0.36676E+01 
  36004.5706     0.36876E+01 
  36036.8327     0.37076E+01 
  36069.0949     0.37277E+01 
  36101.3570     0.37477E+01 
  36133.6192     0.37678E+01 
  36165.8814     0.37880E+01 
  36198.1435     0.38081E+01 
  36230.4057     0.38282E+01 
  36262.6678     0.38484E+01 
  36294.9300     0.38686E+01 
  36327.1922     0.38888E+01 
  36359.4543     0.39090E+01 
  36391.7165     0.39293E+01 
  36423.9786     0.39495E+01 
  36456.2408     0.39698E+01 
  36488.5030     0.39901E+01 
  36520.7651     0.40104E+01 
  36553.0273     0.40307E+01 
  36585.2894     0.40510E+01 
  36617.5516     0.40713E+01 
  36649.8138     0.40916E+01 
  36682.0759     0.41120E+01 
  36714.3381     0.41323E+01 
  36746.6002     0.41527E+01 
  36778.8624     0.41730E+01 
  36811.1246     0.41934E+01 
  36843.3867     0.42138E+01 
  36875.6489     0.42342E+01 
  36907.9110     0.42545E+01 
  36940.1732     0.42749E+01 
  36972.4354     0.42953E+01 
  37004.6975     0.43157E+01 
  37036.9597     0.43361E+01 
  37069.2218     0.43564E+01 
  37101.4840     0.43768E+01 
  37133.7462     0.43972E+01 
  37166.0083     0.44176E+01 
  37198.2705     0.44379E+01 
  37230.5326     0.44583E+01 
  37262.7948     0.44787E+01 
  37295.0570     0.44990E+01 
  37327.3191     0.45194E+01 
  37359.5813     0.45397E+01 
  37391.8434     0.45600E+01 
  37424.1056     0.45804E+01 
  37456.3678     0.46007E+01 
  37488.6299     0.46210E+01 
  37520.8921     0.46413E+01 
  37553.1542     0.46615E+01 
  37585.4164     0.46818E+01 
  37617.6786     0.47020E+01 
  37649.9407     0.47223E+01 
  37682.2029     0.47425E+01 
  37714.4650     0.47627E+01 
  37746.7272     0.47829E+01 
  37778.9894     0.48030E+01 
  37811.2515     0.48232E+01 
  37843.5137     0.48433E+01 
  37875.7758     0.48634E+01 
  37908.0380     0.48835E+01 
  37940.3002     0.49035E+01 
  37972.5623     0.49236E+01 
  38004.8245     0.49436E+01 
  38037.0866     0.49636E+01 
  38069.3488     0.49835E+01 
  38101.6110     0.50034E+01 
  38133.8731     0.50233E+01 
  38166.1353     0.50432E+01 
  38198.3974     0.50631E+01 
  38230.6596     0.50829E+01 
  38262.9218     0.51027E+01 
  38295.1839     0.51224E+01 
  38327.4461     0.51421E+01 
  38359.7082     0.51618E+01 
  38391.9704     0.51815E+01 
  38424.2326     0.52011E+01 
  38456.4947     0.52207E+01 
  38488.7569     0.52402E+01 
  38521.0190     0.52597E+01 
  38553.2812     0.52792E+01 
  38585.5434     0.52986E+01 
  38617.8055     0.53180E+01 
  38650.0677     0.53374E+01 
  38682.3298     0.53567E+01 
  38714.5920     0.53759E+01 
  38746.8542     0.53951E+01 
  38779.1163     0.54143E+01 
  38811.3785     0.54334E+01 
  38843.6406     0.54525E+01 
  38875.9028     0.54716E+01 
  38908.1650     0.54906E+01 
  38940.4271     0.55095E+01 
  38972.6893     0.55284E+01 
  39004.9514     0.55472E+01 
  39037.2136     0.55660E+01 
  39069.4758     0.55848E+01 
  39101.7379     0.56035E+01 
  39134.0001     0.56221E+01 
  39166.2622     0.56407E+01 
  39198.5244     0.56592E+01 
  39230.7866     0.56777E+01 
  39263.0487     0.56961E+01 
  39295.3109     0.57145E+01 
  39327.5730     0.57328E+01 
  39359.8352     0.57510E+01 
  39392.0974     0.57692E+01 
  39424.3595     0.57873E+01 
  39456.6217     0.58054E+01 
  39488.8838     0.58234E+01 
  39521.1460     0.58413E+01 
  39553.4082     0.58592E+01 
  39585.6703     0.58770E+01 
  39617.9325     0.58947E+01 
  39650.1946     0.59124E+01 
  39682.4568     0.59300E+01 
  39714.7190     0.59476E+01 
  39746.9811     0.59650E+01 
  39779.2433     0.59824E+01 
  39811.5054     0.59998E+01 
  39843.7676     0.60170E+01 
  39876.0298     0.60342E+01 
  39908.2919     0.60514E+01 
  39940.5541     0.60684E+01 
  39972.8162     0.60854E+01 
  40005.0784     0.61023E+01 
  40037.3406     0.61191E+01 
  40069.6027     0.61359E+01 
  40101.8649     0.61525E+01 
  40134.1270     0.61691E+01 
  40166.3892     0.61857E+01 
  40198.6514     0.62021E+01 
  40230.9135     0.62185E+01 
  40263.1757     0.62348E+01 
  40295.4378     0.62510E+01 
  40327.7000     0.62671E+01 
  40359.9622     0.62831E+01 
  40392.2243     0.62991E+01 
  40424.4865     0.63149E+01 
  40456.7486     0.63307E+01 
  40489.0108     0.63464E+01 
  40521.2730     0.63620E+01 
  40553.5351     0.63776E+01 
  40585.7973     0.63930E+01 
  40618.0594     0.64084E+01 
  40650.3216     0.64236E+01 
  40682.5838     0.64388E+01 
  40714.8459     0.64539E+01 
  40747.1081     0.64689E+01 
  40779.3702     0.64838E+01 
  40811.6324     0.64986E+01 
  40843.8946     0.65134E+01 
  40876.1567     0.65280E+01 
  40908.4189     0.65425E+01 
  40940.6810     0.65570E+01 
  40972.9432     0.65713E+01 
  41005.2054     0.65856E+01 
  41037.4675     0.65997E+01 
  41069.7297     0.66138E+01 
  41101.9918     0.66277E+01 
  41134.2540     0.66416E+01 
  41166.5162     0.66554E+01 
  41198.7783     0.66690E+01 
  41231.0405     0.66826E+01 
  41263.3026     0.66961E+01 
  41295.5648     0.67094E+01 
  41327.8270     0.67227E+01 
  41360.0891     0.67358E+01 
  41392.3513     0.67489E+01 
  41424.6134     0.67619E+01 
  41456.8756     0.67747E+01 
  41489.1378     0.67875E+01 
  41521.3999     0.68001E+01 
  41553.6621     0.68126E+01 
  41585.9242     0.68251E+01 
  41618.1864     0.68374E+01 
  41650.4486     0.68496E+01 
  41682.7107     0.68617E+01 
  41714.9729     0.68737E+01 
  41747.2350     0.68856E+01 
  41779.4972     0.68974E+01 
  41811.7594     0.69091E+01 
  41844.0215     0.69206E+01 
  41876.2837     0.69321E+01 
  41908.5458     0.69434E+01 
  41940.8080     0.69547E+01 
  41973.0702     0.69658E+01 
  42005.3323     0.69768E+01 
  42037.5945     0.69877E+01 
  42069.8566     0.69985E+01 
  42102.1188     0.70091E+01 
  42134.3810     0.70197E+01 
  42166.6431     0.70301E+01 
  42198.9053     0.70404E+01 
  42231.1674     0.70506E+01 
  42263.4296     0.70607E+01 
  42295.6918     0.70707E+01 
  42327.9539     0.70806E+01 
  42360.2161     0.70903E+01 
  42392.4782     0.70999E+01 
  42424.7404     0.71094E+01 
  42457.0026     0.71188E+01 
  42489.2647     0.71281E+01 
  42521.5269     0.71372E+01 
  42553.7890     0.71463E+01 
  42586.0512     0.71552E+01 
  42618.3134     0.71640E+01 
  42650.5755     0.71726E+01 
  42682.8377     0.71812E+01 
  42715.0998     0.71896E+01 
  42747.3620     0.71979E+01 
  42779.6242     0.72061E+01 
  42811.8863     0.72141E+01 
  42844.1485     0.72221E+01 
  42876.4106     0.72299E+01 
  42908.6728     0.72376E+01 
  42940.9350     0.72452E+01 
  42973.1971     0.72526E+01 
  43005.4593     0.72599E+01 
  43037.7214     0.72671E+01 
  43069.9836     0.72742E+01 
  43102.2458     0.72812E+01 
  43134.5079     0.72880E+01 
  43166.7701     0.72947E+01 
  43199.0322     0.73012E+01 
  43231.2944     0.73077E+01 
  43263.5566     0.73140E+01 
  43295.8187     0.73202E+01 
  43328.0809     0.73263E+01 
  43360.3430     0.73322E+01 
  43392.6052     0.73380E+01 
  43424.8674     0.73437E+01 
  43457.1295     0.73493E+01 
  43489.3917     0.73547E+01 
  43521.6538     0.73600E+01 
  43553.9160     0.73652E+01 
  43586.1782     0.73703E+01 
  43618.4403     0.73752E+01 
  43650.7025     0.73800E+01 
  43682.9646     0.73846E+01 
  43715.2268     0.73892E+01 
  43747.4890     0.73936E+01 
  43779.7511     0.73979E+01 
  43812.0133     0.74020E+01 
  43844.2754     0.74060E+01 
  43876.5376     0.74099E+01 
  43908.7998     0.74137E+01 
  43941.0619     0.74173E+01 
  43973.3241     0.74208E+01 
  44005.5862     0.74242E+01 
  44037.8484     0.74275E+01 
  44070.1106     0.74306E+01 
  44102.3727     0.74336E+01 
  44134.6349     0.74364E+01 
  44166.8970     0.74392E+01 
  44199.1592     0.74418E+01 
  44231.4214     0.74442E+01 
  44263.6835     0.74466E+01 
  44295.9457     0.74488E+01 
  44328.2078     0.74509E+01 
  44360.4700     0.74528E+01 
  44392.7322     0.74546E+01 
  44424.9943     0.74563E+01 
  44457.2565     0.74579E+01 
  44489.5186     0.74593E+01 
  44521.7808     0.74606E+01 
  44554.0430     0.74618E+01 
  44586.3051     0.74628E+01 
  44618.5673     0.74637E+01 
  44650.8294     0.74645E+01 
  44683.0916     0.74652E+01 
  44715.3538     0.74657E+01 
  44747.6159     0.74661E+01 
  44779.8781     0.74664E+01 
  44812.1402     0.74665E+01 
  44844.4024     0.74665E+01 
  44876.6646     0.74664E+01 
  44908.9267     0.74661E+01 
  44941.1889     0.74657E+01 
  44973.4510     0.74652E+01 
  45005.7132     0.74646E+01 
  45037.9754     0.74638E+01 
  45070.2375     0.74629E+01 
  45102.4997     0.74619E+01 
  45134.7618     0.74607E+01 
  45167.0240     0.74595E+01 
  45199.2862     0.74580E+01 
  45231.5483     0.74565E+01 
  45263.8105     0.74548E+01 
  45296.0726     0.74531E+01 
  45328.3348     0.74511E+01 
  45360.5970     0.74491E+01 
  45392.8591     0.74469E+01 
  45425.1213     0.74446E+01 
  45457.3834     0.74422E+01 
  45489.6456     0.74396E+01 
  45521.9078     0.74370E+01 
  45554.1699     0.74341E+01 
  45586.4321     0.74312E+01 
  45618.6942     0.74282E+01 
  45650.9564     0.74250E+01 
  45683.2186     0.74217E+01 
  45715.4807     0.74182E+01 
  45747.7429     0.74147E+01 
  45780.0050     0.74110E+01 
  45812.2672     0.74072E+01 
  45844.5294     0.74033E+01 
  45876.7915     0.73992E+01 
  45909.0537     0.73950E+01 
  45941.3158     0.73907E+01 
  45973.5780     0.73863E+01 
  46005.8402     0.73818E+01 
  46038.1023     0.73771E+01 
  46070.3645     0.73723E+01 
  46102.6266     0.73674E+01 
  46134.8888     0.73624E+01 
  46167.1510     0.73572E+01 
  46199.4131     0.73519E+01 
  46231.6753     0.73465E+01 
  46263.9374     0.73410E+01 
  46296.1996     0.73354E+01 
  46328.4618     0.73296E+01 
  46360.7239     0.73238E+01 
  46392.9861     0.73178E+01 
  46425.2482     0.73117E+01 
  46457.5104     0.73054E+01 
  46489.7726     0.72991E+01 
  46522.0347     0.72926E+01 
  46554.2969     0.72861E+01 
  46586.5590     0.72794E+01 
  46618.8212     0.72726E+01 
  46651.0834     0.72656E+01 
  46683.3455     0.72586E+01 
  46715.6077     0.72514E+01 
  46747.8698     0.72442E+01 
  46780.1320     0.72368E+01 
  46812.3942     0.72293E+01 
  46844.6563     0.72217E+01 
  46876.9185     0.72139E+01 
  46909.1806     0.72061E+01 
  46941.4428     0.71981E+01 
  46973.7050     0.71901E+01 
  47005.9671     0.71819E+01 
  47038.2293     0.71736E+01 
  47070.4914     0.71652E+01 
  47102.7536     0.71567E+01 
  47135.0158     0.71481E+01 
  47167.2779     0.71394E+01 
  47199.5401     0.71305E+01 
  47231.8022     0.71216E+01 
  47264.0644     0.71126E+01 
  47296.3266     0.71034E+01 
  47328.5887     0.70941E+01 
  47360.8509     0.70848E+01 
  47393.1130     0.70753E+01 
  47425.3752     0.70657E+01 
  47457.6374     0.70560E+01 
  47489.8995     0.70462E+01 
  47522.1617     0.70363E+01 
  47554.4238     0.70263E+01 
  47586.6860     0.70162E+01 
  47618.9482     0.70060E+01 
  47651.2103     0.69957E+01 
  47683.4725     0.69853E+01 
  47715.7346     0.69748E+01 
  47747.9968     0.69642E+01 
  47780.2590     0.69535E+01 
  47812.5211     0.69427E+01 
  47844.7833     0.69318E+01 
  47877.0454     0.69208E+01 
  47909.3076     0.69097E+01 
  47941.5698     0.68985E+01 
  47973.8319     0.68872E+01 
  48006.0941     0.68758E+01 
  48038.3562     0.68643E+01 
  48070.6184     0.68527E+01 
  48102.8806     0.68410E+01 
  48135.1427     0.68293E+01 
  48167.4049     0.68174E+01 
  48199.6670     0.68054E+01 
  48231.9292     0.67934E+01 
  48264.1914     0.67812E+01 
  48296.4535     0.67690E+01 
  48328.7157     0.67567E+01 
  48360.9778     0.67442E+01 
  48393.2400     0.67317E+01 
  48425.5022     0.67191E+01 
  48457.7643     0.67065E+01 
  48490.0265     0.66937E+01 
  48522.2886     0.66808E+01 
  48554.5508     0.66679E+01 
  48586.8130     0.66548E+01 
  48619.0751     0.66417E+01 
  48651.3373     0.66285E+01 
  48683.5994     0.66152E+01 
  48715.8616     0.66018E+01 
  48748.1238     0.65884E+01 
  48780.3859     0.65749E+01 
  48812.6481     0.65612E+01 
  48844.9102     0.65475E+01 
  48877.1724     0.65337E+01 
  48909.4346     0.65199E+01 
  48941.6967     0.65059E+01 
  48973.9589     0.64919E+01 
  49006.2210     0.64778E+01 
  49038.4832     0.64636E+01 
  49070.7454     0.64494E+01 
  49103.0075     0.64350E+01 
  49135.2697     0.64206E+01 
  49167.5318     0.64061E+01 
  49199.7940     0.63916E+01 
  49232.0562     0.63769E+01 
  49264.3183     0.63622E+01 
  49296.5805     0.63474E+01 
  49328.8426     0.63326E+01 
  49361.1048     0.63176E+01 
  49393.3670     0.63026E+01 
  49425.6291     0.62876E+01 
  49457.8913     0.62724E+01 
  49490.1534     0.62572E+01 
  49522.4156     0.62419E+01 
  49554.6778     0.62266E+01 
  49586.9399     0.62112E+01 
  49619.2021     0.61957E+01 
  49651.4642     0.61801E+01 
  49683.7264     0.61645E+01 
  49715.9886     0.61488E+01 
  49748.2507     0.61331E+01 
  49780.5129     0.61173E+01 
  49812.7750     0.61014E+01 
  49845.0372     0.60855E+01 
  49877.2994     0.60695E+01 
  49909.5615     0.60534E+01 
  49941.8237     0.60373E+01 
  49974.0858     0.60211E+01 
  50006.3480     0.60049E+01 
  50038.6102     0.59886E+01 
  50070.8723     0.59722E+01 
  50103.1345     0.59558E+01 
  50135.3966     0.59393E+01 
  50167.6588     0.59228E+01 
  50199.9210     0.59062E+01 
  50232.1831     0.58895E+01 
  50264.4453     0.58728E+01 
  50296.7074     0.58561E+01 
  50328.9696     0.58393E+01 
  50361.2318     0.58224E+01 
  50393.4939     0.58055E+01 
  50425.7561     0.57886E+01 
  50458.0182     0.57716E+01 
  50490.2804     0.57545E+01 
  50522.5426     0.57374E+01 
  50554.8047     0.57202E+01 
  50587.0669     0.57030E+01 
  50619.3290     0.56857E+01 
  50651.5912     0.56684E+01 
  50683.8534     0.56511E+01 
  50716.1155     0.56337E+01 
  50748.3777     0.56162E+01 
  50780.6398     0.55988E+01 
  50812.9020     0.55812E+01 
  50845.1642     0.55636E+01 
  50877.4263     0.55460E+01 
  50909.6885     0.55284E+01 
  50941.9506     0.55107E+01 
  50974.2128     0.54929E+01 
  51006.4750     0.54751E+01 
  51038.7371     0.54573E+01 
  51070.9993     0.54395E+01 
  51103.2614     0.54215E+01 
  51135.5236     0.54036E+01 
  51167.7858     0.53856E+01 
  51200.0479     0.53676E+01 
  51232.3101     0.53496E+01 
  51264.5722     0.53315E+01 
  51296.8344     0.53134E+01 
  51329.0966     0.52952E+01 
  51361.3587     0.52770E+01 
  51393.6209     0.52588E+01 
  51425.8830     0.52405E+01 
  51458.1452     0.52222E+01 
  51490.4074     0.52039E+01 
  51522.6695     0.51856E+01 
  51554.9317     0.51672E+01 
  51587.1938     0.51488E+01 
  51619.4560     0.51304E+01 
  51651.7182     0.51119E+01 
  51683.9803     0.50934E+01 
  51716.2425     0.50749E+01 
  51748.5046     0.50563E+01 
  51780.7668     0.50378E+01 
  51813.0290     0.50192E+01 
  51845.2911     0.50005E+01 
  51877.5533     0.49819E+01 
  51909.8154     0.49632E+01 
  51942.0776     0.49445E+01 
  51974.3398     0.49258E+01 
  52006.6019     0.49071E+01 
  52038.8641     0.48883E+01 
  52071.1262     0.48695E+01 
  52103.3884     0.48507E+01 
  52135.6506     0.48319E+01 
  52167.9127     0.48131E+01 
  52200.1749     0.47942E+01 
  52232.4370     0.47753E+01 
  52264.6992     0.47564E+01 
  52296.9614     0.47375E+01 
  52329.2235     0.47186E+01 
  52361.4857     0.46997E+01 
  52393.7478     0.46807E+01 
  52426.0100     0.46617E+01 
  52458.2722     0.46427E+01 
  52490.5343     0.46238E+01 
  52522.7965     0.46047E+01 
  52555.0586     0.45857E+01 
  52587.3208     0.45667E+01 
  52619.5830     0.45476E+01 
  52651.8451     0.45286E+01 
  52684.1073     0.45095E+01 
  52716.3694     0.44904E+01 
  52748.6316     0.44714E+01 
  52780.8938     0.44523E+01 
  52813.1559     0.44332E+01 
  52845.4181     0.44141E+01 
  52877.6802     0.43949E+01 
  52909.9424     0.43758E+01 
  52942.2046     0.43567E+01 
  52974.4667     0.43376E+01 
  53006.7289     0.43184E+01 
  53038.9910     0.42993E+01 
  53071.2532     0.42801E+01 
  53103.5154     0.42610E+01 
  53135.7775     0.42418E+01 
  53168.0397     0.42227E+01 
  53200.3018     0.42035E+01 
  53232.5640     0.41844E+01 
  53264.8262     0.41652E+01 
  53297.0883     0.41461E+01 
  53329.3505     0.41269E+01 
  53361.6126     0.41078E+01 
  53393.8748     0.40886E+01 
  53426.1370     0.40695E+01 
  53458.3991     0.40503E+01 
  53490.6613     0.40312E+01 
  53522.9234     0.40121E+01 
  53555.1856     0.39929E+01 
  53587.4478     0.39738E+01 
  53619.7099     0.39547E+01 
  53651.9721     0.39355E+01 
  53684.2342     0.39164E+01 
  53716.4964     0.38973E+01 
  53748.7586     0.38782E+01 
  53781.0207     0.38591E+01 
  53813.2829     0.38401E+01 
  53845.5450     0.38210E+01 
  53877.8072     0.38019E+01 
  53910.0694     0.37829E+01 
  53942.3315     0.37638E+01 
  53974.5937     0.37448E+01 
  54006.8558     0.37258E+01 
  54039.1180     0.37068E+01 
  54071.3802     0.36878E+01 
  54103.6423     0.36688E+01 
  54135.9045     0.36498E+01 
  54168.1666     0.36308E+01 
  54200.4288     0.36119E+01 
  54232.6910     0.35930E+01 
  54264.9531     0.35741E+01 
  54297.2153     0.35552E+01 
  54329.4774     0.35363E+01 
  54361.7396     0.35174E+01 
  54394.0018     0.34985E+01 
  54426.2639     0.34797E+01 
  54458.5261     0.34609E+01 
  54490.7882     0.34421E+01 
  54523.0504     0.34233E+01 
  54555.3126     0.34046E+01 
  54587.5747     0.33858E+01 
  54619.8369     0.33671E+01 
  54652.0990     0.33484E+01 
  54684.3612     0.33297E+01 
  54716.6234     0.33111E+01 
  54748.8855     0.32924E+01 
  54781.1477     0.32738E+01 
  54813.4098     0.32552E+01 
  54845.6720     0.32367E+01 
  54877.9342     0.32181E+01 
  54910.1963     0.31996E+01 
  54942.4585     0.31811E+01 
  54974.7206     0.31626E+01 
  55006.9828     0.31442E+01 
  55039.2450     0.31258E+01 
  55071.5071     0.31074E+01 
  55103.7693     0.30890E+01 
  55136.0314     0.30707E+01 
  55168.2936     0.30524E+01 
  55200.5558     0.30341E+01 
  55232.8179     0.30158E+01 
  55265.0801     0.29976E+01 
  55297.3422     0.29794E+01 
  55329.6044     0.29613E+01 
  55361.8666     0.29431E+01 
  55394.1287     0.29250E+01 
  55426.3909     0.29070E+01 
  55458.6530     0.28889E+01 
  55490.9152     0.28709E+01 
  55523.1774     0.28529E+01 
  55555.4395     0.28350E+01 
  55587.7017     0.28171E+01 
  55619.9638     0.27992E+01 
  55652.2260     0.27814E+01 
  55684.4882     0.27636E+01 
  55716.7503     0.27458E+01 
  55749.0125     0.27281E+01 
  55781.2746     0.27104E+01 
  55813.5368     0.26927E+01 
  55845.7990     0.26751E+01 
  55878.0611     0.26575E+01 
  55910.3233     0.26399E+01 
  55942.5854     0.26224E+01 
  55974.8476     0.26050E+01 
  56007.1098     0.25875E+01 
  56039.3719     0.25701E+01 
  56071.6341     0.25528E+01 
  56103.8962     0.25355E+01 
  56136.1584     0.25182E+01 
  56168.4206     0.25010E+01 
  56200.6827     0.24838E+01 
  56232.9449     0.24666E+01 
  56265.2070     0.24495E+01 
  56297.4692     0.24325E+01 
  56329.7314     0.24155E+01 
  56361.9935     0.23985E+01 
  56394.2557     0.23816E+01 
  56426.5178     0.23647E+01 
  56458.7800     0.23478E+01 
  56491.0422     0.23310E+01 
  56523.3043     0.23143E+01 
  56555.5665     0.22976E+01 
  56587.8286     0.22810E+01 
  56620.0908     0.22644E+01 
  56652.3530     0.22478E+01 
  56684.6151     0.22313E+01 
  56716.8773     0.22148E+01 
  56749.1394     0.21984E+01 
  56781.4016     0.21821E+01 
  56813.6638     0.21658E+01 
  56845.9259     0.21495E+01 
  56878.1881     0.21333E+01 
  56910.4502     0.21172E+01 
  56942.7124     0.21011E+01 
  56974.9746     0.20850E+01 
  57007.2367     0.20691E+01 
  57039.4989     0.20531E+01 
  57071.7610     0.20372E+01 
  57104.0232     0.20214E+01 
  57136.2854     0.20056E+01 
  57168.5475     0.19899E+01 
  57200.8097     0.19743E+01 
  57233.0718     0.19587E+01 
  57265.3340     0.19431E+01 
  57297.5962     0.19276E+01 
  57329.8583     0.19122E+01 
  57362.1205     0.18968E+01 
  57394.3826     0.18815E+01 
  57426.6448     0.18663E+01 
  57458.9070     0.18511E+01 
  57491.1691     0.18360E+01 
  57523.4313     0.18209E+01 
  57555.6934     0.18059E+01 
  57587.9556     0.17910E+01 
  57620.2178     0.17761E+01 
  57652.4799     0.17613E+01 
  57684.7421     0.17466E+01 
  57717.0042     0.17319E+01 
  57749.2664     0.17173E+01 
  57781.5286     0.17027E+01 
  57813.7907     0.16882E+01 
  57846.0529     0.16738E+01 
  57878.3150     0.16595E+01 
  57910.5772     0.16452E+01 
  57942.8394     0.16310E+01 
  57975.1015     0.16169E+01 
  58007.3637     0.16028E+01 
  58039.6258     0.15888E+01 
  58071.8880     0.15749E+01 
  58104.1502     0.15611E+01 
  58136.4123     0.15473E+01 
  58168.6745     0.15336E+01 
  58200.9366     0.15200E+01 
  58233.1988     0.15064E+01 
  58265.4610     0.14929E+01 
  58297.7231     0.14795E+01 
  58329.9853     0.14662E+01 
  58362.2474     0.14530E+01 
  58394.5096     0.14398E+01 
  58426.7718     0.14267E+01 
  58459.0339     0.14137E+01 
  58491.2961     0.14008E+01 
  58523.5582     0.13879E+01 
  58555.8204     0.13752E+01 
  58588.0826     0.13625E+01 
  58620.3447     0.13499E+01 
  58652.6069     0.13374E+01 
  58684.8690     0.13250E+01 
  58717.1312     0.13126E+01 
  58749.3934     0.13004E+01 
  58781.6555     0.12882E+01 
  58813.9177     0.12761E+01 
  58846.1798     0.12641E+01 
  58878.4420     0.12522E+01 
  58910.7042     0.12404E+01 
  58942.9663     0.12287E+01 
  58975.2285     0.12171E+01 
  59007.4906     0.12055E+01 
  59039.7528     0.11941E+01 
  59072.0150     0.11828E+01 
  59104.2771     0.11715E+01 
  59136.5393     0.11604E+01 
  59168.8014     0.11493E+01 
  59201.0636     0.11383E+01 
  59233.3258     0.11275E+01 
  59265.5879     0.11167E+01 
  59297.8501     0.11061E+01 
  59330.1122     0.10955E+01 
  59362.3744     0.10851E+01 
  59394.6366     0.10747E+01 
  59426.8987     0.10645E+01 
  59459.1609     0.10543E+01 
  59491.4230     0.10443E+01 
  59523.6852     0.10344E+01 
  59555.9474     0.10246E+01 
  59588.2095     0.10149E+01 
  59620.4717     0.10053E+01 
  59652.7338     0.99580E+00 
  59684.9960     0.98643E+00 
  59717.2582     0.97717E+00 
  59749.5203     0.96803E+00 
  59781.7825     0.95901E+00 
  59814.0446     0.95010E+00 
  59846.3068     0.94131E+00 
  59878.5690     0.93264E+00 
  59910.8311     0.92409E+00 
  59943.0933     0.91567E+00 
  59975.3554     0.90736E+00 
  60007.6176     0.89918E+00 
  60039.8798     0.89113E+00 
  60072.1419     0.88320E+00 
  60104.4041     0.87540E+00 
  60136.6662     0.86772E+00 
  60168.9284     0.86018E+00 
  60201.1906     0.85277E+00 
  60233.4527     0.84549E+00 
  60265.7149     0.83834E+00 
  60297.9770     0.83133E+00 
  60330.2392     0.82446E+00 
  60362.5014     0.81772E+00 
  60394.7635     0.81112E+00 
  60427.0257     0.80467E+00 
  60459.2878     0.79835E+00 
  60491.5500     0.79218E+00 
  60523.8122     0.78615E+00 
  60556.0743     0.78027E+00 
  60588.3365     0.77453E+00 
  60620.5986     0.76895E+00 
  60652.8608     0.76351E+00 
  60685.1230     0.75822E+00 
  60717.3851     0.75309E+00 
  60749.6473     0.74811E+00 
  60781.9094     0.74329E+00 
  60814.1716     0.73863E+00 
  60846.4338     0.73412E+00 
  60878.6959     0.72978E+00 
  60910.9581     0.72560E+00 
  60943.2202     0.72158E+00 
  60975.4824     0.71772E+00 
  61007.7446     0.71404E+00 
  61040.0067     0.71052E+00 
  61072.2689     0.70717E+00 
  61104.5310     0.70400E+00 
  61136.7932     0.70099E+00 
  61169.0554     0.69817E+00 
  61201.3175     0.69552E+00 
  61233.5797     0.69304E+00 
  61265.8418     0.69075E+00 
  61298.1040     0.68864E+00 
  61330.3662     0.68672E+00 
  61362.6283     0.68498E+00 
  61394.8905     0.68343E+00 
  61427.1526     0.68206E+00 
  61459.4148     0.68089E+00 
  61491.6770     0.67991E+00 
  61523.9391     0.67913E+00 
  61556.2013     0.67854E+00 
  61588.4634     0.67816E+00 
  61620.7256     0.67797E+00 
  61652.9878     0.67799E+00 
  61685.2499     0.67821E+00 
  61717.5121     0.67863E+00 
  61749.7742     0.67927E+00 
  61782.0364     0.68011E+00 
  61814.2986     0.68117E+00 
  61846.5607     0.68245E+00 
  61878.8229     0.68394E+00 
  61911.0850     0.68565E+00 
  61943.3472     0.68758E+00 
  61975.6094     0.68973E+00 
  62007.8715     0.69211E+00 
  62040.1337     0.69472E+00 
  62072.3958     0.69756E+00 
  62104.6580     0.70062E+00 
  62136.9202     0.70393E+00 
  62169.1823     0.70747E+00 
  62201.4445     0.71124E+00 
  62233.7066     0.71526E+00 
  62265.9688     0.71953E+00 
  62298.2310     0.72403E+00 
  62330.4931     0.72879E+00 
  62362.7553     0.73380E+00 
  62395.0174     0.73906E+00 
  62427.2796     0.74457E+00 
  62459.5418     0.75034E+00 
  62491.8039     0.75638E+00 
  62524.0661     0.76267E+00 
  62556.3282     0.76923E+00 
  62588.5904     0.77606E+00 
  62620.8526     0.78316E+00 
  62653.1147     0.79053E+00 
  62685.3769     0.79817E+00 
  62717.6390     0.80609E+00 
  62749.9012     0.81430E+00 
  62782.1634     0.82278E+00 
  62814.4255     0.83156E+00 
  62846.6877     0.84062E+00 
  62878.9498     0.84997E+00 
  62911.2120     0.85962E+00 
  62943.4742     0.86956E+00 
  62975.7363     0.87980E+00 
  63007.9985     0.89034E+00 
  63040.2606     0.90119E+00 
  63072.5228     0.91235E+00 
  63104.7850     0.92381E+00 
  63137.0471     0.93559E+00 
  63169.3093     0.94769E+00 
  63201.5714     0.96010E+00 
  63233.8336     0.97284E+00 
  63266.0958     0.98590E+00 
  63298.3579     0.99929E+00 
  63330.6201     0.10130E+01 
  63362.8822     0.10271E+01 
  63395.1444     0.10415E+01 
  63427.4066     0.10562E+01 
  63459.6687     0.10713E+01 
  63491.9309     0.10867E+01 
  63524.1930     0.11025E+01 
  63556.4552     0.11186E+01 
  63588.7174     0.11351E+01 
  63620.9795     0.11519E+01 
  63653.2417     0.11691E+01 
  63685.5038     0.11866E+01 
  63717.7660     0.12046E+01 
  63750.0282     0.12229E+01 
  63782.2903     0.12416E+01 
  63814.5525     0.12606E+01 
  63846.8146     0.12800E+01 
  63879.0768     0.12999E+01 
  63911.3390     0.13201E+01 
  63943.6011     0.13407E+01 
  63975.8633     0.13617E+01 
  64008.1254     0.13830E+01 
  64040.3876     0.14048E+01 
  64072.6498     0.14270E+01 
  64104.9119     0.14496E+01 
  64137.1741     0.14727E+01 
  64169.4362     0.14961E+01 
  64201.6984     0.15199E+01 
  64233.9606     0.15442E+01 
  64266.2227     0.15689E+01 
  64298.4849     0.15940E+01 
  64330.7470     0.16196E+01 
  64363.0092     0.16456E+01 
  64395.2714     0.16720E+01 
  64427.5335     0.16989E+01 
  64459.7957     0.17262E+01 
  64492.0578     0.17540E+01 
  64524.3200     0.17822E+01 
  64556.5822     0.18109E+01 
  64588.8443     0.18401E+01 
  64621.1065     0.18697E+01 
  64653.3686     0.18998E+01 
  64685.6308     0.19303E+01 
  64717.8930     0.19614E+01 
  64750.1551     0.19929E+01 
  64782.4173     0.20249E+01 
  64814.6794     0.20574E+01 
  64846.9416     0.20904E+01 
  64879.2038     0.21239E+01 
  64911.4659     0.21578E+01 
  64943.7281     0.21923E+01 
  64975.9902     0.22273E+01 
  65008.2524     0.22628E+01 
  65040.5146     0.22988E+01 
  65072.7767     0.23354E+01 
  65105.0389     0.23724E+01 
  65137.3010     0.24100E+01 
  65169.5632     0.24481E+01 
  65201.8254     0.24868E+01 
  65234.0875     0.25260E+01 
  65266.3497     0.25657E+01 
  65298.6118     0.26060E+01 
  65330.8740     0.26468E+01 
  65363.1362     0.26882E+01 
  65395.3983     0.27302E+01 
  65427.6605     0.27727E+01 
  65459.9226     0.28158E+01 
  65492.1848     0.28594E+01 
  65524.4470     0.29037E+01 
  65556.7091     0.29485E+01 
  65588.9713     0.29939E+01 
  65621.2334     0.30398E+01 
  65653.4956     0.30864E+01 
  65685.7578     0.31336E+01 
  65718.0199     0.31813E+01 
  65750.2821     0.32297E+01 
  65782.5442     0.32787E+01 
  65814.8064     0.33283E+01 
  65847.0686     0.33785E+01 
  65879.3307     0.34294E+01 
  65911.5929     0.34808E+01 
  65943.8550     0.35329E+01 
  65976.1172     0.35856E+01 
  66008.3794     0.36390E+01 
  66040.6415     0.36930E+01 
  66072.9037     0.37477E+01 
  66105.1658     0.38030E+01 
  66137.4280     0.38589E+01 
  66169.6902     0.39155E+01 
  66201.9523     0.39728E+01 
  66234.2145     0.40308E+01 
  66266.4766     0.40894E+01 
  66298.7388     0.41487E+01 
  66331.0010     0.42087E+01 
  66363.2631     0.42694E+01 
  66395.5253     0.43307E+01 
  66427.7874     0.43928E+01 
  66460.0496     0.44555E+01 
  66492.3118     0.45190E+01 
  66524.5739     0.45831E+01 
  66556.8361     0.46480E+01 
  66589.0982     0.47136E+01 
  66621.3604     0.47799E+01 
  66653.6226     0.48469E+01 
  66685.8847     0.49147E+01 
  66718.1469     0.49831E+01 
  66750.4090     0.50524E+01 
  66782.6712     0.51223E+01 
  66814.9334     0.51930E+01 
  66847.1955     0.52645E+01 
  66879.4577     0.53367E+01 
  66911.7198     0.54097E+01 
  66943.9820     0.54834E+01 
  66976.2442     0.55579E+01 
  67008.5063     0.56332E+01 
  67040.7685     0.57092E+01 
  67073.0306     0.57860E+01 
  67105.2928     0.58636E+01 
  67137.5550     0.59420E+01 
  67169.8171     0.60212E+01 
  67202.0793     0.61012E+01 
  67234.3414     0.61819E+01 
  67266.6036     0.62635E+01 
  67298.8658     0.63459E+01 
  67331.1279     0.64291E+01 
  67363.3901     0.65131E+01 
  67395.6522     0.65979E+01 
  67427.9144     0.66836E+01 
  67460.1766     0.67701E+01 
  67492.4387     0.68574E+01 
  67524.7009     0.69456E+01 
  67556.9630     0.70346E+01 
  67589.2252     0.71244E+01 
  67621.4874     0.72151E+01 
  67653.7495     0.73066E+01 
  67686.0117     0.73990E+01 
  67718.2738     0.74923E+01 
  67750.5360     0.75864E+01 
  67782.7982     0.76814E+01 
  67815.0603     0.77773E+01 
  67847.3225     0.78740E+01 
  67879.5846     0.79716E+01 
  67911.8468     0.80701E+01 
  67944.1090     0.81695E+01 
  67976.3711     0.82698E+01 
  68008.6333     0.83710E+01 
  68040.8954     0.84731E+01 
  68073.1576     0.85760E+01 
  68105.4198     0.86799E+01 
  68137.6819     0.87847E+01 
  68169.9441     0.88904E+01 
  68202.2062     0.89971E+01 
  68234.4684     0.91046E+01 
  68266.7306     0.92131E+01 
  68298.9927     0.93225E+01 
  68331.2549     0.94328E+01 
  68363.5170     0.95441E+01 
  68395.7792     0.96563E+01 
  68428.0414     0.97694E+01 
  68460.3035     0.98835E+01 
  68492.5657     0.99986E+01 
  68524.8278     0.10115E+02 
  68557.0900     0.10232E+02 
  68589.3522     0.10349E+02 
  68621.6143     0.10468E+02 
  68653.8765     0.10588E+02 
  68686.1386     0.10709E+02 
  68718.4008     0.10831E+02 
  68750.6630     0.10953E+02 
  68782.9251     0.11077E+02 
  68815.1873     0.11202E+02 
  68847.4494     0.11328E+02 
  68879.7116     0.11454E+02 
  68911.9738     0.11582E+02 
  68944.2359     0.11711E+02 
  68976.4981     0.11840E+02 
  69008.7602     0.11971E+02 
  69041.0224     0.12103E+02 
  69073.2846     0.12235E+02 
  69105.5467     0.12369E+02 
  69137.8089     0.12504E+02 
  69170.0710     0.12639E+02 
  69202.3332     0.12776E+02 
  69234.5954     0.12914E+02 
  69266.8575     0.13052E+02 
  69299.1197     0.13192E+02 
  69331.3818     0.13333E+02 
  69363.6440     0.13475E+02 
  69395.9062     0.13618E+02 
  69428.1683     0.13762E+02 
  69460.4305     0.13906E+02 
  69492.6926     0.14052E+02 
  69524.9548     0.14199E+02 
  69557.2170     0.14347E+02 
  69589.4791     0.14496E+02 
  69621.7413     0.14647E+02 
  69654.0034     0.14798E+02 
  69686.2656     0.14950E+02 
  69718.5278     0.15103E+02 
  69750.7899     0.15257E+02 
  69783.0521     0.15413E+02 
  69815.3142     0.15569E+02 
  69847.5764     0.15727E+02 
  69879.8386     0.15885E+02 
  69912.1007     0.16045E+02 
  69944.3629     0.16205E+02 
  69976.6250     0.16367E+02 
  70008.8872     0.16530E+02 
  70041.1494     0.16694E+02 
  70073.4115     0.16859E+02 
  70105.6737     0.17025E+02 
  70137.9358     0.17192E+02 
  70170.1980     0.17360E+02 
  70202.4602     0.17529E+02 
  70234.7223     0.17699E+02 
  70266.9845     0.17871E+02 
  70299.2466     0.18043E+02 
  70331.5088     0.18216E+02 
  70363.7710     0.18391E+02 
  70396.0331     0.18567E+02 
  70428.2953     0.18743E+02 
  70460.5574     0.18921E+02 
  70492.8196     0.19100E+02 
  70525.0818     0.19280E+02 
  70557.3439     0.19461E+02 
  70589.6061     0.19643E+02 
  70621.8682     0.19826E+02 
  70654.1304     0.20010E+02 
  70686.3926     0.20196E+02 
  70718.6547     0.20382E+02 
  70750.9169     0.20570E+02 
  70783.1790     0.20758E+02 
  70815.4412     0.20948E+02 
  70847.7034     0.21139E+02 
  70879.9655     0.21330E+02 
  70912.2277     0.21523E+02 
  70944.4898     0.21717E+02 
  70976.7520     0.21912E+02 
  71009.0142     0.22108E+02 
  71041.2763     0.22306E+02 
  71073.5385     0.22504E+02 
  71105.8006     0.22703E+02 
  71138.0628     0.22904E+02 
  71170.3250     0.23105E+02 
  71202.5871     0.23308E+02 
  71234.8493     0.23511E+02 
  71267.1114     0.23716E+02 
  71299.3736     0.23922E+02 
  71331.6358     0.24128E+02 
  71363.8979     0.24336E+02 
  71396.1601     0.24545E+02 
  71428.4222     0.24755E+02 
  71460.6844     0.24966E+02 
  71492.9466     0.25178E+02 
  71525.2087     0.25392E+02 
  71557.4709     0.25606E+02 
  71589.7330     0.25821E+02 
  71621.9952     0.26037E+02 
  71654.2574     0.26255E+02 
  71686.5195     0.26473E+02 
  71718.7817     0.26693E+02 
  71751.0438     0.26913E+02 
  71783.3060     0.27135E+02 
  71815.5682     0.27357E+02 
  71847.8303     0.27581E+02 
  71880.0925     0.27806E+02 
  71912.3546     0.28031E+02 
  71944.6168     0.28258E+02 
  71976.8790     0.28486E+02 
  72009.1411     0.28715E+02 
  72041.4033     0.28944E+02 
  72073.6654     0.29175E+02 
  72105.9276     0.29407E+02 
  72138.1898     0.29640E+02 
  72170.4519     0.29874E+02 
  72202.7141     0.30109E+02 
  72234.9762     0.30344E+02 
  72267.2384     0.30581E+02 
  72299.5006     0.30819E+02 
  72331.7627     0.31058E+02 
  72364.0249     0.31298E+02 
  72396.2870     0.31538E+02 
  72428.5492     0.31780E+02 
  72460.8114     0.32023E+02 
  72493.0735     0.32267E+02 
  72525.3357     0.32511E+02 
  72557.5978     0.32757E+02 
  72589.8600     0.33003E+02 
