  32262.1600     0.78941E-03 
  32294.4222     0.79465E-03 
  32326.6843     0.79991E-03 
  32358.9465     0.80520E-03 
  32391.2086     0.81050E-03 
  32423.4708     0.81582E-03 
  32455.7330     0.82116E-03 
  32487.9951     0.82652E-03 
  32520.2573     0.83190E-03 
  32552.5194     0.83730E-03 
  32584.7816     0.84271E-03 
  32617.0438     0.84815E-03 
  32649.3059     0.85360E-03 
  32681.5681     0.85908E-03 
  32713.8302     0.86457E-03 
  32746.0924     0.87008E-03 
  32778.3546     0.87561E-03 
  32810.6167     0.88116E-03 
  32842.8789     0.88673E-03 
  32875.1410     0.89232E-03 
  32907.4032     0.89792E-03 
  32939.6654     0.90355E-03 
  32971.9275     0.90919E-03 
  33004.1897     0.91485E-03 
  33036.4518     0.92053E-03 
  33068.7140     0.92622E-03 
  33100.9762     0.93194E-03 
  33133.2383     0.93767E-03 
  33165.5005     0.94342E-03 
  33197.7626     0.94919E-03 
  33230.0248     0.95497E-03 
  33262.2870     0.96078E-03 
  33294.5491     0.96660E-03 
  33326.8113     0.97244E-03 
  33359.0734     0.97829E-03 
  33391.3356     0.98417E-03 
  33423.5978     0.99006E-03 
  33455.8599     0.99596E-03 
  33488.1221     0.10019E-02 
  33520.3842     0.10078E-02 
  33552.6464     0.10138E-02 
  33584.9086     0.10198E-02 
  33617.1707     0.10258E-02 
  33649.4329     0.10318E-02 
  33681.6950     0.10378E-02 
  33713.9572     0.10438E-02 
  33746.2194     0.10499E-02 
  33778.4815     0.10560E-02 
  33810.7437     0.10620E-02 
  33843.0058     0.10682E-02 
  33875.2680     0.10743E-02 
  33907.5302     0.10804E-02 
  33939.7923     0.10866E-02 
  33972.0545     0.10927E-02 
  34004.3166     0.10989E-02 
  34036.5788     0.11051E-02 
  34068.8410     0.11113E-02 
  34101.1031     0.11176E-02 
  34133.3653     0.11238E-02 
  34165.6274     0.11301E-02 
  34197.8896     0.11363E-02 
  34230.1518     0.11426E-02 
  34262.4139     0.11489E-02 
  34294.6761     0.11552E-02 
  34326.9382     0.11616E-02 
  34359.2004     0.11679E-02 
  34391.4626     0.11743E-02 
  34423.7247     0.11806E-02 
  34455.9869     0.11870E-02 
  34488.2490     0.11934E-02 
  34520.5112     0.11999E-02 
  34552.7734     0.12063E-02 
  34585.0355     0.12127E-02 
  34617.2977     0.12192E-02 
  34649.5598     0.12256E-02 
  34681.8220     0.12321E-02 
  34714.0842     0.12386E-02 
  34746.3463     0.12451E-02 
  34778.6085     0.12516E-02 
  34810.8706     0.12582E-02 
  34843.1328     0.12647E-02 
  34875.3950     0.12713E-02 
  34907.6571     0.12778E-02 
  34939.9193     0.12844E-02 
  34972.1814     0.12910E-02 
  35004.4436     0.12976E-02 
  35036.7058     0.13042E-02 
  35068.9679     0.13108E-02 
  35101.2301     0.13175E-02 
  35133.4922     0.13241E-02 
  35165.7544     0.13308E-02 
  35198.0166     0.13375E-02 
  35230.2787     0.13441E-02 
  35262.5409     0.13508E-02 
  35294.8030     0.13575E-02 
  35327.0652     0.13642E-02 
  35359.3274     0.13709E-02 
  35391.5895     0.13777E-02 
  35423.8517     0.13844E-02 
  35456.1138     0.13912E-02 
  35488.3760     0.13979E-02 
  35520.6382     0.14047E-02 
  35552.9003     0.14115E-02 
  35585.1625     0.14183E-02 
  35617.4246     0.14250E-02 
  35649.6868     0.14318E-02 
  35681.9490     0.14387E-02 
  35714.2111     0.14455E-02 
  35746.4733     0.14523E-02 
  35778.7354     0.14591E-02 
  35810.9976     0.14660E-02 
  35843.2598     0.14728E-02 
  35875.5219     0.14797E-02 
  35907.7841     0.14866E-02 
  35940.0462     0.14934E-02 
  35972.3084     0.15003E-02 
  36004.5706     0.15072E-02 
  36036.8327     0.15141E-02 
  36069.0949     0.15210E-02 
  36101.3570     0.15279E-02 
  36133.6192     0.15348E-02 
  36165.8814     0.15417E-02 
  36198.1435     0.15486E-02 
  36230.4057     0.15556E-02 
  36262.6678     0.15625E-02 
  36294.9300     0.15695E-02 
  36327.1922     0.15764E-02 
  36359.4543     0.15833E-02 
  36391.7165     0.15903E-02 
  36423.9786     0.15973E-02 
  36456.2408     0.16042E-02 
  36488.5030     0.16112E-02 
  36520.7651     0.16182E-02 
  36553.0273     0.16251E-02 
  36585.2894     0.16321E-02 
  36617.5516     0.16391E-02 
  36649.8138     0.16461E-02 
  36682.0759     0.16531E-02 
  36714.3381     0.16601E-02 
  36746.6002     0.16671E-02 
  36778.8624     0.16741E-02 
  36811.1246     0.16811E-02 
  36843.3867     0.16881E-02 
  36875.6489     0.16951E-02 
  36907.9110     0.17021E-02 
  36940.1732     0.17091E-02 
  36972.4354     0.17161E-02 
  37004.6975     0.17231E-02 
  37036.9597     0.17301E-02 
  37069.2218     0.17371E-02 
  37101.4840     0.17441E-02 
  37133.7462     0.17512E-02 
  37166.0083     0.17582E-02 
  37198.2705     0.17652E-02 
  37230.5326     0.17722E-02 
  37262.7948     0.17792E-02 
  37295.0570     0.17862E-02 
  37327.3191     0.17933E-02 
  37359.5813     0.18003E-02 
  37391.8434     0.18073E-02 
  37424.1056     0.18143E-02 
  37456.3678     0.18213E-02 
  37488.6299     0.18283E-02 
  37520.8921     0.18353E-02 
  37553.1542     0.18423E-02 
  37585.4164     0.18493E-02 
  37617.6786     0.18563E-02 
  37649.9407     0.18633E-02 
  37682.2029     0.18703E-02 
  37714.4650     0.18773E-02 
  37746.7272     0.18843E-02 
  37778.9894     0.18913E-02 
  37811.2515     0.18983E-02 
  37843.5137     0.19052E-02 
  37875.7758     0.19122E-02 
  37908.0380     0.19192E-02 
  37940.3002     0.19262E-02 
  37972.5623     0.19331E-02 
  38004.8245     0.19401E-02 
  38037.0866     0.19470E-02 
  38069.3488     0.19540E-02 
  38101.6110     0.19609E-02 
  38133.8731     0.19679E-02 
  38166.1353     0.19748E-02 
  38198.3974     0.19817E-02 
  38230.6596     0.19886E-02 
  38262.9218     0.19955E-02 
  38295.1839     0.20024E-02 
  38327.4461     0.20093E-02 
  38359.7082     0.20162E-02 
  38391.9704     0.20231E-02 
  38424.2326     0.20300E-02 
  38456.4947     0.20369E-02 
  38488.7569     0.20437E-02 
  38521.0190     0.20506E-02 
  38553.2812     0.20574E-02 
  38585.5434     0.20643E-02 
  38617.8055     0.20711E-02 
  38650.0677     0.20779E-02 
  38682.3298     0.20848E-02 
  38714.5920     0.20916E-02 
  38746.8542     0.20984E-02 
  38779.1163     0.21051E-02 
  38811.3785     0.21119E-02 
  38843.6406     0.21187E-02 
  38875.9028     0.21254E-02 
  38908.1650     0.21322E-02 
  38940.4271     0.21389E-02 
  38972.6893     0.21456E-02 
  39004.9514     0.21524E-02 
  39037.2136     0.21591E-02 
  39069.4758     0.21658E-02 
  39101.7379     0.21724E-02 
  39134.0001     0.21791E-02 
  39166.2622     0.21858E-02 
  39198.5244     0.21924E-02 
  39230.7866     0.21990E-02 
  39263.0487     0.22057E-02 
  39295.3109     0.22123E-02 
  39327.5730     0.22189E-02 
  39359.8352     0.22255E-02 
  39392.0974     0.22320E-02 
  39424.3595     0.22386E-02 
  39456.6217     0.22451E-02 
  39488.8838     0.22517E-02 
  39521.1460     0.22582E-02 
  39553.4082     0.22647E-02 
  39585.6703     0.22712E-02 
  39617.9325     0.22776E-02 
  39650.1946     0.22841E-02 
  39682.4568     0.22905E-02 
  39714.7190     0.22969E-02 
  39746.9811     0.23034E-02 
  39779.2433     0.23098E-02 
  39811.5054     0.23161E-02 
  39843.7676     0.23225E-02 
  39876.0298     0.23288E-02 
  39908.2919     0.23352E-02 
  39940.5541     0.23415E-02 
  39972.8162     0.23478E-02 
  40005.0784     0.23541E-02 
  40037.3406     0.23603E-02 
  40069.6027     0.23666E-02 
  40101.8649     0.23728E-02 
  40134.1270     0.23790E-02 
  40166.3892     0.23852E-02 
  40198.6514     0.23914E-02 
  40230.9135     0.23975E-02 
  40263.1757     0.24037E-02 
  40295.4378     0.24098E-02 
  40327.7000     0.24159E-02 
  40359.9622     0.24220E-02 
  40392.2243     0.24280E-02 
  40424.4865     0.24341E-02 
  40456.7486     0.24401E-02 
  40489.0108     0.24461E-02 
  40521.2730     0.24521E-02 
  40553.5351     0.24581E-02 
  40585.7973     0.24640E-02 
  40618.0594     0.24699E-02 
  40650.3216     0.24758E-02 
  40682.5838     0.24817E-02 
  40714.8459     0.24876E-02 
  40747.1081     0.24934E-02 
  40779.3702     0.24992E-02 
  40811.6324     0.25050E-02 
  40843.8946     0.25108E-02 
  40876.1567     0.25166E-02 
  40908.4189     0.25223E-02 
  40940.6810     0.25280E-02 
  40972.9432     0.25337E-02 
  41005.2054     0.25393E-02 
  41037.4675     0.25450E-02 
  41069.7297     0.25506E-02 
  41101.9918     0.25562E-02 
  41134.2540     0.25618E-02 
  41166.5162     0.25673E-02 
  41198.7783     0.25728E-02 
  41231.0405     0.25783E-02 
  41263.3026     0.25838E-02 
  41295.5648     0.25893E-02 
  41327.8270     0.25947E-02 
  41360.0891     0.26001E-02 
  41392.3513     0.26055E-02 
  41424.6134     0.26108E-02 
  41456.8756     0.26161E-02 
  41489.1378     0.26214E-02 
  41521.3999     0.26267E-02 
  41553.6621     0.26320E-02 
  41585.9242     0.26372E-02 
  41618.1864     0.26424E-02 
  41650.4486     0.26476E-02 
  41682.7107     0.26527E-02 
  41714.9729     0.26578E-02 
  41747.2350     0.26629E-02 
  41779.4972     0.26680E-02 
  41811.7594     0.26730E-02 
  41844.0215     0.26781E-02 
  41876.2837     0.26830E-02 
  41908.5458     0.26880E-02 
  41940.8080     0.26929E-02 
  41973.0702     0.26978E-02 
  42005.3323     0.27027E-02 
  42037.5945     0.27076E-02 
  42069.8566     0.27124E-02 
  42102.1188     0.27172E-02 
  42134.3810     0.27219E-02 
  42166.6431     0.27267E-02 
  42198.9053     0.27314E-02 
  42231.1674     0.27360E-02 
  42263.4296     0.27407E-02 
  42295.6918     0.27453E-02 
  42327.9539     0.27499E-02 
  42360.2161     0.27545E-02 
  42392.4782     0.27590E-02 
  42424.7404     0.27635E-02 
  42457.0026     0.27680E-02 
  42489.2647     0.27724E-02 
  42521.5269     0.27768E-02 
  42553.7890     0.27812E-02 
  42586.0512     0.27856E-02 
  42618.3134     0.27899E-02 
  42650.5755     0.27942E-02 
  42682.8377     0.27984E-02 
  42715.0998     0.28027E-02 
  42747.3620     0.28068E-02 
  42779.6242     0.28110E-02 
  42811.8863     0.28151E-02 
  42844.1485     0.28192E-02 
  42876.4106     0.28233E-02 
  42908.6728     0.28274E-02 
  42940.9350     0.28314E-02 
  42973.1971     0.28353E-02 
  43005.4593     0.28393E-02 
  43037.7214     0.28432E-02 
  43069.9836     0.28471E-02 
  43102.2458     0.28509E-02 
  43134.5079     0.28547E-02 
  43166.7701     0.28585E-02 
  43199.0322     0.28623E-02 
  43231.2944     0.28660E-02 
  43263.5566     0.28697E-02 
  43295.8187     0.28733E-02 
  43328.0809     0.28769E-02 
  43360.3430     0.28805E-02 
  43392.6052     0.28841E-02 
  43424.8674     0.28876E-02 
  43457.1295     0.28911E-02 
  43489.3917     0.28945E-02 
  43521.6538     0.28979E-02 
  43553.9160     0.29013E-02 
  43586.1782     0.29047E-02 
  43618.4403     0.29080E-02 
  43650.7025     0.29113E-02 
  43682.9646     0.29145E-02 
  43715.2268     0.29177E-02 
  43747.4890     0.29209E-02 
  43779.7511     0.29240E-02 
  43812.0133     0.29271E-02 
  43844.2754     0.29302E-02 
  43876.5376     0.29332E-02 
  43908.7998     0.29362E-02 
  43941.0619     0.29392E-02 
  43973.3241     0.29421E-02 
  44005.5862     0.29450E-02 
  44037.8484     0.29479E-02 
  44070.1106     0.29507E-02 
  44102.3727     0.29535E-02 
  44134.6349     0.29563E-02 
  44166.8970     0.29590E-02 
  44199.1592     0.29617E-02 
  44231.4214     0.29643E-02 
  44263.6835     0.29669E-02 
  44295.9457     0.29695E-02 
  44328.2078     0.29720E-02 
  44360.4700     0.29745E-02 
  44392.7322     0.29770E-02 
  44424.9943     0.29794E-02 
  44457.2565     0.29818E-02 
  44489.5186     0.29842E-02 
  44521.7808     0.29865E-02 
  44554.0430     0.29888E-02 
  44586.3051     0.29910E-02 
  44618.5673     0.29932E-02 
  44650.8294     0.29954E-02 
  44683.0916     0.29976E-02 
  44715.3538     0.29997E-02 
  44747.6159     0.30017E-02 
  44779.8781     0.30037E-02 
  44812.1402     0.30057E-02 
  44844.4024     0.30077E-02 
  44876.6646     0.30096E-02 
  44908.9267     0.30115E-02 
  44941.1889     0.30133E-02 
  44973.4510     0.30151E-02 
  45005.7132     0.30169E-02 
  45037.9754     0.30186E-02 
  45070.2375     0.30203E-02 
  45102.4997     0.30220E-02 
  45134.7618     0.30236E-02 
  45167.0240     0.30252E-02 
  45199.2862     0.30267E-02 
  45231.5483     0.30282E-02 
  45263.8105     0.30297E-02 
  45296.0726     0.30311E-02 
  45328.3348     0.30325E-02 
  45360.5970     0.30338E-02 
  45392.8591     0.30351E-02 
  45425.1213     0.30364E-02 
  45457.3834     0.30377E-02 
  45489.6456     0.30389E-02 
  45521.9078     0.30400E-02 
  45554.1699     0.30411E-02 
  45586.4321     0.30422E-02 
  45618.6942     0.30433E-02 
  45650.9564     0.30443E-02 
  45683.2186     0.30453E-02 
  45715.4807     0.30462E-02 
  45747.7429     0.30471E-02 
  45780.0050     0.30479E-02 
  45812.2672     0.30488E-02 
  45844.5294     0.30495E-02 
  45876.7915     0.30503E-02 
  45909.0537     0.30510E-02 
  45941.3158     0.30517E-02 
  45973.5780     0.30523E-02 
  46005.8402     0.30529E-02 
  46038.1023     0.30534E-02 
  46070.3645     0.30539E-02 
  46102.6266     0.30544E-02 
  46134.8888     0.30549E-02 
  46167.1510     0.30553E-02 
  46199.4131     0.30556E-02 
  46231.6753     0.30559E-02 
  46263.9374     0.30562E-02 
  46296.1996     0.30565E-02 
  46328.4618     0.30567E-02 
  46360.7239     0.30569E-02 
  46392.9861     0.30570E-02 
  46425.2482     0.30571E-02 
  46457.5104     0.30571E-02 
  46489.7726     0.30571E-02 
  46522.0347     0.30571E-02 
  46554.2969     0.30571E-02 
  46586.5590     0.30570E-02 
  46618.8212     0.30568E-02 
  46651.0834     0.30567E-02 
  46683.3455     0.30564E-02 
  46715.6077     0.30562E-02 
  46747.8698     0.30559E-02 
  46780.1320     0.30556E-02 
  46812.3942     0.30552E-02 
  46844.6563     0.30548E-02 
  46876.9185     0.30544E-02 
  46909.1806     0.30539E-02 
  46941.4428     0.30534E-02 
  46973.7050     0.30528E-02 
  47005.9671     0.30522E-02 
  47038.2293     0.30516E-02 
  47070.4914     0.30509E-02 
  47102.7536     0.30502E-02 
  47135.0158     0.30495E-02 
  47167.2779     0.30487E-02 
  47199.5401     0.30479E-02 
  47231.8022     0.30470E-02 
  47264.0644     0.30461E-02 
  47296.3266     0.30452E-02 
  47328.5887     0.30442E-02 
  47360.8509     0.30432E-02 
  47393.1130     0.30422E-02 
  47425.3752     0.30411E-02 
  47457.6374     0.30400E-02 
  47489.8995     0.30388E-02 
  47522.1617     0.30376E-02 
  47554.4238     0.30364E-02 
  47586.6860     0.30351E-02 
  47618.9482     0.30338E-02 
  47651.2103     0.30325E-02 
  47683.4725     0.30311E-02 
  47715.7346     0.30297E-02 
  47747.9968     0.30282E-02 
  47780.2590     0.30267E-02 
  47812.5211     0.30252E-02 
  47844.7833     0.30237E-02 
  47877.0454     0.30221E-02 
  47909.3076     0.30204E-02 
  47941.5698     0.30187E-02 
  47973.8319     0.30170E-02 
  48006.0941     0.30153E-02 
  48038.3562     0.30135E-02 
  48070.6184     0.30117E-02 
  48102.8806     0.30098E-02 
  48135.1427     0.30079E-02 
  48167.4049     0.30060E-02 
  48199.6670     0.30041E-02 
  48231.9292     0.30021E-02 
  48264.1914     0.30000E-02 
  48296.4535     0.29980E-02 
  48328.7157     0.29959E-02 
  48360.9778     0.29937E-02 
  48393.2400     0.29915E-02 
  48425.5022     0.29893E-02 
  48457.7643     0.29871E-02 
  48490.0265     0.29848E-02 
  48522.2886     0.29825E-02 
  48554.5508     0.29801E-02 
  48586.8130     0.29777E-02 
  48619.0751     0.29753E-02 
  48651.3373     0.29729E-02 
  48683.5994     0.29704E-02 
  48715.8616     0.29678E-02 
  48748.1238     0.29653E-02 
  48780.3859     0.29627E-02 
  48812.6481     0.29601E-02 
  48844.9102     0.29574E-02 
  48877.1724     0.29547E-02 
  48909.4346     0.29520E-02 
  48941.6967     0.29492E-02 
  48973.9589     0.29464E-02 
  49006.2210     0.29436E-02 
  49038.4832     0.29407E-02 
  49070.7454     0.29378E-02 
  49103.0075     0.29349E-02 
  49135.2697     0.29319E-02 
  49167.5318     0.29289E-02 
  49199.7940     0.29259E-02 
  49232.0562     0.29228E-02 
  49264.3183     0.29197E-02 
  49296.5805     0.29166E-02 
  49328.8426     0.29134E-02 
  49361.1048     0.29102E-02 
  49393.3670     0.29070E-02 
  49425.6291     0.29037E-02 
  49457.8913     0.29004E-02 
  49490.1534     0.28971E-02 
  49522.4156     0.28938E-02 
  49554.6778     0.28904E-02 
  49586.9399     0.28869E-02 
  49619.2021     0.28835E-02 
  49651.4642     0.28800E-02 
  49683.7264     0.28765E-02 
  49715.9886     0.28729E-02 
  49748.2507     0.28694E-02 
  49780.5129     0.28658E-02 
  49812.7750     0.28621E-02 
  49845.0372     0.28585E-02 
  49877.2994     0.28548E-02 
  49909.5615     0.28510E-02 
  49941.8237     0.28473E-02 
  49974.0858     0.28435E-02 
  50006.3480     0.28397E-02 
  50038.6102     0.28358E-02 
  50070.8723     0.28319E-02 
  50103.1345     0.28280E-02 
  50135.3966     0.28241E-02 
  50167.6588     0.28201E-02 
  50199.9210     0.28161E-02 
  50232.1831     0.28121E-02 
  50264.4453     0.28080E-02 
  50296.7074     0.28039E-02 
  50328.9696     0.27998E-02 
  50361.2318     0.27957E-02 
  50393.4939     0.27915E-02 
  50425.7561     0.27873E-02 
  50458.0182     0.27831E-02 
  50490.2804     0.27788E-02 
  50522.5426     0.27746E-02 
  50554.8047     0.27703E-02 
  50587.0669     0.27659E-02 
  50619.3290     0.27616E-02 
  50651.5912     0.27572E-02 
  50683.8534     0.27528E-02 
  50716.1155     0.27483E-02 
  50748.3777     0.27438E-02 
  50780.6398     0.27394E-02 
  50812.9020     0.27348E-02 
  50845.1642     0.27303E-02 
  50877.4263     0.27257E-02 
  50909.6885     0.27211E-02 
  50941.9506     0.27165E-02 
  50974.2128     0.27118E-02 
  51006.4750     0.27072E-02 
  51038.7371     0.27025E-02 
  51070.9993     0.26977E-02 
  51103.2614     0.26930E-02 
  51135.5236     0.26882E-02 
  51167.7858     0.26834E-02 
  51200.0479     0.26786E-02 
  51232.3101     0.26737E-02 
  51264.5722     0.26689E-02 
  51296.8344     0.26640E-02 
  51329.0966     0.26591E-02 
  51361.3587     0.26541E-02 
  51393.6209     0.26492E-02 
  51425.8830     0.26442E-02 
  51458.1452     0.26392E-02 
  51490.4074     0.26341E-02 
  51522.6695     0.26291E-02 
  51554.9317     0.26240E-02 
  51587.1938     0.26189E-02 
  51619.4560     0.26138E-02 
  51651.7182     0.26086E-02 
  51683.9803     0.26035E-02 
  51716.2425     0.25983E-02 
  51748.5046     0.25931E-02 
  51780.7668     0.25879E-02 
  51813.0290     0.25826E-02 
  51845.2911     0.25774E-02 
  51877.5533     0.25721E-02 
  51909.8154     0.25668E-02 
  51942.0776     0.25614E-02 
  51974.3398     0.25561E-02 
  52006.6019     0.25507E-02 
  52038.8641     0.25454E-02 
  52071.1262     0.25400E-02 
  52103.3884     0.25345E-02 
  52135.6506     0.25291E-02 
  52167.9127     0.25236E-02 
  52200.1749     0.25182E-02 
  52232.4370     0.25127E-02 
  52264.6992     0.25072E-02 
  52296.9614     0.25016E-02 
  52329.2235     0.24961E-02 
  52361.4857     0.24905E-02 
  52393.7478     0.24849E-02 
  52426.0100     0.24794E-02 
  52458.2722     0.24737E-02 
  52490.5343     0.24681E-02 
  52522.7965     0.24625E-02 
  52555.0586     0.24568E-02 
  52587.3208     0.24511E-02 
  52619.5830     0.24454E-02 
  52651.8451     0.24397E-02 
  52684.1073     0.24340E-02 
  52716.3694     0.24283E-02 
  52748.6316     0.24225E-02 
  52780.8938     0.24168E-02 
  52813.1559     0.24110E-02 
  52845.4181     0.24052E-02 
  52877.6802     0.23994E-02 
  52909.9424     0.23936E-02 
  52942.2046     0.23878E-02 
  52974.4667     0.23819E-02 
  53006.7289     0.23761E-02 
  53038.9910     0.23702E-02 
  53071.2532     0.23643E-02 
  53103.5154     0.23585E-02 
  53135.7775     0.23526E-02 
  53168.0397     0.23466E-02 
  53200.3018     0.23407E-02 
  53232.5640     0.23348E-02 
  53264.8262     0.23289E-02 
  53297.0883     0.23229E-02 
  53329.3505     0.23169E-02 
  53361.6126     0.23110E-02 
  53393.8748     0.23050E-02 
  53426.1370     0.22990E-02 
  53458.3991     0.22930E-02 
  53490.6613     0.22870E-02 
  53522.9234     0.22810E-02 
  53555.1856     0.22750E-02 
  53587.4478     0.22689E-02 
  53619.7099     0.22629E-02 
  53651.9721     0.22569E-02 
  53684.2342     0.22508E-02 
  53716.4964     0.22448E-02 
  53748.7586     0.22387E-02 
  53781.0207     0.22326E-02 
  53813.2829     0.22266E-02 
  53845.5450     0.22205E-02 
  53877.8072     0.22144E-02 
  53910.0694     0.22083E-02 
  53942.3315     0.22022E-02 
  53974.5937     0.21961E-02 
  54006.8558     0.21900E-02 
  54039.1180     0.21839E-02 
  54071.3802     0.21778E-02 
  54103.6423     0.21717E-02 
  54135.9045     0.21656E-02 
  54168.1666     0.21595E-02 
  54200.4288     0.21534E-02 
  54232.6910     0.21473E-02 
  54264.9531     0.21411E-02 
  54297.2153     0.21350E-02 
  54329.4774     0.21289E-02 
  54361.7396     0.21228E-02 
  54394.0018     0.21167E-02 
  54426.2639     0.21105E-02 
  54458.5261     0.21044E-02 
  54490.7882     0.20983E-02 
  54523.0504     0.20922E-02 
  54555.3126     0.20861E-02 
  54587.5747     0.20799E-02 
  54619.8369     0.20738E-02 
  54652.0990     0.20677E-02 
  54684.3612     0.20616E-02 
  54716.6234     0.20555E-02 
  54748.8855     0.20494E-02 
  54781.1477     0.20433E-02 
  54813.4098     0.20372E-02 
  54845.6720     0.20311E-02 
  54877.9342     0.20251E-02 
  54910.1963     0.20190E-02 
  54942.4585     0.20129E-02 
  54974.7206     0.20068E-02 
  55006.9828     0.20008E-02 
  55039.2450     0.19947E-02 
  55071.5071     0.19887E-02 
  55103.7693     0.19826E-02 
  55136.0314     0.19766E-02 
  55168.2936     0.19706E-02 
  55200.5558     0.19646E-02 
  55232.8179     0.19586E-02 
  55265.0801     0.19526E-02 
  55297.3422     0.19466E-02 
  55329.6044     0.19406E-02 
  55361.8666     0.19346E-02 
  55394.1287     0.19287E-02 
  55426.3909     0.19227E-02 
  55458.6530     0.19168E-02 
  55490.9152     0.19109E-02 
  55523.1774     0.19050E-02 
  55555.4395     0.18991E-02 
  55587.7017     0.18932E-02 
  55619.9638     0.18873E-02 
  55652.2260     0.18815E-02 
  55684.4882     0.18756E-02 
  55716.7503     0.18698E-02 
  55749.0125     0.18640E-02 
  55781.2746     0.18582E-02 
  55813.5368     0.18524E-02 
  55845.7990     0.18467E-02 
  55878.0611     0.18409E-02 
  55910.3233     0.18352E-02 
  55942.5854     0.18295E-02 
  55974.8476     0.18238E-02 
  56007.1098     0.18181E-02 
  56039.3719     0.18125E-02 
  56071.6341     0.18068E-02 
  56103.8962     0.18012E-02 
  56136.1584     0.17956E-02 
  56168.4206     0.17900E-02 
  56200.6827     0.17845E-02 
  56232.9449     0.17790E-02 
  56265.2070     0.17735E-02 
  56297.4692     0.17680E-02 
  56329.7314     0.17625E-02 
  56361.9935     0.17571E-02 
  56394.2557     0.17516E-02 
  56426.5178     0.17462E-02 
  56458.7800     0.17409E-02 
  56491.0422     0.17355E-02 
  56523.3043     0.17302E-02 
  56555.5665     0.17249E-02 
  56587.8286     0.17197E-02 
  56620.0908     0.17144E-02 
  56652.3530     0.17092E-02 
  56684.6151     0.17040E-02 
  56716.8773     0.16989E-02 
  56749.1394     0.16937E-02 
  56781.4016     0.16887E-02 
  56813.6638     0.16836E-02 
  56845.9259     0.16786E-02 
  56878.1881     0.16735E-02 
  56910.4502     0.16686E-02 
  56942.7124     0.16636E-02 
  56974.9746     0.16587E-02 
  57007.2367     0.16539E-02 
  57039.4989     0.16490E-02 
  57071.7610     0.16442E-02 
  57104.0232     0.16394E-02 
  57136.2854     0.16347E-02 
  57168.5475     0.16300E-02 
  57200.8097     0.16253E-02 
  57233.0718     0.16207E-02 
  57265.3340     0.16161E-02 
  57297.5962     0.16116E-02 
  57329.8583     0.16070E-02 
  57362.1205     0.16026E-02 
  57394.3826     0.15981E-02 
  57426.6448     0.15937E-02 
  57458.9070     0.15894E-02 
  57491.1691     0.15851E-02 
  57523.4313     0.15808E-02 
  57555.6934     0.15766E-02 
  57587.9556     0.15724E-02 
  57620.2178     0.15682E-02 
  57652.4799     0.15641E-02 
  57684.7421     0.15601E-02 
  57717.0042     0.15561E-02 
  57749.2664     0.15521E-02 
  57781.5286     0.15482E-02 
  57813.7907     0.15443E-02 
  57846.0529     0.15405E-02 
  57878.3150     0.15367E-02 
  57910.5772     0.15330E-02 
  57942.8394     0.15293E-02 
  57975.1015     0.15257E-02 
  58007.3637     0.15221E-02 
  58039.6258     0.15186E-02 
  58071.8880     0.15151E-02 
  58104.1502     0.15117E-02 
  58136.4123     0.15083E-02 
  58168.6745     0.15050E-02 
  58200.9366     0.15017E-02 
  58233.1988     0.14985E-02 
  58265.4610     0.14954E-02 
  58297.7231     0.14923E-02 
  58329.9853     0.14893E-02 
  58362.2474     0.14863E-02 
  58394.5096     0.14834E-02 
  58426.7718     0.14805E-02 
  58459.0339     0.14777E-02 
  58491.2961     0.14749E-02 
  58523.5582     0.14723E-02 
  58555.8204     0.14696E-02 
  58588.0826     0.14671E-02 
  58620.3447     0.14646E-02 
  58652.6069     0.14622E-02 
  58684.8690     0.14598E-02 
  58717.1312     0.14575E-02 
  58749.3934     0.14552E-02 
  58781.6555     0.14531E-02 
  58813.9177     0.14510E-02 
  58846.1798     0.14489E-02 
  58878.4420     0.14470E-02 
  58910.7042     0.14451E-02 
  58942.9663     0.14432E-02 
  58975.2285     0.14415E-02 
  59007.4906     0.14398E-02 
  59039.7528     0.14382E-02 
  59072.0150     0.14366E-02 
  59104.2771     0.14351E-02 
  59136.5393     0.14337E-02 
  59168.8014     0.14324E-02 
  59201.0636     0.14312E-02 
  59233.3258     0.14300E-02 
  59265.5879     0.14289E-02 
  59297.8501     0.14279E-02 
  59330.1122     0.14270E-02 
  59362.3744     0.14261E-02 
  59394.6366     0.14253E-02 
  59426.8987     0.14246E-02 
  59459.1609     0.14240E-02 
  59491.4230     0.14235E-02 
  59523.6852     0.14230E-02 
  59555.9474     0.14226E-02 
  59588.2095     0.14224E-02 
  59620.4717     0.14222E-02 
  59652.7338     0.14221E-02 
  59684.9960     0.14220E-02 
  59717.2582     0.14221E-02 
  59749.5203     0.14223E-02 
  59781.7825     0.14225E-02 
  59814.0446     0.14228E-02 
  59846.3068     0.14232E-02 
  59878.5690     0.14238E-02 
  59910.8311     0.14244E-02 
  59943.0933     0.14251E-02 
  59975.3554     0.14259E-02 
  60007.6176     0.14268E-02 
  60039.8798     0.14277E-02 
  60072.1419     0.14288E-02 
  60104.4041     0.14300E-02 
  60136.6662     0.14313E-02 
  60168.9284     0.14327E-02 
  60201.1906     0.14341E-02 
  60233.4527     0.14357E-02 
  60265.7149     0.14374E-02 
  60297.9770     0.14392E-02 
  60330.2392     0.14411E-02 
  60362.5014     0.14430E-02 
  60394.7635     0.14451E-02 
  60427.0257     0.14473E-02 
  60459.2878     0.14497E-02 
  60491.5500     0.14521E-02 
  60523.8122     0.14546E-02 
  60556.0743     0.14572E-02 
  60588.3365     0.14600E-02 
  60620.5986     0.14628E-02 
  60652.8608     0.14658E-02 
  60685.1230     0.14689E-02 
  60717.3851     0.14721E-02 
  60749.6473     0.14754E-02 
  60781.9094     0.14788E-02 
  60814.1716     0.14823E-02 
  60846.4338     0.14860E-02 
  60878.6959     0.14898E-02 
  60910.9581     0.14937E-02 
  60943.2202     0.14977E-02 
  60975.4824     0.15018E-02 
  61007.7446     0.15061E-02 
  61040.0067     0.15105E-02 
  61072.2689     0.15150E-02 
  61104.5310     0.15196E-02 
  61136.7932     0.15244E-02 
  61169.0554     0.15293E-02 
  61201.3175     0.15343E-02 
  61233.5797     0.15394E-02 
  61265.8418     0.15447E-02 
  61298.1040     0.15501E-02 
  61330.3662     0.15556E-02 
  61362.6283     0.15613E-02 
  61394.8905     0.15671E-02 
  61427.1526     0.15730E-02 
  61459.4148     0.15791E-02 
  61491.6770     0.15853E-02 
  61523.9391     0.15916E-02 
  61556.2013     0.15981E-02 
  61588.4634     0.16047E-02 
  61620.7256     0.16114E-02 
  61652.9878     0.16183E-02 
  61685.2499     0.16254E-02 
  61717.5121     0.16326E-02 
  61749.7742     0.16399E-02 
  61782.0364     0.16474E-02 
  61814.2986     0.16550E-02 
  61846.5607     0.16627E-02 
  61878.8229     0.16706E-02 
  61911.0850     0.16787E-02 
  61943.3472     0.16869E-02 
  61975.6094     0.16953E-02 
  62007.8715     0.17038E-02 
  62040.1337     0.17124E-02 
  62072.3958     0.17213E-02 
  62104.6580     0.17302E-02 
  62136.9202     0.17393E-02 
  62169.1823     0.17486E-02 
  62201.4445     0.17581E-02 
  62233.7066     0.17677E-02 
  62265.9688     0.17774E-02 
  62298.2310     0.17873E-02 
  62330.4931     0.17974E-02 
  62362.7553     0.18077E-02 
  62395.0174     0.18181E-02 
  62427.2796     0.18286E-02 
  62459.5418     0.18394E-02 
  62491.8039     0.18503E-02 
  62524.0661     0.18614E-02 
  62556.3282     0.18726E-02 
  62588.5904     0.18840E-02 
  62620.8526     0.18956E-02 
  62653.1147     0.19073E-02 
  62685.3769     0.19193E-02 
  62717.6390     0.19314E-02 
  62749.9012     0.19436E-02 
  62782.1634     0.19561E-02 
  62814.4255     0.19687E-02 
  62846.6877     0.19815E-02 
  62878.9498     0.19945E-02 
  62911.2120     0.20077E-02 
  62943.4742     0.20210E-02 
  62975.7363     0.20345E-02 
  63007.9985     0.20482E-02 
  63040.2606     0.20621E-02 
  63072.5228     0.20762E-02 
  63104.7850     0.20904E-02 
  63137.0471     0.21049E-02 
  63169.3093     0.21195E-02 
  63201.5714     0.21344E-02 
  63233.8336     0.21494E-02 
  63266.0958     0.21646E-02 
  63298.3579     0.21800E-02 
  63330.6201     0.21956E-02 
  63362.8822     0.22113E-02 
  63395.1444     0.22273E-02 
  63427.4066     0.22435E-02 
  63459.6687     0.22599E-02 
  63491.9309     0.22764E-02 
  63524.1930     0.22932E-02 
  63556.4552     0.23102E-02 
  63588.7174     0.23273E-02 
  63620.9795     0.23447E-02 
  63653.2417     0.23623E-02 
  63685.5038     0.23801E-02 
  63717.7660     0.23981E-02 
  63750.0282     0.24163E-02 
  63782.2903     0.24347E-02 
  63814.5525     0.24533E-02 
  63846.8146     0.24721E-02 
  63879.0768     0.24911E-02 
  63911.3390     0.25103E-02 
  63943.6011     0.25298E-02 
  63975.8633     0.25494E-02 
  64008.1254     0.25693E-02 
  64040.3876     0.25894E-02 
  64072.6498     0.26097E-02 
  64104.9119     0.26302E-02 
  64137.1741     0.26510E-02 
  64169.4362     0.26720E-02 
  64201.6984     0.26931E-02 
  64233.9606     0.27145E-02 
  64266.2227     0.27362E-02 
  64298.4849     0.27580E-02 
  64330.7470     0.27801E-02 
  64363.0092     0.28024E-02 
  64395.2714     0.28249E-02 
  64427.5335     0.28477E-02 
  64459.7957     0.28706E-02 
  64492.0578     0.28938E-02 
  64524.3200     0.29173E-02 
  64556.5822     0.29409E-02 
  64588.8443     0.29648E-02 
  64621.1065     0.29890E-02 
  64653.3686     0.30133E-02 
  64685.6308     0.30379E-02 
  64717.8930     0.30628E-02 
  64750.1551     0.30878E-02 
  64782.4173     0.31132E-02 
  64814.6794     0.31387E-02 
  64846.9416     0.31645E-02 
  64879.2038     0.31905E-02 
  64911.4659     0.32168E-02 
  64943.7281     0.32433E-02 
  64975.9902     0.32700E-02 
  65008.2524     0.32970E-02 
  65040.5146     0.33243E-02 
  65072.7767     0.33518E-02 
  65105.0389     0.33795E-02 
  65137.3010     0.34075E-02 
  65169.5632     0.34357E-02 
  65201.8254     0.34642E-02 
  65234.0875     0.34929E-02 
  65266.3497     0.35219E-02 
  65298.6118     0.35511E-02 
  65330.8740     0.35806E-02 
  65363.1362     0.36103E-02 
  65395.3983     0.36403E-02 
  65427.6605     0.36706E-02 
  65459.9226     0.37011E-02 
  65492.1848     0.37318E-02 
  65524.4470     0.37629E-02 
  65556.7091     0.37941E-02 
  65588.9713     0.38257E-02 
  65621.2334     0.38575E-02 
  65653.4956     0.38895E-02 
  65685.7578     0.39218E-02 
  65718.0199     0.39544E-02 
  65750.2821     0.39873E-02 
  65782.5442     0.40204E-02 
  65814.8064     0.40537E-02 
  65847.0686     0.40874E-02 
  65879.3307     0.41213E-02 
  65911.5929     0.41555E-02 
  65943.8550     0.41899E-02 
  65976.1172     0.42246E-02 
  66008.3794     0.42596E-02 
  66040.6415     0.42948E-02 
  66072.9037     0.43304E-02 
  66105.1658     0.43662E-02 
  66137.4280     0.44022E-02 
  66169.6902     0.44386E-02 
  66201.9523     0.44752E-02 
  66234.2145     0.45121E-02 
  66266.4766     0.45492E-02 
  66298.7388     0.45867E-02 
  66331.0010     0.46244E-02 
  66363.2631     0.46624E-02 
  66395.5253     0.47006E-02 
  66427.7874     0.47392E-02 
  66460.0496     0.47780E-02 
  66492.3118     0.48171E-02 
  66524.5739     0.48565E-02 
  66556.8361     0.48962E-02 
  66589.0982     0.49361E-02 
  66621.3604     0.49763E-02 
  66653.6226     0.50169E-02 
  66685.8847     0.50577E-02 
  66718.1469     0.50987E-02 
  66750.4090     0.51401E-02 
  66782.6712     0.51818E-02 
  66814.9334     0.52237E-02 
  66847.1955     0.52659E-02 
  66879.4577     0.53084E-02 
  66911.7198     0.53512E-02 
  66943.9820     0.53943E-02 
  66976.2442     0.54377E-02 
  67008.5063     0.54813E-02 
  67040.7685     0.55253E-02 
  67073.0306     0.55695E-02 
  67105.2928     0.56141E-02 
  67137.5550     0.56589E-02 
  67169.8171     0.57040E-02 
  67202.0793     0.57494E-02 
  67234.3414     0.57951E-02 
  67266.6036     0.58411E-02 
  67298.8658     0.58874E-02 
  67331.1279     0.59340E-02 
  67363.3901     0.59808E-02 
  67395.6522     0.60280E-02 
  67427.9144     0.60755E-02 
  67460.1766     0.61232E-02 
  67492.4387     0.61713E-02 
  67524.7009     0.62196E-02 
  67556.9630     0.62683E-02 
  67589.2252     0.63172E-02 
  67621.4874     0.63664E-02 
  67653.7495     0.64160E-02 
  67686.0117     0.64658E-02 
  67718.2738     0.65159E-02 
  67750.5360     0.65663E-02 
  67782.7982     0.66170E-02 
  67815.0603     0.66681E-02 
  67847.3225     0.67194E-02 
  67879.5846     0.67710E-02 
  67911.8468     0.68229E-02 
  67944.1090     0.68751E-02 
  67976.3711     0.69276E-02 
  68008.6333     0.69805E-02 
  68040.8954     0.70336E-02 
  68073.1576     0.70870E-02 
  68105.4198     0.71407E-02 
  68137.6819     0.71947E-02 
  68169.9441     0.72490E-02 
  68202.2062     0.73036E-02 
  68234.4684     0.73585E-02 
  68266.7306     0.74138E-02 
  68298.9927     0.74693E-02 
  68331.2549     0.75251E-02 
  68363.5170     0.75812E-02 
  68395.7792     0.76376E-02 
  68428.0414     0.76943E-02 
  68460.3035     0.77513E-02 
  68492.5657     0.78087E-02 
  68524.8278     0.78663E-02 
  68557.0900     0.79242E-02 
  68589.3522     0.79824E-02 
  68621.6143     0.80409E-02 
  68653.8765     0.80998E-02 
  68686.1386     0.81589E-02 
  68718.4008     0.82183E-02 
  68750.6630     0.82780E-02 
  68782.9251     0.83380E-02 
  68815.1873     0.83984E-02 
  68847.4494     0.84590E-02 
  68879.7116     0.85199E-02 
  68911.9738     0.85811E-02 
  68944.2359     0.86426E-02 
  68976.4981     0.87045E-02 
  69008.7602     0.87666E-02 
  69041.0224     0.88290E-02 
  69073.2846     0.88917E-02 
  69105.5467     0.89547E-02 
  69137.8089     0.90180E-02 
  69170.0710     0.90816E-02 
  69202.3332     0.91456E-02 
  69234.5954     0.92098E-02 
  69266.8575     0.92743E-02 
  69299.1197     0.93391E-02 
  69331.3818     0.94041E-02 
  69363.6440     0.94695E-02 
  69395.9062     0.95352E-02 
  69428.1683     0.96012E-02 
  69460.4305     0.96675E-02 
  69492.6926     0.97340E-02 
  69524.9548     0.98009E-02 
  69557.2170     0.98681E-02 
  69589.4791     0.99355E-02 
  69621.7413     0.10003E-01 
  69654.0034     0.10071E-01 
  69686.2656     0.10140E-01 
  69718.5278     0.10208E-01 
  69750.7899     0.10277E-01 
  69783.0521     0.10346E-01 
  69815.3142     0.10416E-01 
  69847.5764     0.10486E-01 
  69879.8386     0.10556E-01 
  69912.1007     0.10626E-01 
  69944.3629     0.10697E-01 
  69976.6250     0.10768E-01 
  70008.8872     0.10839E-01 
  70041.1494     0.10910E-01 
  70073.4115     0.10982E-01 
  70105.6737     0.11054E-01 
  70137.9358     0.11126E-01 
  70170.1980     0.11199E-01 
  70202.4602     0.11272E-01 
  70234.7223     0.11345E-01 
  70266.9845     0.11419E-01 
  70299.2466     0.11492E-01 
  70331.5088     0.11566E-01 
  70363.7710     0.11641E-01 
  70396.0331     0.11715E-01 
  70428.2953     0.11790E-01 
  70460.5574     0.11865E-01 
  70492.8196     0.11941E-01 
  70525.0818     0.12016E-01 
  70557.3439     0.12092E-01 
  70589.6061     0.12169E-01 
  70621.8682     0.12245E-01 
  70654.1304     0.12322E-01 
  70686.3926     0.12399E-01 
  70718.6547     0.12476E-01 
  70750.9169     0.12554E-01 
  70783.1790     0.12632E-01 
  70815.4412     0.12710E-01 
  70847.7034     0.12788E-01 
  70879.9655     0.12867E-01 
  70912.2277     0.12946E-01 
  70944.4898     0.13025E-01 
  70976.7520     0.13104E-01 
  71009.0142     0.13184E-01 
  71041.2763     0.13264E-01 
  71073.5385     0.13344E-01 
  71105.8006     0.13424E-01 
  71138.0628     0.13505E-01 
  71170.3250     0.13586E-01 
  71202.5871     0.13667E-01 
  71234.8493     0.13749E-01 
  71267.1114     0.13830E-01 
  71299.3736     0.13912E-01 
  71331.6358     0.13994E-01 
  71363.8979     0.14077E-01 
  71396.1601     0.14160E-01 
  71428.4222     0.14243E-01 
  71460.6844     0.14326E-01 
  71492.9466     0.14409E-01 
  71525.2087     0.14493E-01 
  71557.4709     0.14577E-01 
  71589.7330     0.14661E-01 
  71621.9952     0.14745E-01 
  71654.2574     0.14830E-01 
  71686.5195     0.14915E-01 
  71718.7817     0.15000E-01 
  71751.0438     0.15085E-01 
  71783.3060     0.15170E-01 
  71815.5682     0.15256E-01 
  71847.8303     0.15342E-01 
  71880.0925     0.15428E-01 
  71912.3546     0.15515E-01 
  71944.6168     0.15601E-01 
  71976.8790     0.15688E-01 
  72009.1411     0.15775E-01 
  72041.4033     0.15863E-01 
  72073.6654     0.15950E-01 
  72105.9276     0.16038E-01 
  72138.1898     0.16126E-01 
  72170.4519     0.16214E-01 
  72202.7141     0.16302E-01 
  72234.9762     0.16391E-01 
  72267.2384     0.16479E-01 
  72299.5006     0.16568E-01 
  72331.7627     0.16658E-01 
  72364.0249     0.16747E-01 
  72396.2870     0.16836E-01 
  72428.5492     0.16926E-01 
  72460.8114     0.17016E-01 
  72493.0735     0.17106E-01 
  72525.3357     0.17197E-01 
  72557.5978     0.17287E-01 
  72589.8600     0.17378E-01 
