  32262.1600     0.83365E-03 
  32294.4222     0.83840E-03 
  32326.6843     0.84317E-03 
  32358.9465     0.84795E-03 
  32391.2086     0.85275E-03 
  32423.4708     0.85757E-03 
  32455.7330     0.86241E-03 
  32487.9951     0.86726E-03 
  32520.2573     0.87214E-03 
  32552.5194     0.87703E-03 
  32584.7816     0.88194E-03 
  32617.0438     0.88686E-03 
  32649.3059     0.89180E-03 
  32681.5681     0.89676E-03 
  32713.8302     0.90174E-03 
  32746.0924     0.90674E-03 
  32778.3546     0.91175E-03 
  32810.6167     0.91678E-03 
  32842.8789     0.92183E-03 
  32875.1410     0.92690E-03 
  32907.4032     0.93198E-03 
  32939.6654     0.93708E-03 
  32971.9275     0.94220E-03 
  33004.1897     0.94733E-03 
  33036.4518     0.95248E-03 
  33068.7140     0.95765E-03 
  33100.9762     0.96284E-03 
  33133.2383     0.96805E-03 
  33165.5005     0.97327E-03 
  33197.7626     0.97851E-03 
  33230.0248     0.98376E-03 
  33262.2870     0.98904E-03 
  33294.5491     0.99433E-03 
  33326.8113     0.99963E-03 
  33359.0734     0.10050E-02 
  33391.3356     0.10103E-02 
  33423.5978     0.10157E-02 
  33455.8599     0.10210E-02 
  33488.1221     0.10264E-02 
  33520.3842     0.10318E-02 
  33552.6464     0.10373E-02 
  33584.9086     0.10427E-02 
  33617.1707     0.10482E-02 
  33649.4329     0.10536E-02 
  33681.6950     0.10591E-02 
  33713.9572     0.10647E-02 
  33746.2194     0.10702E-02 
  33778.4815     0.10757E-02 
  33810.7437     0.10813E-02 
  33843.0058     0.10869E-02 
  33875.2680     0.10925E-02 
  33907.5302     0.10981E-02 
  33939.7923     0.11037E-02 
  33972.0545     0.11093E-02 
  34004.3166     0.11150E-02 
  34036.5788     0.11207E-02 
  34068.8410     0.11264E-02 
  34101.1031     0.11321E-02 
  34133.3653     0.11378E-02 
  34165.6274     0.11435E-02 
  34197.8896     0.11493E-02 
  34230.1518     0.11551E-02 
  34262.4139     0.11609E-02 
  34294.6761     0.11667E-02 
  34326.9382     0.11725E-02 
  34359.2004     0.11783E-02 
  34391.4626     0.11842E-02 
  34423.7247     0.11900E-02 
  34455.9869     0.11959E-02 
  34488.2490     0.12018E-02 
  34520.5112     0.12077E-02 
  34552.7734     0.12137E-02 
  34585.0355     0.12196E-02 
  34617.2977     0.12256E-02 
  34649.5598     0.12316E-02 
  34681.8220     0.12376E-02 
  34714.0842     0.12436E-02 
  34746.3463     0.12496E-02 
  34778.6085     0.12556E-02 
  34810.8706     0.12617E-02 
  34843.1328     0.12678E-02 
  34875.3950     0.12738E-02 
  34907.6571     0.12799E-02 
  34939.9193     0.12861E-02 
  34972.1814     0.12922E-02 
  35004.4436     0.12983E-02 
  35036.7058     0.13045E-02 
  35068.9679     0.13107E-02 
  35101.2301     0.13169E-02 
  35133.4922     0.13231E-02 
  35165.7544     0.13293E-02 
  35198.0166     0.13355E-02 
  35230.2787     0.13418E-02 
  35262.5409     0.13480E-02 
  35294.8030     0.13543E-02 
  35327.0652     0.13606E-02 
  35359.3274     0.13669E-02 
  35391.5895     0.13732E-02 
  35423.8517     0.13795E-02 
  35456.1138     0.13859E-02 
  35488.3760     0.13922E-02 
  35520.6382     0.13986E-02 
  35552.9003     0.14050E-02 
  35585.1625     0.14114E-02 
  35617.4246     0.14178E-02 
  35649.6868     0.14242E-02 
  35681.9490     0.14307E-02 
  35714.2111     0.14371E-02 
  35746.4733     0.14436E-02 
  35778.7354     0.14501E-02 
  35810.9976     0.14566E-02 
  35843.2598     0.14631E-02 
  35875.5219     0.14696E-02 
  35907.7841     0.14761E-02 
  35940.0462     0.14827E-02 
  35972.3084     0.14892E-02 
  36004.5706     0.14958E-02 
  36036.8327     0.15024E-02 
  36069.0949     0.15090E-02 
  36101.3570     0.15156E-02 
  36133.6192     0.15222E-02 
  36165.8814     0.15288E-02 
  36198.1435     0.15355E-02 
  36230.4057     0.15421E-02 
  36262.6678     0.15488E-02 
  36294.9300     0.15555E-02 
  36327.1922     0.15622E-02 
  36359.4543     0.15689E-02 
  36391.7165     0.15756E-02 
  36423.9786     0.15823E-02 
  36456.2408     0.15891E-02 
  36488.5030     0.15958E-02 
  36520.7651     0.16026E-02 
  36553.0273     0.16093E-02 
  36585.2894     0.16161E-02 
  36617.5516     0.16229E-02 
  36649.8138     0.16297E-02 
  36682.0759     0.16365E-02 
  36714.3381     0.16434E-02 
  36746.6002     0.16502E-02 
  36778.8624     0.16570E-02 
  36811.1246     0.16639E-02 
  36843.3867     0.16708E-02 
  36875.6489     0.16776E-02 
  36907.9110     0.16845E-02 
  36940.1732     0.16914E-02 
  36972.4354     0.16983E-02 
  37004.6975     0.17053E-02 
  37036.9597     0.17122E-02 
  37069.2218     0.17191E-02 
  37101.4840     0.17261E-02 
  37133.7462     0.17330E-02 
  37166.0083     0.17400E-02 
  37198.2705     0.17469E-02 
  37230.5326     0.17539E-02 
  37262.7948     0.17609E-02 
  37295.0570     0.17679E-02 
  37327.3191     0.17749E-02 
  37359.5813     0.17819E-02 
  37391.8434     0.17890E-02 
  37424.1056     0.17960E-02 
  37456.3678     0.18030E-02 
  37488.6299     0.18101E-02 
  37520.8921     0.18172E-02 
  37553.1542     0.18242E-02 
  37585.4164     0.18313E-02 
  37617.6786     0.18384E-02 
  37649.9407     0.18455E-02 
  37682.2029     0.18526E-02 
  37714.4650     0.18597E-02 
  37746.7272     0.18668E-02 
  37778.9894     0.18739E-02 
  37811.2515     0.18810E-02 
  37843.5137     0.18882E-02 
  37875.7758     0.18953E-02 
  37908.0380     0.19024E-02 
  37940.3002     0.19096E-02 
  37972.5623     0.19167E-02 
  38004.8245     0.19239E-02 
  38037.0866     0.19311E-02 
  38069.3488     0.19383E-02 
  38101.6110     0.19454E-02 
  38133.8731     0.19526E-02 
  38166.1353     0.19598E-02 
  38198.3974     0.19670E-02 
  38230.6596     0.19742E-02 
  38262.9218     0.19815E-02 
  38295.1839     0.19887E-02 
  38327.4461     0.19959E-02 
  38359.7082     0.20031E-02 
  38391.9704     0.20103E-02 
  38424.2326     0.20176E-02 
  38456.4947     0.20248E-02 
  38488.7569     0.20321E-02 
  38521.0190     0.20393E-02 
  38553.2812     0.20466E-02 
  38585.5434     0.20538E-02 
  38617.8055     0.20611E-02 
  38650.0677     0.20684E-02 
  38682.3298     0.20756E-02 
  38714.5920     0.20829E-02 
  38746.8542     0.20902E-02 
  38779.1163     0.20975E-02 
  38811.3785     0.21048E-02 
  38843.6406     0.21120E-02 
  38875.9028     0.21193E-02 
  38908.1650     0.21266E-02 
  38940.4271     0.21339E-02 
  38972.6893     0.21412E-02 
  39004.9514     0.21485E-02 
  39037.2136     0.21558E-02 
  39069.4758     0.21631E-02 
  39101.7379     0.21704E-02 
  39134.0001     0.21777E-02 
  39166.2622     0.21851E-02 
  39198.5244     0.21924E-02 
  39230.7866     0.21997E-02 
  39263.0487     0.22070E-02 
  39295.3109     0.22143E-02 
  39327.5730     0.22216E-02 
  39359.8352     0.22290E-02 
  39392.0974     0.22363E-02 
  39424.3595     0.22436E-02 
  39456.6217     0.22509E-02 
  39488.8838     0.22582E-02 
  39521.1460     0.22656E-02 
  39553.4082     0.22729E-02 
  39585.6703     0.22802E-02 
  39617.9325     0.22875E-02 
  39650.1946     0.22949E-02 
  39682.4568     0.23022E-02 
  39714.7190     0.23095E-02 
  39746.9811     0.23168E-02 
  39779.2433     0.23241E-02 
  39811.5054     0.23315E-02 
  39843.7676     0.23388E-02 
  39876.0298     0.23461E-02 
  39908.2919     0.23534E-02 
  39940.5541     0.23607E-02 
  39972.8162     0.23680E-02 
  40005.0784     0.23754E-02 
  40037.3406     0.23827E-02 
  40069.6027     0.23900E-02 
  40101.8649     0.23973E-02 
  40134.1270     0.24046E-02 
  40166.3892     0.24119E-02 
  40198.6514     0.24192E-02 
  40230.9135     0.24265E-02 
  40263.1757     0.24338E-02 
  40295.4378     0.24411E-02 
  40327.7000     0.24483E-02 
  40359.9622     0.24556E-02 
  40392.2243     0.24629E-02 
  40424.4865     0.24702E-02 
  40456.7486     0.24774E-02 
  40489.0108     0.24847E-02 
  40521.2730     0.24920E-02 
  40553.5351     0.24992E-02 
  40585.7973     0.25065E-02 
  40618.0594     0.25137E-02 
  40650.3216     0.25210E-02 
  40682.5838     0.25282E-02 
  40714.8459     0.25355E-02 
  40747.1081     0.25427E-02 
  40779.3702     0.25499E-02 
  40811.6324     0.25572E-02 
  40843.8946     0.25644E-02 
  40876.1567     0.25716E-02 
  40908.4189     0.25788E-02 
  40940.6810     0.25860E-02 
  40972.9432     0.25932E-02 
  41005.2054     0.26004E-02 
  41037.4675     0.26076E-02 
  41069.7297     0.26147E-02 
  41101.9918     0.26219E-02 
  41134.2540     0.26291E-02 
  41166.5162     0.26362E-02 
  41198.7783     0.26434E-02 
  41231.0405     0.26505E-02 
  41263.3026     0.26576E-02 
  41295.5648     0.26648E-02 
  41327.8270     0.26719E-02 
  41360.0891     0.26790E-02 
  41392.3513     0.26861E-02 
  41424.6134     0.26932E-02 
  41456.8756     0.27003E-02 
  41489.1378     0.27073E-02 
  41521.3999     0.27144E-02 
  41553.6621     0.27215E-02 
  41585.9242     0.27285E-02 
  41618.1864     0.27356E-02 
  41650.4486     0.27426E-02 
  41682.7107     0.27496E-02 
  41714.9729     0.27566E-02 
  41747.2350     0.27637E-02 
  41779.4972     0.27707E-02 
  41811.7594     0.27776E-02 
  41844.0215     0.27846E-02 
  41876.2837     0.27916E-02 
  41908.5458     0.27985E-02 
  41940.8080     0.28055E-02 
  41973.0702     0.28124E-02 
  42005.3323     0.28194E-02 
  42037.5945     0.28263E-02 
  42069.8566     0.28332E-02 
  42102.1188     0.28401E-02 
  42134.3810     0.28469E-02 
  42166.6431     0.28538E-02 
  42198.9053     0.28607E-02 
  42231.1674     0.28675E-02 
  42263.4296     0.28744E-02 
  42295.6918     0.28812E-02 
  42327.9539     0.28880E-02 
  42360.2161     0.28948E-02 
  42392.4782     0.29016E-02 
  42424.7404     0.29084E-02 
  42457.0026     0.29151E-02 
  42489.2647     0.29219E-02 
  42521.5269     0.29286E-02 
  42553.7890     0.29353E-02 
  42586.0512     0.29421E-02 
  42618.3134     0.29488E-02 
  42650.5755     0.29554E-02 
  42682.8377     0.29621E-02 
  42715.0998     0.29688E-02 
  42747.3620     0.29754E-02 
  42779.6242     0.29820E-02 
  42811.8863     0.29887E-02 
  42844.1485     0.29953E-02 
  42876.4106     0.30019E-02 
  42908.6728     0.30084E-02 
  42940.9350     0.30150E-02 
  42973.1971     0.30215E-02 
  43005.4593     0.30281E-02 
  43037.7214     0.30346E-02 
  43069.9836     0.30411E-02 
  43102.2458     0.30476E-02 
  43134.5079     0.30540E-02 
  43166.7701     0.30605E-02 
  43199.0322     0.30669E-02 
  43231.2944     0.30734E-02 
  43263.5566     0.30798E-02 
  43295.8187     0.30862E-02 
  43328.0809     0.30925E-02 
  43360.3430     0.30989E-02 
  43392.6052     0.31052E-02 
  43424.8674     0.31116E-02 
  43457.1295     0.31179E-02 
  43489.3917     0.31242E-02 
  43521.6538     0.31304E-02 
  43553.9160     0.31367E-02 
  43586.1782     0.31429E-02 
  43618.4403     0.31492E-02 
  43650.7025     0.31554E-02 
  43682.9646     0.31615E-02 
  43715.2268     0.31677E-02 
  43747.4890     0.31739E-02 
  43779.7511     0.31800E-02 
  43812.0133     0.31861E-02 
  43844.2754     0.31922E-02 
  43876.5376     0.31983E-02 
  43908.7998     0.32044E-02 
  43941.0619     0.32104E-02 
  43973.3241     0.32164E-02 
  44005.5862     0.32225E-02 
  44037.8484     0.32284E-02 
  44070.1106     0.32344E-02 
  44102.3727     0.32404E-02 
  44134.6349     0.32463E-02 
  44166.8970     0.32522E-02 
  44199.1592     0.32581E-02 
  44231.4214     0.32640E-02 
  44263.6835     0.32698E-02 
  44295.9457     0.32757E-02 
  44328.2078     0.32815E-02 
  44360.4700     0.32873E-02 
  44392.7322     0.32930E-02 
  44424.9943     0.32988E-02 
  44457.2565     0.33045E-02 
  44489.5186     0.33102E-02 
  44521.7808     0.33159E-02 
  44554.0430     0.33216E-02 
  44586.3051     0.33273E-02 
  44618.5673     0.33329E-02 
  44650.8294     0.33385E-02 
  44683.0916     0.33441E-02 
  44715.3538     0.33497E-02 
  44747.6159     0.33552E-02 
  44779.8781     0.33607E-02 
  44812.1402     0.33662E-02 
  44844.4024     0.33717E-02 
  44876.6646     0.33772E-02 
  44908.9267     0.33826E-02 
  44941.1889     0.33880E-02 
  44973.4510     0.33934E-02 
  45005.7132     0.33988E-02 
  45037.9754     0.34042E-02 
  45070.2375     0.34095E-02 
  45102.4997     0.34148E-02 
  45134.7618     0.34201E-02 
  45167.0240     0.34253E-02 
  45199.2862     0.34306E-02 
  45231.5483     0.34358E-02 
  45263.8105     0.34410E-02 
  45296.0726     0.34462E-02 
  45328.3348     0.34513E-02 
  45360.5970     0.34564E-02 
  45392.8591     0.34615E-02 
  45425.1213     0.34666E-02 
  45457.3834     0.34717E-02 
  45489.6456     0.34767E-02 
  45521.9078     0.34817E-02 
  45554.1699     0.34867E-02 
  45586.4321     0.34917E-02 
  45618.6942     0.34966E-02 
  45650.9564     0.35015E-02 
  45683.2186     0.35064E-02 
  45715.4807     0.35113E-02 
  45747.7429     0.35161E-02 
  45780.0050     0.35209E-02 
  45812.2672     0.35257E-02 
  45844.5294     0.35305E-02 
  45876.7915     0.35352E-02 
  45909.0537     0.35400E-02 
  45941.3158     0.35447E-02 
  45973.5780     0.35493E-02 
  46005.8402     0.35540E-02 
  46038.1023     0.35586E-02 
  46070.3645     0.35632E-02 
  46102.6266     0.35678E-02 
  46134.8888     0.35723E-02 
  46167.1510     0.35768E-02 
  46199.4131     0.35813E-02 
  46231.6753     0.35858E-02 
  46263.9374     0.35903E-02 
  46296.1996     0.35947E-02 
  46328.4618     0.35991E-02 
  46360.7239     0.36035E-02 
  46392.9861     0.36078E-02 
  46425.2482     0.36121E-02 
  46457.5104     0.36164E-02 
  46489.7726     0.36207E-02 
  46522.0347     0.36250E-02 
  46554.2969     0.36292E-02 
  46586.5590     0.36334E-02 
  46618.8212     0.36375E-02 
  46651.0834     0.36417E-02 
  46683.3455     0.36458E-02 
  46715.6077     0.36499E-02 
  46747.8698     0.36540E-02 
  46780.1320     0.36580E-02 
  46812.3942     0.36620E-02 
  46844.6563     0.36660E-02 
  46876.9185     0.36700E-02 
  46909.1806     0.36739E-02 
  46941.4428     0.36778E-02 
  46973.7050     0.36817E-02 
  47005.9671     0.36856E-02 
  47038.2293     0.36894E-02 
  47070.4914     0.36932E-02 
  47102.7536     0.36970E-02 
  47135.0158     0.37007E-02 
  47167.2779     0.37045E-02 
  47199.5401     0.37082E-02 
  47231.8022     0.37118E-02 
  47264.0644     0.37155E-02 
  47296.3266     0.37191E-02 
  47328.5887     0.37227E-02 
  47360.8509     0.37263E-02 
  47393.1130     0.37298E-02 
  47425.3752     0.37333E-02 
  47457.6374     0.37368E-02 
  47489.8995     0.37403E-02 
  47522.1617     0.37437E-02 
  47554.4238     0.37471E-02 
  47586.6860     0.37505E-02 
  47618.9482     0.37539E-02 
  47651.2103     0.37572E-02 
  47683.4725     0.37605E-02 
  47715.7346     0.37638E-02 
  47747.9968     0.37670E-02 
  47780.2590     0.37703E-02 
  47812.5211     0.37735E-02 
  47844.7833     0.37766E-02 
  47877.0454     0.37798E-02 
  47909.3076     0.37829E-02 
  47941.5698     0.37860E-02 
  47973.8319     0.37891E-02 
  48006.0941     0.37921E-02 
  48038.3562     0.37951E-02 
  48070.6184     0.37981E-02 
  48102.8806     0.38011E-02 
  48135.1427     0.38040E-02 
  48167.4049     0.38069E-02 
  48199.6670     0.38098E-02 
  48231.9292     0.38126E-02 
  48264.1914     0.38155E-02 
  48296.4535     0.38183E-02 
  48328.7157     0.38210E-02 
  48360.9778     0.38238E-02 
  48393.2400     0.38265E-02 
  48425.5022     0.38292E-02 
  48457.7643     0.38319E-02 
  48490.0265     0.38345E-02 
  48522.2886     0.38371E-02 
  48554.5508     0.38397E-02 
  48586.8130     0.38423E-02 
  48619.0751     0.38448E-02 
  48651.3373     0.38473E-02 
  48683.5994     0.38498E-02 
  48715.8616     0.38523E-02 
  48748.1238     0.38547E-02 
  48780.3859     0.38571E-02 
  48812.6481     0.38595E-02 
  48844.9102     0.38618E-02 
  48877.1724     0.38642E-02 
  48909.4346     0.38665E-02 
  48941.6967     0.38687E-02 
  48973.9589     0.38710E-02 
  49006.2210     0.38732E-02 
  49038.4832     0.38754E-02 
  49070.7454     0.38776E-02 
  49103.0075     0.38797E-02 
  49135.2697     0.38819E-02 
  49167.5318     0.38840E-02 
  49199.7940     0.38860E-02 
  49232.0562     0.38881E-02 
  49264.3183     0.38901E-02 
  49296.5805     0.38921E-02 
  49328.8426     0.38941E-02 
  49361.1048     0.38960E-02 
  49393.3670     0.38980E-02 
  49425.6291     0.38998E-02 
  49457.8913     0.39017E-02 
  49490.1534     0.39036E-02 
  49522.4156     0.39054E-02 
  49554.6778     0.39072E-02 
  49586.9399     0.39090E-02 
  49619.2021     0.39107E-02 
  49651.4642     0.39124E-02 
  49683.7264     0.39141E-02 
  49715.9886     0.39158E-02 
  49748.2507     0.39175E-02 
  49780.5129     0.39191E-02 
  49812.7750     0.39207E-02 
  49845.0372     0.39223E-02 
  49877.2994     0.39238E-02 
  49909.5615     0.39254E-02 
  49941.8237     0.39269E-02 
  49974.0858     0.39284E-02 
  50006.3480     0.39298E-02 
  50038.6102     0.39313E-02 
  50070.8723     0.39327E-02 
  50103.1345     0.39341E-02 
  50135.3966     0.39355E-02 
  50167.6588     0.39368E-02 
  50199.9210     0.39381E-02 
  50232.1831     0.39394E-02 
  50264.4453     0.39407E-02 
  50296.7074     0.39420E-02 
  50328.9696     0.39432E-02 
  50361.2318     0.39444E-02 
  50393.4939     0.39456E-02 
  50425.7561     0.39468E-02 
  50458.0182     0.39479E-02 
  50490.2804     0.39491E-02 
  50522.5426     0.39502E-02 
  50554.8047     0.39513E-02 
  50587.0669     0.39523E-02 
  50619.3290     0.39534E-02 
  50651.5912     0.39544E-02 
  50683.8534     0.39554E-02 
  50716.1155     0.39564E-02 
  50748.3777     0.39573E-02 
  50780.6398     0.39583E-02 
  50812.9020     0.39592E-02 
  50845.1642     0.39601E-02 
  50877.4263     0.39610E-02 
  50909.6885     0.39618E-02 
  50941.9506     0.39627E-02 
  50974.2128     0.39635E-02 
  51006.4750     0.39643E-02 
  51038.7371     0.39651E-02 
  51070.9993     0.39658E-02 
  51103.2614     0.39666E-02 
  51135.5236     0.39673E-02 
  51167.7858     0.39680E-02 
  51200.0479     0.39687E-02 
  51232.3101     0.39694E-02 
  51264.5722     0.39700E-02 
  51296.8344     0.39706E-02 
  51329.0966     0.39712E-02 
  51361.3587     0.39718E-02 
  51393.6209     0.39724E-02 
  51425.8830     0.39730E-02 
  51458.1452     0.39735E-02 
  51490.4074     0.39741E-02 
  51522.6695     0.39746E-02 
  51554.9317     0.39751E-02 
  51587.1938     0.39756E-02 
  51619.4560     0.39760E-02 
  51651.7182     0.39765E-02 
  51683.9803     0.39769E-02 
  51716.2425     0.39773E-02 
  51748.5046     0.39777E-02 
  51780.7668     0.39781E-02 
  51813.0290     0.39785E-02 
  51845.2911     0.39788E-02 
  51877.5533     0.39792E-02 
  51909.8154     0.39795E-02 
  51942.0776     0.39798E-02 
  51974.3398     0.39801E-02 
  52006.6019     0.39804E-02 
  52038.8641     0.39807E-02 
  52071.1262     0.39809E-02 
  52103.3884     0.39812E-02 
  52135.6506     0.39814E-02 
  52167.9127     0.39816E-02 
  52200.1749     0.39818E-02 
  52232.4370     0.39820E-02 
  52264.6992     0.39822E-02 
  52296.9614     0.39824E-02 
  52329.2235     0.39825E-02 
  52361.4857     0.39827E-02 
  52393.7478     0.39828E-02 
  52426.0100     0.39829E-02 
  52458.2722     0.39831E-02 
  52490.5343     0.39832E-02 
  52522.7965     0.39833E-02 
  52555.0586     0.39833E-02 
  52587.3208     0.39834E-02 
  52619.5830     0.39835E-02 
  52651.8451     0.39835E-02 
  52684.1073     0.39836E-02 
  52716.3694     0.39836E-02 
  52748.6316     0.39837E-02 
  52780.8938     0.39837E-02 
  52813.1559     0.39837E-02 
  52845.4181     0.39837E-02 
  52877.6802     0.39837E-02 
  52909.9424     0.39837E-02 
  52942.2046     0.39837E-02 
  52974.4667     0.39837E-02 
  53006.7289     0.39836E-02 
  53038.9910     0.39836E-02 
  53071.2532     0.39836E-02 
  53103.5154     0.39835E-02 
  53135.7775     0.39835E-02 
  53168.0397     0.39834E-02 
  53200.3018     0.39834E-02 
  53232.5640     0.39833E-02 
  53264.8262     0.39832E-02 
  53297.0883     0.39832E-02 
  53329.3505     0.39831E-02 
  53361.6126     0.39830E-02 
  53393.8748     0.39829E-02 
  53426.1370     0.39829E-02 
  53458.3991     0.39828E-02 
  53490.6613     0.39827E-02 
  53522.9234     0.39826E-02 
  53555.1856     0.39825E-02 
  53587.4478     0.39824E-02 
  53619.7099     0.39823E-02 
  53651.9721     0.39822E-02 
  53684.2342     0.39821E-02 
  53716.4964     0.39820E-02 
  53748.7586     0.39819E-02 
  53781.0207     0.39818E-02 
  53813.2829     0.39818E-02 
  53845.5450     0.39817E-02 
  53877.8072     0.39816E-02 
  53910.0694     0.39815E-02 
  53942.3315     0.39814E-02 
  53974.5937     0.39813E-02 
  54006.8558     0.39812E-02 
  54039.1180     0.39812E-02 
  54071.3802     0.39811E-02 
  54103.6423     0.39810E-02 
  54135.9045     0.39810E-02 
  54168.1666     0.39809E-02 
  54200.4288     0.39809E-02 
  54232.6910     0.39808E-02 
  54264.9531     0.39808E-02 
  54297.2153     0.39807E-02 
  54329.4774     0.39807E-02 
  54361.7396     0.39807E-02 
  54394.0018     0.39807E-02 
  54426.2639     0.39806E-02 
  54458.5261     0.39806E-02 
  54490.7882     0.39806E-02 
  54523.0504     0.39807E-02 
  54555.3126     0.39807E-02 
  54587.5747     0.39807E-02 
  54619.8369     0.39808E-02 
  54652.0990     0.39808E-02 
  54684.3612     0.39809E-02 
  54716.6234     0.39809E-02 
  54748.8855     0.39810E-02 
  54781.1477     0.39811E-02 
  54813.4098     0.39812E-02 
  54845.6720     0.39814E-02 
  54877.9342     0.39815E-02 
  54910.1963     0.39816E-02 
  54942.4585     0.39818E-02 
  54974.7206     0.39820E-02 
  55006.9828     0.39821E-02 
  55039.2450     0.39823E-02 
  55071.5071     0.39826E-02 
  55103.7693     0.39828E-02 
  55136.0314     0.39830E-02 
  55168.2936     0.39833E-02 
  55200.5558     0.39836E-02 
  55232.8179     0.39839E-02 
  55265.0801     0.39842E-02 
  55297.3422     0.39845E-02 
  55329.6044     0.39848E-02 
  55361.8666     0.39852E-02 
  55394.1287     0.39856E-02 
  55426.3909     0.39860E-02 
  55458.6530     0.39864E-02 
  55490.9152     0.39869E-02 
  55523.1774     0.39873E-02 
  55555.4395     0.39878E-02 
  55587.7017     0.39883E-02 
  55619.9638     0.39888E-02 
  55652.2260     0.39894E-02 
  55684.4882     0.39900E-02 
  55716.7503     0.39906E-02 
  55749.0125     0.39912E-02 
  55781.2746     0.39918E-02 
  55813.5368     0.39925E-02 
  55845.7990     0.39932E-02 
  55878.0611     0.39939E-02 
  55910.3233     0.39946E-02 
  55942.5854     0.39954E-02 
  55974.8476     0.39962E-02 
  56007.1098     0.39970E-02 
  56039.3719     0.39979E-02 
  56071.6341     0.39987E-02 
  56103.8962     0.39996E-02 
  56136.1584     0.40006E-02 
  56168.4206     0.40015E-02 
  56200.6827     0.40025E-02 
  56232.9449     0.40036E-02 
  56265.2070     0.40046E-02 
  56297.4692     0.40057E-02 
  56329.7314     0.40068E-02 
  56361.9935     0.40079E-02 
  56394.2557     0.40091E-02 
  56426.5178     0.40103E-02 
  56458.7800     0.40116E-02 
  56491.0422     0.40129E-02 
  56523.3043     0.40142E-02 
  56555.5665     0.40155E-02 
  56587.8286     0.40169E-02 
  56620.0908     0.40183E-02 
  56652.3530     0.40198E-02 
  56684.6151     0.40213E-02 
  56716.8773     0.40228E-02 
  56749.1394     0.40244E-02 
  56781.4016     0.40260E-02 
  56813.6638     0.40276E-02 
  56845.9259     0.40293E-02 
  56878.1881     0.40310E-02 
  56910.4502     0.40328E-02 
  56942.7124     0.40346E-02 
  56974.9746     0.40364E-02 
  57007.2367     0.40383E-02 
  57039.4989     0.40402E-02 
  57071.7610     0.40422E-02 
  57104.0232     0.40442E-02 
  57136.2854     0.40463E-02 
  57168.5475     0.40484E-02 
  57200.8097     0.40505E-02 
  57233.0718     0.40527E-02 
  57265.3340     0.40549E-02 
  57297.5962     0.40572E-02 
  57329.8583     0.40595E-02 
  57362.1205     0.40619E-02 
  57394.3826     0.40643E-02 
  57426.6448     0.40668E-02 
  57458.9070     0.40693E-02 
  57491.1691     0.40719E-02 
  57523.4313     0.40745E-02 
  57555.6934     0.40771E-02 
  57587.9556     0.40799E-02 
  57620.2178     0.40826E-02 
  57652.4799     0.40854E-02 
  57684.7421     0.40883E-02 
  57717.0042     0.40912E-02 
  57749.2664     0.40942E-02 
  57781.5286     0.40972E-02 
  57813.7907     0.41003E-02 
  57846.0529     0.41035E-02 
  57878.3150     0.41067E-02 
  57910.5772     0.41099E-02 
  57942.8394     0.41132E-02 
  57975.1015     0.41166E-02 
  58007.3637     0.41200E-02 
  58039.6258     0.41235E-02 
  58071.8880     0.41270E-02 
  58104.1502     0.41306E-02 
  58136.4123     0.41343E-02 
  58168.6745     0.41380E-02 
  58200.9366     0.41418E-02 
  58233.1988     0.41456E-02 
  58265.4610     0.41495E-02 
  58297.7231     0.41535E-02 
  58329.9853     0.41575E-02 
  58362.2474     0.41616E-02 
  58394.5096     0.41658E-02 
  58426.7718     0.41700E-02 
  58459.0339     0.41743E-02 
  58491.2961     0.41786E-02 
  58523.5582     0.41831E-02 
  58555.8204     0.41875E-02 
  58588.0826     0.41921E-02 
  58620.3447     0.41967E-02 
  58652.6069     0.42014E-02 
  58684.8690     0.42062E-02 
  58717.1312     0.42110E-02 
  58749.3934     0.42159E-02 
  58781.6555     0.42209E-02 
  58813.9177     0.42259E-02 
  58846.1798     0.42310E-02 
  58878.4420     0.42362E-02 
  58910.7042     0.42415E-02 
  58942.9663     0.42468E-02 
  58975.2285     0.42522E-02 
  59007.4906     0.42577E-02 
  59039.7528     0.42633E-02 
  59072.0150     0.42689E-02 
  59104.2771     0.42746E-02 
  59136.5393     0.42804E-02 
  59168.8014     0.42863E-02 
  59201.0636     0.42922E-02 
  59233.3258     0.42982E-02 
  59265.5879     0.43043E-02 
  59297.8501     0.43105E-02 
  59330.1122     0.43168E-02 
  59362.3744     0.43231E-02 
  59394.6366     0.43296E-02 
  59426.8987     0.43361E-02 
  59459.1609     0.43427E-02 
  59491.4230     0.43493E-02 
  59523.6852     0.43561E-02 
  59555.9474     0.43630E-02 
  59588.2095     0.43699E-02 
  59620.4717     0.43769E-02 
  59652.7338     0.43840E-02 
  59684.9960     0.43912E-02 
  59717.2582     0.43985E-02 
  59749.5203     0.44059E-02 
  59781.7825     0.44133E-02 
  59814.0446     0.44209E-02 
  59846.3068     0.44285E-02 
  59878.5690     0.44362E-02 
  59910.8311     0.44441E-02 
  59943.0933     0.44520E-02 
  59975.3554     0.44600E-02 
  60007.6176     0.44681E-02 
  60039.8798     0.44763E-02 
  60072.1419     0.44846E-02 
  60104.4041     0.44929E-02 
  60136.6662     0.45014E-02 
  60168.9284     0.45100E-02 
  60201.1906     0.45187E-02 
  60233.4527     0.45274E-02 
  60265.7149     0.45363E-02 
  60297.9770     0.45453E-02 
  60330.2392     0.45543E-02 
  60362.5014     0.45635E-02 
  60394.7635     0.45728E-02 
  60427.0257     0.45822E-02 
  60459.2878     0.45916E-02 
  60491.5500     0.46012E-02 
  60523.8122     0.46109E-02 
  60556.0743     0.46207E-02 
  60588.3365     0.46305E-02 
  60620.5986     0.46405E-02 
  60652.8608     0.46506E-02 
  60685.1230     0.46608E-02 
  60717.3851     0.46711E-02 
  60749.6473     0.46816E-02 
  60781.9094     0.46921E-02 
  60814.1716     0.47027E-02 
  60846.4338     0.47134E-02 
  60878.6959     0.47243E-02 
  60910.9581     0.47353E-02 
  60943.2202     0.47463E-02 
  60975.4824     0.47575E-02 
  61007.7446     0.47688E-02 
  61040.0067     0.47802E-02 
  61072.2689     0.47918E-02 
  61104.5310     0.48034E-02 
  61136.7932     0.48151E-02 
  61169.0554     0.48270E-02 
  61201.3175     0.48390E-02 
  61233.5797     0.48511E-02 
  61265.8418     0.48633E-02 
  61298.1040     0.48756E-02 
  61330.3662     0.48881E-02 
  61362.6283     0.49007E-02 
  61394.8905     0.49134E-02 
  61427.1526     0.49262E-02 
  61459.4148     0.49391E-02 
  61491.6770     0.49522E-02 
  61523.9391     0.49653E-02 
  61556.2013     0.49786E-02 
  61588.4634     0.49921E-02 
  61620.7256     0.50056E-02 
  61652.9878     0.50193E-02 
  61685.2499     0.50331E-02 
  61717.5121     0.50470E-02 
  61749.7742     0.50611E-02 
  61782.0364     0.50752E-02 
  61814.2986     0.50895E-02 
  61846.5607     0.51040E-02 
  61878.8229     0.51185E-02 
  61911.0850     0.51332E-02 
  61943.3472     0.51480E-02 
  61975.6094     0.51630E-02 
  62007.8715     0.51781E-02 
  62040.1337     0.51933E-02 
  62072.3958     0.52086E-02 
  62104.6580     0.52241E-02 
  62136.9202     0.52397E-02 
  62169.1823     0.52555E-02 
  62201.4445     0.52714E-02 
  62233.7066     0.52874E-02 
  62265.9688     0.53035E-02 
  62298.2310     0.53198E-02 
  62330.4931     0.53363E-02 
  62362.7553     0.53528E-02 
  62395.0174     0.53695E-02 
  62427.2796     0.53864E-02 
  62459.5418     0.54034E-02 
  62491.8039     0.54205E-02 
  62524.0661     0.54377E-02 
  62556.3282     0.54552E-02 
  62588.5904     0.54727E-02 
  62620.8526     0.54904E-02 
  62653.1147     0.55082E-02 
  62685.3769     0.55262E-02 
  62717.6390     0.55443E-02 
  62749.9012     0.55626E-02 
  62782.1634     0.55810E-02 
  62814.4255     0.55996E-02 
  62846.6877     0.56183E-02 
  62878.9498     0.56371E-02 
  62911.2120     0.56561E-02 
  62943.4742     0.56753E-02 
  62975.7363     0.56946E-02 
  63007.9985     0.57140E-02 
  63040.2606     0.57336E-02 
  63072.5228     0.57534E-02 
  63104.7850     0.57733E-02 
  63137.0471     0.57933E-02 
  63169.3093     0.58135E-02 
  63201.5714     0.58339E-02 
  63233.8336     0.58544E-02 
  63266.0958     0.58751E-02 
  63298.3579     0.58959E-02 
  63330.6201     0.59169E-02 
  63362.8822     0.59380E-02 
  63395.1444     0.59593E-02 
  63427.4066     0.59807E-02 
  63459.6687     0.60023E-02 
  63491.9309     0.60241E-02 
  63524.1930     0.60460E-02 
  63556.4552     0.60681E-02 
  63588.7174     0.60903E-02 
  63620.9795     0.61127E-02 
  63653.2417     0.61353E-02 
  63685.5038     0.61580E-02 
  63717.7660     0.61809E-02 
  63750.0282     0.62039E-02 
  63782.2903     0.62272E-02 
  63814.5525     0.62505E-02 
  63846.8146     0.62741E-02 
  63879.0768     0.62978E-02 
  63911.3390     0.63216E-02 
  63943.6011     0.63457E-02 
  63975.8633     0.63699E-02 
  64008.1254     0.63942E-02 
  64040.3876     0.64188E-02 
  64072.6498     0.64435E-02 
  64104.9119     0.64683E-02 
  64137.1741     0.64934E-02 
  64169.4362     0.65186E-02 
  64201.6984     0.65439E-02 
  64233.9606     0.65695E-02 
  64266.2227     0.65952E-02 
  64298.4849     0.66211E-02 
  64330.7470     0.66471E-02 
  64363.0092     0.66734E-02 
  64395.2714     0.66998E-02 
  64427.5335     0.67264E-02 
  64459.7957     0.67531E-02 
  64492.0578     0.67800E-02 
  64524.3200     0.68071E-02 
  64556.5822     0.68344E-02 
  64588.8443     0.68619E-02 
  64621.1065     0.68895E-02 
  64653.3686     0.69173E-02 
  64685.6308     0.69453E-02 
  64717.8930     0.69734E-02 
  64750.1551     0.70018E-02 
  64782.4173     0.70303E-02 
  64814.6794     0.70590E-02 
  64846.9416     0.70879E-02 
  64879.2038     0.71169E-02 
  64911.4659     0.71461E-02 
  64943.7281     0.71756E-02 
  64975.9902     0.72052E-02 
  65008.2524     0.72349E-02 
  65040.5146     0.72649E-02 
  65072.7767     0.72950E-02 
  65105.0389     0.73254E-02 
  65137.3010     0.73559E-02 
  65169.5632     0.73866E-02 
  65201.8254     0.74174E-02 
  65234.0875     0.74485E-02 
  65266.3497     0.74797E-02 
  65298.6118     0.75112E-02 
  65330.8740     0.75428E-02 
  65363.1362     0.75746E-02 
  65395.3983     0.76066E-02 
  65427.6605     0.76388E-02 
  65459.9226     0.76711E-02 
  65492.1848     0.77037E-02 
  65524.4470     0.77364E-02 
  65556.7091     0.77694E-02 
  65588.9713     0.78025E-02 
  65621.2334     0.78358E-02 
  65653.4956     0.78693E-02 
  65685.7578     0.79030E-02 
  65718.0199     0.79369E-02 
  65750.2821     0.79709E-02 
  65782.5442     0.80052E-02 
  65814.8064     0.80396E-02 
  65847.0686     0.80743E-02 
  65879.3307     0.81091E-02 
  65911.5929     0.81441E-02 
  65943.8550     0.81794E-02 
  65976.1172     0.82148E-02 
  66008.3794     0.82504E-02 
  66040.6415     0.82862E-02 
  66072.9037     0.83222E-02 
  66105.1658     0.83584E-02 
  66137.4280     0.83948E-02 
  66169.6902     0.84314E-02 
  66201.9523     0.84681E-02 
  66234.2145     0.85051E-02 
  66266.4766     0.85423E-02 
  66298.7388     0.85797E-02 
  66331.0010     0.86172E-02 
  66363.2631     0.86550E-02 
  66395.5253     0.86929E-02 
  66427.7874     0.87311E-02 
  66460.0496     0.87694E-02 
  66492.3118     0.88080E-02 
  66524.5739     0.88468E-02 
  66556.8361     0.88857E-02 
  66589.0982     0.89248E-02 
  66621.3604     0.89642E-02 
  66653.6226     0.90037E-02 
  66685.8847     0.90435E-02 
  66718.1469     0.90834E-02 
  66750.4090     0.91236E-02 
  66782.6712     0.91639E-02 
  66814.9334     0.92045E-02 
  66847.1955     0.92452E-02 
  66879.4577     0.92862E-02 
  66911.7198     0.93273E-02 
  66943.9820     0.93687E-02 
  66976.2442     0.94102E-02 
  67008.5063     0.94520E-02 
  67040.7685     0.94940E-02 
  67073.0306     0.95361E-02 
  67105.2928     0.95785E-02 
  67137.5550     0.96210E-02 
  67169.8171     0.96638E-02 
  67202.0793     0.97068E-02 
  67234.3414     0.97500E-02 
  67266.6036     0.97933E-02 
  67298.8658     0.98369E-02 
  67331.1279     0.98807E-02 
  67363.3901     0.99247E-02 
  67395.6522     0.99689E-02 
  67427.9144     0.10013E-01 
  67460.1766     0.10058E-01 
  67492.4387     0.10103E-01 
  67524.7009     0.10148E-01 
  67556.9630     0.10193E-01 
  67589.2252     0.10238E-01 
  67621.4874     0.10284E-01 
  67653.7495     0.10330E-01 
  67686.0117     0.10376E-01 
  67718.2738     0.10422E-01 
  67750.5360     0.10469E-01 
  67782.7982     0.10515E-01 
  67815.0603     0.10562E-01 
  67847.3225     0.10609E-01 
  67879.5846     0.10656E-01 
  67911.8468     0.10704E-01 
  67944.1090     0.10752E-01 
  67976.3711     0.10799E-01 
  68008.6333     0.10847E-01 
  68040.8954     0.10896E-01 
  68073.1576     0.10944E-01 
  68105.4198     0.10993E-01 
  68137.6819     0.11042E-01 
  68169.9441     0.11091E-01 
  68202.2062     0.11140E-01 
  68234.4684     0.11190E-01 
  68266.7306     0.11240E-01 
  68298.9927     0.11290E-01 
  68331.2549     0.11340E-01 
  68363.5170     0.11390E-01 
  68395.7792     0.11441E-01 
  68428.0414     0.11491E-01 
  68460.3035     0.11542E-01 
  68492.5657     0.11594E-01 
  68524.8278     0.11645E-01 
  68557.0900     0.11696E-01 
  68589.3522     0.11748E-01 
  68621.6143     0.11800E-01 
  68653.8765     0.11852E-01 
  68686.1386     0.11905E-01 
  68718.4008     0.11958E-01 
  68750.6630     0.12010E-01 
  68782.9251     0.12063E-01 
  68815.1873     0.12117E-01 
  68847.4494     0.12170E-01 
  68879.7116     0.12224E-01 
  68911.9738     0.12277E-01 
  68944.2359     0.12332E-01 
  68976.4981     0.12386E-01 
  69008.7602     0.12440E-01 
  69041.0224     0.12495E-01 
  69073.2846     0.12550E-01 
  69105.5467     0.12605E-01 
  69137.8089     0.12660E-01 
  69170.0710     0.12716E-01 
  69202.3332     0.12771E-01 
  69234.5954     0.12827E-01 
  69266.8575     0.12883E-01 
  69299.1197     0.12939E-01 
  69331.3818     0.12996E-01 
  69363.6440     0.13053E-01 
  69395.9062     0.13110E-01 
  69428.1683     0.13167E-01 
  69460.4305     0.13224E-01 
  69492.6926     0.13281E-01 
  69524.9548     0.13339E-01 
  69557.2170     0.13397E-01 
  69589.4791     0.13455E-01 
  69621.7413     0.13513E-01 
  69654.0034     0.13572E-01 
  69686.2656     0.13631E-01 
  69718.5278     0.13689E-01 
  69750.7899     0.13749E-01 
  69783.0521     0.13808E-01 
  69815.3142     0.13867E-01 
  69847.5764     0.13927E-01 
  69879.8386     0.13987E-01 
  69912.1007     0.14047E-01 
  69944.3629     0.14107E-01 
  69976.6250     0.14168E-01 
  70008.8872     0.14228E-01 
  70041.1494     0.14289E-01 
  70073.4115     0.14350E-01 
  70105.6737     0.14412E-01 
  70137.9358     0.14473E-01 
  70170.1980     0.14535E-01 
  70202.4602     0.14597E-01 
  70234.7223     0.14659E-01 
  70266.9845     0.14721E-01 
  70299.2466     0.14783E-01 
  70331.5088     0.14846E-01 
  70363.7710     0.14909E-01 
  70396.0331     0.14972E-01 
  70428.2953     0.15035E-01 
  70460.5574     0.15098E-01 
  70492.8196     0.15162E-01 
  70525.0818     0.15226E-01 
  70557.3439     0.15290E-01 
  70589.6061     0.15354E-01 
  70621.8682     0.15418E-01 
  70654.1304     0.15483E-01 
  70686.3926     0.15547E-01 
  70718.6547     0.15612E-01 
  70750.9169     0.15677E-01 
  70783.1790     0.15743E-01 
  70815.4412     0.15808E-01 
  70847.7034     0.15874E-01 
  70879.9655     0.15940E-01 
  70912.2277     0.16006E-01 
  70944.4898     0.16072E-01 
  70976.7520     0.16138E-01 
  71009.0142     0.16205E-01 
  71041.2763     0.16271E-01 
  71073.5385     0.16338E-01 
  71105.8006     0.16405E-01 
  71138.0628     0.16473E-01 
  71170.3250     0.16540E-01 
  71202.5871     0.16608E-01 
  71234.8493     0.16676E-01 
  71267.1114     0.16744E-01 
  71299.3736     0.16812E-01 
  71331.6358     0.16880E-01 
  71363.8979     0.16949E-01 
  71396.1601     0.17017E-01 
  71428.4222     0.17086E-01 
  71460.6844     0.17155E-01 
  71492.9466     0.17225E-01 
  71525.2087     0.17294E-01 
  71557.4709     0.17364E-01 
  71589.7330     0.17433E-01 
  71621.9952     0.17503E-01 
  71654.2574     0.17573E-01 
  71686.5195     0.17644E-01 
  71718.7817     0.17714E-01 
  71751.0438     0.17785E-01 
  71783.3060     0.17855E-01 
  71815.5682     0.17926E-01 
  71847.8303     0.17997E-01 
  71880.0925     0.18069E-01 
  71912.3546     0.18140E-01 
  71944.6168     0.18212E-01 
  71976.8790     0.18283E-01 
  72009.1411     0.18355E-01 
  72041.4033     0.18427E-01 
  72073.6654     0.18500E-01 
  72105.9276     0.18572E-01 
  72138.1898     0.18645E-01 
  72170.4519     0.18717E-01 
  72202.7141     0.18790E-01 
  72234.9762     0.18863E-01 
  72267.2384     0.18936E-01 
  72299.5006     0.19010E-01 
  72331.7627     0.19083E-01 
  72364.0249     0.19157E-01 
  72396.2870     0.19231E-01 
  72428.5492     0.19305E-01 
  72460.8114     0.19379E-01 
  72493.0735     0.19453E-01 
  72525.3357     0.19527E-01 
  72557.5978     0.19602E-01 
  72589.8600     0.19677E-01 
