  32262.1600     0.81507E+01 
  32294.4222     0.82326E+01 
  32326.6843     0.83150E+01 
  32358.9465     0.83979E+01 
  32391.2086     0.84814E+01 
  32423.4708     0.85653E+01 
  32455.7330     0.86498E+01 
  32487.9951     0.87348E+01 
  32520.2573     0.88204E+01 
  32552.5194     0.89064E+01 
  32584.7816     0.89930E+01 
  32617.0438     0.90801E+01 
  32649.3059     0.91677E+01 
  32681.5681     0.92558E+01 
  32713.8302     0.93445E+01 
  32746.0924     0.94336E+01 
  32778.3546     0.95233E+01 
  32810.6167     0.96135E+01 
  32842.8789     0.97042E+01 
  32875.1410     0.97954E+01 
  32907.4032     0.98872E+01 
  32939.6654     0.99794E+01 
  32971.9275     0.10072E+02 
  33004.1897     0.10165E+02 
  33036.4518     0.10259E+02 
  33068.7140     0.10354E+02 
  33100.9762     0.10448E+02 
  33133.2383     0.10544E+02 
  33165.5005     0.10639E+02 
  33197.7626     0.10736E+02 
  33230.0248     0.10832E+02 
  33262.2870     0.10930E+02 
  33294.5491     0.11027E+02 
  33326.8113     0.11126E+02 
  33359.0734     0.11225E+02 
  33391.3356     0.11324E+02 
  33423.5978     0.11424E+02 
  33455.8599     0.11524E+02 
  33488.1221     0.11624E+02 
  33520.3842     0.11726E+02 
  33552.6464     0.11827E+02 
  33584.9086     0.11929E+02 
  33617.1707     0.12032E+02 
  33649.4329     0.12135E+02 
  33681.6950     0.12239E+02 
  33713.9572     0.12343E+02 
  33746.2194     0.12447E+02 
  33778.4815     0.12552E+02 
  33810.7437     0.12658E+02 
  33843.0058     0.12764E+02 
  33875.2680     0.12870E+02 
  33907.5302     0.12977E+02 
  33939.7923     0.13084E+02 
  33972.0545     0.13192E+02 
  34004.3166     0.13300E+02 
  34036.5788     0.13408E+02 
  34068.8410     0.13517E+02 
  34101.1031     0.13627E+02 
  34133.3653     0.13737E+02 
  34165.6274     0.13847E+02 
  34197.8896     0.13958E+02 
  34230.1518     0.14069E+02 
  34262.4139     0.14180E+02 
  34294.6761     0.14292E+02 
  34326.9382     0.14405E+02 
  34359.2004     0.14518E+02 
  34391.4626     0.14631E+02 
  34423.7247     0.14745E+02 
  34455.9869     0.14859E+02 
  34488.2490     0.14973E+02 
  34520.5112     0.15088E+02 
  34552.7734     0.15203E+02 
  34585.0355     0.15319E+02 
  34617.2977     0.15434E+02 
  34649.5598     0.15551E+02 
  34681.8220     0.15668E+02 
  34714.0842     0.15785E+02 
  34746.3463     0.15902E+02 
  34778.6085     0.16020E+02 
  34810.8706     0.16138E+02 
  34843.1328     0.16256E+02 
  34875.3950     0.16375E+02 
  34907.6571     0.16494E+02 
  34939.9193     0.16614E+02 
  34972.1814     0.16734E+02 
  35004.4436     0.16854E+02 
  35036.7058     0.16975E+02 
  35068.9679     0.17095E+02 
  35101.2301     0.17216E+02 
  35133.4922     0.17338E+02 
  35165.7544     0.17460E+02 
  35198.0166     0.17582E+02 
  35230.2787     0.17704E+02 
  35262.5409     0.17827E+02 
  35294.8030     0.17950E+02 
  35327.0652     0.18073E+02 
  35359.3274     0.18196E+02 
  35391.5895     0.18320E+02 
  35423.8517     0.18444E+02 
  35456.1138     0.18568E+02 
  35488.3760     0.18693E+02 
  35520.6382     0.18818E+02 
  35552.9003     0.18943E+02 
  35585.1625     0.19068E+02 
  35617.4246     0.19193E+02 
  35649.6868     0.19319E+02 
  35681.9490     0.19445E+02 
  35714.2111     0.19571E+02 
  35746.4733     0.19698E+02 
  35778.7354     0.19824E+02 
  35810.9976     0.19951E+02 
  35843.2598     0.20078E+02 
  35875.5219     0.20205E+02 
  35907.7841     0.20333E+02 
  35940.0462     0.20460E+02 
  35972.3084     0.20588E+02 
  36004.5706     0.20716E+02 
  36036.8327     0.20844E+02 
  36069.0949     0.20972E+02 
  36101.3570     0.21100E+02 
  36133.6192     0.21229E+02 
  36165.8814     0.21357E+02 
  36198.1435     0.21486E+02 
  36230.4057     0.21615E+02 
  36262.6678     0.21744E+02 
  36294.9300     0.21873E+02 
  36327.1922     0.22002E+02 
  36359.4543     0.22131E+02 
  36391.7165     0.22261E+02 
  36423.9786     0.22390E+02 
  36456.2408     0.22520E+02 
  36488.5030     0.22649E+02 
  36520.7651     0.22779E+02 
  36553.0273     0.22909E+02 
  36585.2894     0.23039E+02 
  36617.5516     0.23169E+02 
  36649.8138     0.23298E+02 
  36682.0759     0.23428E+02 
  36714.3381     0.23558E+02 
  36746.6002     0.23688E+02 
  36778.8624     0.23818E+02 
  36811.1246     0.23948E+02 
  36843.3867     0.24078E+02 
  36875.6489     0.24208E+02 
  36907.9110     0.24338E+02 
  36940.1732     0.24468E+02 
  36972.4354     0.24598E+02 
  37004.6975     0.24728E+02 
  37036.9597     0.24858E+02 
  37069.2218     0.24988E+02 
  37101.4840     0.25118E+02 
  37133.7462     0.25247E+02 
  37166.0083     0.25377E+02 
  37198.2705     0.25507E+02 
  37230.5326     0.25636E+02 
  37262.7948     0.25765E+02 
  37295.0570     0.25895E+02 
  37327.3191     0.26024E+02 
  37359.5813     0.26153E+02 
  37391.8434     0.26282E+02 
  37424.1056     0.26411E+02 
  37456.3678     0.26540E+02 
  37488.6299     0.26668E+02 
  37520.8921     0.26797E+02 
  37553.1542     0.26925E+02 
  37585.4164     0.27053E+02 
  37617.6786     0.27181E+02 
  37649.9407     0.27309E+02 
  37682.2029     0.27437E+02 
  37714.4650     0.27564E+02 
  37746.7272     0.27692E+02 
  37778.9894     0.27819E+02 
  37811.2515     0.27946E+02 
  37843.5137     0.28072E+02 
  37875.7758     0.28199E+02 
  37908.0380     0.28325E+02 
  37940.3002     0.28451E+02 
  37972.5623     0.28577E+02 
  38004.8245     0.28702E+02 
  38037.0866     0.28828E+02 
  38069.3488     0.28953E+02 
  38101.6110     0.29077E+02 
  38133.8731     0.29202E+02 
  38166.1353     0.29326E+02 
  38198.3974     0.29450E+02 
  38230.6596     0.29573E+02 
  38262.9218     0.29697E+02 
  38295.1839     0.29820E+02 
  38327.4461     0.29942E+02 
  38359.7082     0.30065E+02 
  38391.9704     0.30187E+02 
  38424.2326     0.30308E+02 
  38456.4947     0.30430E+02 
  38488.7569     0.30551E+02 
  38521.0190     0.30671E+02 
  38553.2812     0.30791E+02 
  38585.5434     0.30911E+02 
  38617.8055     0.31031E+02 
  38650.0677     0.31150E+02 
  38682.3298     0.31269E+02 
  38714.5920     0.31387E+02 
  38746.8542     0.31505E+02 
  38779.1163     0.31622E+02 
  38811.3785     0.31740E+02 
  38843.6406     0.31856E+02 
  38875.9028     0.31972E+02 
  38908.1650     0.32088E+02 
  38940.4271     0.32204E+02 
  38972.6893     0.32318E+02 
  39004.9514     0.32433E+02 
  39037.2136     0.32547E+02 
  39069.4758     0.32660E+02 
  39101.7379     0.32773E+02 
  39134.0001     0.32886E+02 
  39166.2622     0.32998E+02 
  39198.5244     0.33109E+02 
  39230.7866     0.33220E+02 
  39263.0487     0.33331E+02 
  39295.3109     0.33441E+02 
  39327.5730     0.33550E+02 
  39359.8352     0.33659E+02 
  39392.0974     0.33768E+02 
  39424.3595     0.33876E+02 
  39456.6217     0.33983E+02 
  39488.8838     0.34090E+02 
  39521.1460     0.34196E+02 
  39553.4082     0.34301E+02 
  39585.6703     0.34407E+02 
  39617.9325     0.34511E+02 
  39650.1946     0.34615E+02 
  39682.4568     0.34718E+02 
  39714.7190     0.34821E+02 
  39746.9811     0.34923E+02 
  39779.2433     0.35024E+02 
  39811.5054     0.35125E+02 
  39843.7676     0.35226E+02 
  39876.0298     0.35325E+02 
  39908.2919     0.35424E+02 
  39940.5541     0.35523E+02 
  39972.8162     0.35620E+02 
  40005.0784     0.35717E+02 
  40037.3406     0.35814E+02 
  40069.6027     0.35909E+02 
  40101.8649     0.36005E+02 
  40134.1270     0.36099E+02 
  40166.3892     0.36193E+02 
  40198.6514     0.36286E+02 
  40230.9135     0.36378E+02 
  40263.1757     0.36470E+02 
  40295.4378     0.36561E+02 
  40327.7000     0.36651E+02 
  40359.9622     0.36741E+02 
  40392.2243     0.36829E+02 
  40424.4865     0.36918E+02 
  40456.7486     0.37005E+02 
  40489.0108     0.37092E+02 
  40521.2730     0.37178E+02 
  40553.5351     0.37263E+02 
  40585.7973     0.37347E+02 
  40618.0594     0.37431E+02 
  40650.3216     0.37514E+02 
  40682.5838     0.37596E+02 
  40714.8459     0.37678E+02 
  40747.1081     0.37758E+02 
  40779.3702     0.37838E+02 
  40811.6324     0.37918E+02 
  40843.8946     0.37996E+02 
  40876.1567     0.38073E+02 
  40908.4189     0.38150E+02 
  40940.6810     0.38226E+02 
  40972.9432     0.38302E+02 
  41005.2054     0.38376E+02 
  41037.4675     0.38450E+02 
  41069.7297     0.38522E+02 
  41101.9918     0.38594E+02 
  41134.2540     0.38666E+02 
  41166.5162     0.38736E+02 
  41198.7783     0.38806E+02 
  41231.0405     0.38874E+02 
  41263.3026     0.38942E+02 
  41295.5648     0.39009E+02 
  41327.8270     0.39075E+02 
  41360.0891     0.39141E+02 
  41392.3513     0.39205E+02 
  41424.6134     0.39269E+02 
  41456.8756     0.39332E+02 
  41489.1378     0.39394E+02 
  41521.3999     0.39455E+02 
  41553.6621     0.39515E+02 
  41585.9242     0.39575E+02 
  41618.1864     0.39633E+02 
  41650.4486     0.39691E+02 
  41682.7107     0.39748E+02 
  41714.9729     0.39804E+02 
  41747.2350     0.39859E+02 
  41779.4972     0.39913E+02 
  41811.7594     0.39967E+02 
  41844.0215     0.40019E+02 
  41876.2837     0.40071E+02 
  41908.5458     0.40121E+02 
  41940.8080     0.40171E+02 
  41973.0702     0.40220E+02 
  42005.3323     0.40268E+02 
  42037.5945     0.40315E+02 
  42069.8566     0.40361E+02 
  42102.1188     0.40407E+02 
  42134.3810     0.40451E+02 
  42166.6431     0.40494E+02 
  42198.9053     0.40537E+02 
  42231.1674     0.40579E+02 
  42263.4296     0.40620E+02 
  42295.6918     0.40659E+02 
  42327.9539     0.40698E+02 
  42360.2161     0.40736E+02 
  42392.4782     0.40774E+02 
  42424.7404     0.40810E+02 
  42457.0026     0.40845E+02 
  42489.2647     0.40879E+02 
  42521.5269     0.40913E+02 
  42553.7890     0.40945E+02 
  42586.0512     0.40977E+02 
  42618.3134     0.41008E+02 
  42650.5755     0.41037E+02 
  42682.8377     0.41066E+02 
  42715.0998     0.41094E+02 
  42747.3620     0.41121E+02 
  42779.6242     0.41147E+02 
  42811.8863     0.41172E+02 
  42844.1485     0.41197E+02 
  42876.4106     0.41220E+02 
  42908.6728     0.41242E+02 
  42940.9350     0.41264E+02 
  42973.1971     0.41284E+02 
  43005.4593     0.41304E+02 
  43037.7214     0.41322E+02 
  43069.9836     0.41340E+02 
  43102.2458     0.41357E+02 
  43134.5079     0.41372E+02 
  43166.7701     0.41387E+02 
  43199.0322     0.41401E+02 
  43231.2944     0.41414E+02 
  43263.5566     0.41426E+02 
  43295.8187     0.41438E+02 
  43328.0809     0.41448E+02 
  43360.3430     0.41457E+02 
  43392.6052     0.41466E+02 
  43424.8674     0.41473E+02 
  43457.1295     0.41480E+02 
  43489.3917     0.41485E+02 
  43521.6538     0.41490E+02 
  43553.9160     0.41494E+02 
  43586.1782     0.41496E+02 
  43618.4403     0.41498E+02 
  43650.7025     0.41499E+02 
  43682.9646     0.41499E+02 
  43715.2268     0.41498E+02 
  43747.4890     0.41497E+02 
  43779.7511     0.41494E+02 
  43812.0133     0.41490E+02 
  43844.2754     0.41486E+02 
  43876.5376     0.41480E+02 
  43908.7998     0.41474E+02 
  43941.0619     0.41467E+02 
  43973.3241     0.41459E+02 
  44005.5862     0.41450E+02 
  44037.8484     0.41440E+02 
  44070.1106     0.41429E+02 
  44102.3727     0.41417E+02 
  44134.6349     0.41404E+02 
  44166.8970     0.41391E+02 
  44199.1592     0.41376E+02 
  44231.4214     0.41361E+02 
  44263.6835     0.41344E+02 
  44295.9457     0.41327E+02 
  44328.2078     0.41309E+02 
  44360.4700     0.41290E+02 
  44392.7322     0.41270E+02 
  44424.9943     0.41250E+02 
  44457.2565     0.41228E+02 
  44489.5186     0.41206E+02 
  44521.7808     0.41182E+02 
  44554.0430     0.41158E+02 
  44586.3051     0.41133E+02 
  44618.5673     0.41107E+02 
  44650.8294     0.41080E+02 
  44683.0916     0.41052E+02 
  44715.3538     0.41024E+02 
  44747.6159     0.40994E+02 
  44779.8781     0.40964E+02 
  44812.1402     0.40933E+02 
  44844.4024     0.40901E+02 
  44876.6646     0.40868E+02 
  44908.9267     0.40835E+02 
  44941.1889     0.40800E+02 
  44973.4510     0.40765E+02 
  45005.7132     0.40729E+02 
  45037.9754     0.40692E+02 
  45070.2375     0.40654E+02 
  45102.4997     0.40615E+02 
  45134.7618     0.40576E+02 
  45167.0240     0.40536E+02 
  45199.2862     0.40494E+02 
  45231.5483     0.40453E+02 
  45263.8105     0.40410E+02 
  45296.0726     0.40366E+02 
  45328.3348     0.40322E+02 
  45360.5970     0.40277E+02 
  45392.8591     0.40231E+02 
  45425.1213     0.40184E+02 
  45457.3834     0.40137E+02 
  45489.6456     0.40089E+02 
  45521.9078     0.40040E+02 
  45554.1699     0.39990E+02 
  45586.4321     0.39939E+02 
  45618.6942     0.39888E+02 
  45650.9564     0.39836E+02 
  45683.2186     0.39783E+02 
  45715.4807     0.39729E+02 
  45747.7429     0.39675E+02 
  45780.0050     0.39620E+02 
  45812.2672     0.39564E+02 
  45844.5294     0.39508E+02 
  45876.7915     0.39450E+02 
  45909.0537     0.39392E+02 
  45941.3158     0.39333E+02 
  45973.5780     0.39274E+02 
  46005.8402     0.39214E+02 
  46038.1023     0.39153E+02 
  46070.3645     0.39091E+02 
  46102.6266     0.39029E+02 
  46134.8888     0.38966E+02 
  46167.1510     0.38902E+02 
  46199.4131     0.38838E+02 
  46231.6753     0.38773E+02 
  46263.9374     0.38707E+02 
  46296.1996     0.38640E+02 
  46328.4618     0.38573E+02 
  46360.7239     0.38505E+02 
  46392.9861     0.38437E+02 
  46425.2482     0.38368E+02 
  46457.5104     0.38298E+02 
  46489.7726     0.38228E+02 
  46522.0347     0.38157E+02 
  46554.2969     0.38085E+02 
  46586.5590     0.38013E+02 
  46618.8212     0.37940E+02 
  46651.0834     0.37866E+02 
  46683.3455     0.37792E+02 
  46715.6077     0.37717E+02 
  46747.8698     0.37642E+02 
  46780.1320     0.37566E+02 
  46812.3942     0.37489E+02 
  46844.6563     0.37412E+02 
  46876.9185     0.37334E+02 
  46909.1806     0.37255E+02 
  46941.4428     0.37176E+02 
  46973.7050     0.37097E+02 
  47005.9671     0.37017E+02 
  47038.2293     0.36936E+02 
  47070.4914     0.36855E+02 
  47102.7536     0.36773E+02 
  47135.0158     0.36690E+02 
  47167.2779     0.36607E+02 
  47199.5401     0.36524E+02 
  47231.8022     0.36440E+02 
  47264.0644     0.36355E+02 
  47296.3266     0.36270E+02 
  47328.5887     0.36185E+02 
  47360.8509     0.36099E+02 
  47393.1130     0.36012E+02 
  47425.3752     0.35925E+02 
  47457.6374     0.35837E+02 
  47489.8995     0.35749E+02 
  47522.1617     0.35661E+02 
  47554.4238     0.35571E+02 
  47586.6860     0.35482E+02 
  47618.9482     0.35392E+02 
  47651.2103     0.35301E+02 
  47683.4725     0.35210E+02 
  47715.7346     0.35119E+02 
  47747.9968     0.35027E+02 
  47780.2590     0.34935E+02 
  47812.5211     0.34842E+02 
  47844.7833     0.34749E+02 
  47877.0454     0.34655E+02 
  47909.3076     0.34561E+02 
  47941.5698     0.34466E+02 
  47973.8319     0.34371E+02 
  48006.0941     0.34276E+02 
  48038.3562     0.34180E+02 
  48070.6184     0.34084E+02 
  48102.8806     0.33987E+02 
  48135.1427     0.33891E+02 
  48167.4049     0.33793E+02 
  48199.6670     0.33695E+02 
  48231.9292     0.33597E+02 
  48264.1914     0.33499E+02 
  48296.4535     0.33400E+02 
  48328.7157     0.33301E+02 
  48360.9778     0.33201E+02 
  48393.2400     0.33101E+02 
  48425.5022     0.33001E+02 
  48457.7643     0.32901E+02 
  48490.0265     0.32800E+02 
  48522.2886     0.32698E+02 
  48554.5508     0.32597E+02 
  48586.8130     0.32495E+02 
  48619.0751     0.32393E+02 
  48651.3373     0.32290E+02 
  48683.5994     0.32187E+02 
  48715.8616     0.32084E+02 
  48748.1238     0.31981E+02 
  48780.3859     0.31877E+02 
  48812.6481     0.31773E+02 
  48844.9102     0.31669E+02 
  48877.1724     0.31564E+02 
  48909.4346     0.31459E+02 
  48941.6967     0.31354E+02 
  48973.9589     0.31249E+02 
  49006.2210     0.31143E+02 
  49038.4832     0.31037E+02 
  49070.7454     0.30931E+02 
  49103.0075     0.30825E+02 
  49135.2697     0.30718E+02 
  49167.5318     0.30612E+02 
  49199.7940     0.30505E+02 
  49232.0562     0.30397E+02 
  49264.3183     0.30290E+02 
  49296.5805     0.30182E+02 
  49328.8426     0.30074E+02 
  49361.1048     0.29966E+02 
  49393.3670     0.29858E+02 
  49425.6291     0.29750E+02 
  49457.8913     0.29641E+02 
  49490.1534     0.29532E+02 
  49522.4156     0.29423E+02 
  49554.6778     0.29314E+02 
  49586.9399     0.29205E+02 
  49619.2021     0.29095E+02 
  49651.4642     0.28986E+02 
  49683.7264     0.28876E+02 
  49715.9886     0.28766E+02 
  49748.2507     0.28656E+02 
  49780.5129     0.28546E+02 
  49812.7750     0.28435E+02 
  49845.0372     0.28325E+02 
  49877.2994     0.28214E+02 
  49909.5615     0.28103E+02 
  49941.8237     0.27993E+02 
  49974.0858     0.27882E+02 
  50006.3480     0.27771E+02 
  50038.6102     0.27659E+02 
  50070.8723     0.27548E+02 
  50103.1345     0.27437E+02 
  50135.3966     0.27325E+02 
  50167.6588     0.27214E+02 
  50199.9210     0.27102E+02 
  50232.1831     0.26991E+02 
  50264.4453     0.26879E+02 
  50296.7074     0.26767E+02 
  50328.9696     0.26655E+02 
  50361.2318     0.26543E+02 
  50393.4939     0.26431E+02 
  50425.7561     0.26319E+02 
  50458.0182     0.26207E+02 
  50490.2804     0.26095E+02 
  50522.5426     0.25983E+02 
  50554.8047     0.25871E+02 
  50587.0669     0.25759E+02 
  50619.3290     0.25647E+02 
  50651.5912     0.25534E+02 
  50683.8534     0.25422E+02 
  50716.1155     0.25310E+02 
  50748.3777     0.25198E+02 
  50780.6398     0.25085E+02 
  50812.9020     0.24973E+02 
  50845.1642     0.24861E+02 
  50877.4263     0.24749E+02 
  50909.6885     0.24636E+02 
  50941.9506     0.24524E+02 
  50974.2128     0.24412E+02 
  51006.4750     0.24300E+02 
  51038.7371     0.24188E+02 
  51070.9993     0.24076E+02 
  51103.2614     0.23964E+02 
  51135.5236     0.23852E+02 
  51167.7858     0.23740E+02 
  51200.0479     0.23628E+02 
  51232.3101     0.23516E+02 
  51264.5722     0.23404E+02 
  51296.8344     0.23292E+02 
  51329.0966     0.23180E+02 
  51361.3587     0.23069E+02 
  51393.6209     0.22957E+02 
  51425.8830     0.22846E+02 
  51458.1452     0.22734E+02 
  51490.4074     0.22623E+02 
  51522.6695     0.22512E+02 
  51554.9317     0.22401E+02 
  51587.1938     0.22290E+02 
  51619.4560     0.22179E+02 
  51651.7182     0.22068E+02 
  51683.9803     0.21957E+02 
  51716.2425     0.21846E+02 
  51748.5046     0.21736E+02 
  51780.7668     0.21625E+02 
  51813.0290     0.21515E+02 
  51845.2911     0.21405E+02 
  51877.5533     0.21295E+02 
  51909.8154     0.21185E+02 
  51942.0776     0.21075E+02 
  51974.3398     0.20965E+02 
  52006.6019     0.20855E+02 
  52038.8641     0.20746E+02 
  52071.1262     0.20637E+02 
  52103.3884     0.20527E+02 
  52135.6506     0.20418E+02 
  52167.9127     0.20310E+02 
  52200.1749     0.20201E+02 
  52232.4370     0.20092E+02 
  52264.6992     0.19984E+02 
  52296.9614     0.19876E+02 
  52329.2235     0.19767E+02 
  52361.4857     0.19659E+02 
  52393.7478     0.19552E+02 
  52426.0100     0.19444E+02 
  52458.2722     0.19337E+02 
  52490.5343     0.19229E+02 
  52522.7965     0.19122E+02 
  52555.0586     0.19015E+02 
  52587.3208     0.18909E+02 
  52619.5830     0.18802E+02 
  52651.8451     0.18696E+02 
  52684.1073     0.18590E+02 
  52716.3694     0.18484E+02 
  52748.6316     0.18378E+02 
  52780.8938     0.18272E+02 
  52813.1559     0.18167E+02 
  52845.4181     0.18062E+02 
  52877.6802     0.17957E+02 
  52909.9424     0.17852E+02 
  52942.2046     0.17748E+02 
  52974.4667     0.17643E+02 
  53006.7289     0.17539E+02 
  53038.9910     0.17435E+02 
  53071.2532     0.17332E+02 
  53103.5154     0.17228E+02 
  53135.7775     0.17125E+02 
  53168.0397     0.17022E+02 
  53200.3018     0.16919E+02 
  53232.5640     0.16817E+02 
  53264.8262     0.16714E+02 
  53297.0883     0.16612E+02 
  53329.3505     0.16510E+02 
  53361.6126     0.16409E+02 
  53393.8748     0.16307E+02 
  53426.1370     0.16206E+02 
  53458.3991     0.16105E+02 
  53490.6613     0.16005E+02 
  53522.9234     0.15904E+02 
  53555.1856     0.15804E+02 
  53587.4478     0.15704E+02 
  53619.7099     0.15605E+02 
  53651.9721     0.15505E+02 
  53684.2342     0.15406E+02 
  53716.4964     0.15307E+02 
  53748.7586     0.15209E+02 
  53781.0207     0.15110E+02 
  53813.2829     0.15012E+02 
  53845.5450     0.14914E+02 
  53877.8072     0.14817E+02 
  53910.0694     0.14719E+02 
  53942.3315     0.14622E+02 
  53974.5937     0.14526E+02 
  54006.8558     0.14429E+02 
  54039.1180     0.14333E+02 
  54071.3802     0.14237E+02 
  54103.6423     0.14141E+02 
  54135.9045     0.14046E+02 
  54168.1666     0.13951E+02 
  54200.4288     0.13856E+02 
  54232.6910     0.13761E+02 
  54264.9531     0.13667E+02 
  54297.2153     0.13573E+02 
  54329.4774     0.13479E+02 
  54361.7396     0.13386E+02 
  54394.0018     0.13293E+02 
  54426.2639     0.13200E+02 
  54458.5261     0.13107E+02 
  54490.7882     0.13015E+02 
  54523.0504     0.12923E+02 
  54555.3126     0.12831E+02 
  54587.5747     0.12740E+02 
  54619.8369     0.12649E+02 
  54652.0990     0.12558E+02 
  54684.3612     0.12468E+02 
  54716.6234     0.12377E+02 
  54748.8855     0.12287E+02 
  54781.1477     0.12198E+02 
  54813.4098     0.12109E+02 
  54845.6720     0.12020E+02 
  54877.9342     0.11931E+02 
  54910.1963     0.11842E+02 
  54942.4585     0.11754E+02 
  54974.7206     0.11667E+02 
  55006.9828     0.11579E+02 
  55039.2450     0.11492E+02 
  55071.5071     0.11405E+02 
  55103.7693     0.11318E+02 
  55136.0314     0.11232E+02 
  55168.2936     0.11146E+02 
  55200.5558     0.11061E+02 
  55232.8179     0.10975E+02 
  55265.0801     0.10890E+02 
  55297.3422     0.10806E+02 
  55329.6044     0.10721E+02 
  55361.8666     0.10637E+02 
  55394.1287     0.10554E+02 
  55426.3909     0.10470E+02 
  55458.6530     0.10387E+02 
  55490.9152     0.10304E+02 
  55523.1774     0.10222E+02 
  55555.4395     0.10140E+02 
  55587.7017     0.10058E+02 
  55619.9638     0.99762E+01 
  55652.2260     0.98950E+01 
  55684.4882     0.98141E+01 
  55716.7503     0.97336E+01 
  55749.0125     0.96533E+01 
  55781.2746     0.95734E+01 
  55813.5368     0.94938E+01 
  55845.7990     0.94146E+01 
  55878.0611     0.93356E+01 
  55910.3233     0.92570E+01 
  55942.5854     0.91787E+01 
  55974.8476     0.91007E+01 
  56007.1098     0.90231E+01 
  56039.3719     0.89457E+01 
  56071.6341     0.88687E+01 
  56103.8962     0.87920E+01 
  56136.1584     0.87157E+01 
  56168.4206     0.86397E+01 
  56200.6827     0.85640E+01 
  56232.9449     0.84886E+01 
  56265.2070     0.84136E+01 
  56297.4692     0.83388E+01 
  56329.7314     0.82644E+01 
  56361.9935     0.81904E+01 
  56394.2557     0.81166E+01 
  56426.5178     0.80432E+01 
  56458.7800     0.79702E+01 
  56491.0422     0.78974E+01 
  56523.3043     0.78250E+01 
  56555.5665     0.77529E+01 
  56587.8286     0.76811E+01 
  56620.0908     0.76097E+01 
  56652.3530     0.75386E+01 
  56684.6151     0.74678E+01 
  56716.8773     0.73974E+01 
  56749.1394     0.73273E+01 
  56781.4016     0.72575E+01 
  56813.6638     0.71881E+01 
  56845.9259     0.71189E+01 
  56878.1881     0.70502E+01 
  56910.4502     0.69817E+01 
  56942.7124     0.69136E+01 
  56974.9746     0.68458E+01 
  57007.2367     0.67783E+01 
  57039.4989     0.67112E+01 
  57071.7610     0.66444E+01 
  57104.0232     0.65779E+01 
  57136.2854     0.65118E+01 
  57168.5475     0.64460E+01 
  57200.8097     0.63805E+01 
  57233.0718     0.63154E+01 
  57265.3340     0.62506E+01 
  57297.5962     0.61861E+01 
  57329.8583     0.61220E+01 
  57362.1205     0.60582E+01 
  57394.3826     0.59947E+01 
  57426.6448     0.59316E+01 
  57458.9070     0.58688E+01 
  57491.1691     0.58063E+01 
  57523.4313     0.57442E+01 
  57555.6934     0.56824E+01 
  57587.9556     0.56209E+01 
  57620.2178     0.55598E+01 
  57652.4799     0.54990E+01 
  57684.7421     0.54385E+01 
  57717.0042     0.53784E+01 
  57749.2664     0.53186E+01 
  57781.5286     0.52591E+01 
  57813.7907     0.52000E+01 
  57846.0529     0.51412E+01 
  57878.3150     0.50827E+01 
  57910.5772     0.50246E+01 
  57942.8394     0.49668E+01 
  57975.1015     0.49094E+01 
  58007.3637     0.48523E+01 
  58039.6258     0.47955E+01 
  58071.8880     0.47391E+01 
  58104.1502     0.46830E+01 
  58136.4123     0.46272E+01 
  58168.6745     0.45718E+01 
  58200.9366     0.45167E+01 
  58233.1988     0.44619E+01 
  58265.4610     0.44075E+01 
  58297.7231     0.43534E+01 
  58329.9853     0.42997E+01 
  58362.2474     0.42463E+01 
  58394.5096     0.41932E+01 
  58426.7718     0.41405E+01 
  58459.0339     0.40881E+01 
  58491.2961     0.40361E+01 
  58523.5582     0.39844E+01 
  58555.8204     0.39330E+01 
  58588.0826     0.38820E+01 
  58620.3447     0.38314E+01 
  58652.6069     0.37810E+01 
  58684.8690     0.37310E+01 
  58717.1312     0.36814E+01 
  58749.3934     0.36321E+01 
  58781.6555     0.35832E+01 
  58813.9177     0.35345E+01 
  58846.1798     0.34863E+01 
  58878.4420     0.34384E+01 
  58910.7042     0.33908E+01 
  58942.9663     0.33436E+01 
  58975.2285     0.32967E+01 
  59007.4906     0.32502E+01 
  59039.7528     0.32040E+01 
  59072.0150     0.31582E+01 
  59104.2771     0.31127E+01 
  59136.5393     0.30676E+01 
  59168.8014     0.30228E+01 
  59201.0636     0.29784E+01 
  59233.3258     0.29343E+01 
  59265.5879     0.28906E+01 
  59297.8501     0.28473E+01 
  59330.1122     0.28043E+01 
  59362.3744     0.27617E+01 
  59394.6366     0.27194E+01 
  59426.8987     0.26775E+01 
  59459.1609     0.26359E+01 
  59491.4230     0.25947E+01 
  59523.6852     0.25539E+01 
  59555.9474     0.25134E+01 
  59588.2095     0.24733E+01 
  59620.4717     0.24336E+01 
  59652.7338     0.23942E+01 
  59684.9960     0.23552E+01 
  59717.2582     0.23166E+01 
  59749.5203     0.22784E+01 
  59781.7825     0.22405E+01 
  59814.0446     0.22030E+01 
  59846.3068     0.21659E+01 
  59878.5690     0.21291E+01 
  59910.8311     0.20928E+01 
  59943.0933     0.20568E+01 
  59975.3554     0.20212E+01 
  60007.6176     0.19860E+01 
  60039.8798     0.19511E+01 
  60072.1419     0.19167E+01 
  60104.4041     0.18826E+01 
  60136.6662     0.18490E+01 
  60168.9284     0.18157E+01 
  60201.1906     0.17828E+01 
  60233.4527     0.17504E+01 
  60265.7149     0.17183E+01 
  60297.9770     0.16866E+01 
  60330.2392     0.16554E+01 
  60362.5014     0.16245E+01 
  60394.7635     0.15940E+01 
  60427.0257     0.15640E+01 
  60459.2878     0.15344E+01 
  60491.5500     0.15052E+01 
  60523.8122     0.14764E+01 
  60556.0743     0.14480E+01 
  60588.3365     0.14201E+01 
  60620.5986     0.13925E+01 
  60652.8608     0.13655E+01 
  60685.1230     0.13388E+01 
  60717.3851     0.13126E+01 
  60749.6473     0.12868E+01 
  60781.9094     0.12614E+01 
  60814.1716     0.12365E+01 
  60846.4338     0.12121E+01 
  60878.6959     0.11881E+01 
  60910.9581     0.11645E+01 
  60943.2202     0.11415E+01 
  60975.4824     0.11188E+01 
  61007.7446     0.10967E+01 
  61040.0067     0.10750E+01 
  61072.2689     0.10537E+01 
  61104.5310     0.10330E+01 
  61136.7932     0.10127E+01 
  61169.0554     0.99291E+00 
  61201.3175     0.97360E+00 
  61233.5797     0.95479E+00 
  61265.8418     0.93647E+00 
  61298.1040     0.91864E+00 
  61330.3662     0.90133E+00 
  61362.6283     0.88451E+00 
  61394.8905     0.86821E+00 
  61427.1526     0.85243E+00 
  61459.4148     0.83717E+00 
  61491.6770     0.82243E+00 
  61523.9391     0.80822E+00 
  61556.2013     0.79455E+00 
  61588.4634     0.78142E+00 
  61620.7256     0.76884E+00 
  61652.9878     0.75680E+00 
  61685.2499     0.74532E+00 
  61717.5121     0.73440E+00 
  61749.7742     0.72405E+00 
  61782.0364     0.71427E+00 
  61814.2986     0.70507E+00 
  61846.5607     0.69645E+00 
  61878.8229     0.68842E+00 
  61911.0850     0.68098E+00 
  61943.3472     0.67415E+00 
  61975.6094     0.66793E+00 
  62007.8715     0.66231E+00 
  62040.1337     0.65732E+00 
  62072.3958     0.65296E+00 
  62104.6580     0.64922E+00 
  62136.9202     0.64613E+00 
  62169.1823     0.64368E+00 
  62201.4445     0.64189E+00 
  62233.7066     0.64076E+00 
  62265.9688     0.64029E+00 
  62298.2310     0.64050E+00 
  62330.4931     0.64140E+00 
  62362.7553     0.64298E+00 
  62395.0174     0.64526E+00 
  62427.2796     0.64825E+00 
  62459.5418     0.65194E+00 
  62491.8039     0.65636E+00 
  62524.0661     0.66151E+00 
  62556.3282     0.66740E+00 
  62588.5904     0.67403E+00 
  62620.8526     0.68142E+00 
  62653.1147     0.68957E+00 
  62685.3769     0.69850E+00 
  62717.6390     0.70820E+00 
  62749.9012     0.71869E+00 
  62782.1634     0.72999E+00 
  62814.4255     0.74209E+00 
  62846.6877     0.75501E+00 
  62878.9498     0.76876E+00 
  62911.2120     0.78334E+00 
  62943.4742     0.79878E+00 
  62975.7363     0.81507E+00 
  63007.9985     0.83222E+00 
  63040.2606     0.85026E+00 
  63072.5228     0.86918E+00 
  63104.7850     0.88901E+00 
  63137.0471     0.90974E+00 
  63169.3093     0.93140E+00 
  63201.5714     0.95398E+00 
  63233.8336     0.97751E+00 
  63266.0958     0.10020E+01 
  63298.3579     0.10275E+01 
  63330.6201     0.10539E+01 
  63362.8822     0.10813E+01 
  63395.1444     0.11097E+01 
  63427.4066     0.11392E+01 
  63459.6687     0.11696E+01 
  63491.9309     0.12011E+01 
  63524.1930     0.12337E+01 
  63556.4552     0.12673E+01 
  63588.7174     0.13020E+01 
  63620.9795     0.13378E+01 
  63653.2417     0.13747E+01 
  63685.5038     0.14127E+01 
  63717.7660     0.14518E+01 
  63750.0282     0.14921E+01 
  63782.2903     0.15336E+01 
  63814.5525     0.15762E+01 
  63846.8146     0.16200E+01 
  63879.0768     0.16650E+01 
  63911.3390     0.17113E+01 
  63943.6011     0.17587E+01 
  63975.8633     0.18075E+01 
  64008.1254     0.18574E+01 
  64040.3876     0.19087E+01 
  64072.6498     0.19613E+01 
  64104.9119     0.20151E+01 
  64137.1741     0.20703E+01 
  64169.4362     0.21269E+01 
  64201.6984     0.21848E+01 
  64233.9606     0.22441E+01 
  64266.2227     0.23047E+01 
  64298.4849     0.23668E+01 
  64330.7470     0.24303E+01 
  64363.0092     0.24953E+01 
  64395.2714     0.25617E+01 
  64427.5335     0.26296E+01 
  64459.7957     0.26990E+01 
  64492.0578     0.27699E+01 
  64524.3200     0.28424E+01 
  64556.5822     0.29164E+01 
  64588.8443     0.29920E+01 
  64621.1065     0.30692E+01 
  64653.3686     0.31480E+01 
  64685.6308     0.32284E+01 
  64717.8930     0.33105E+01 
  64750.1551     0.33942E+01 
  64782.4173     0.34797E+01 
  64814.6794     0.35668E+01 
  64846.9416     0.36557E+01 
  64879.2038     0.37464E+01 
  64911.4659     0.38388E+01 
  64943.7281     0.39330E+01 
  64975.9902     0.40290E+01 
  65008.2524     0.41269E+01 
  65040.5146     0.42267E+01 
  65072.7767     0.43283E+01 
  65105.0389     0.44318E+01 
  65137.3010     0.45372E+01 
  65169.5632     0.46446E+01 
  65201.8254     0.47540E+01 
  65234.0875     0.48654E+01 
  65266.3497     0.49788E+01 
  65298.6118     0.50942E+01 
  65330.8740     0.52117E+01 
  65363.1362     0.53313E+01 
  65395.3983     0.54530E+01 
  65427.6605     0.55768E+01 
  65459.9226     0.57029E+01 
  65492.1848     0.58311E+01 
  65524.4470     0.59615E+01 
  65556.7091     0.60941E+01 
  65588.9713     0.62290E+01 
  65621.2334     0.63663E+01 
  65653.4956     0.65058E+01 
  65685.7578     0.66477E+01 
  65718.0199     0.67919E+01 
  65750.2821     0.69385E+01 
  65782.5442     0.70876E+01 
  65814.8064     0.72391E+01 
  65847.0686     0.73931E+01 
  65879.3307     0.75496E+01 
  65911.5929     0.77086E+01 
  65943.8550     0.78702E+01 
  65976.1172     0.80343E+01 
  66008.3794     0.82011E+01 
  66040.6415     0.83706E+01 
  66072.9037     0.85427E+01 
  66105.1658     0.87175E+01 
  66137.4280     0.88950E+01 
  66169.6902     0.90753E+01 
  66201.9523     0.92584E+01 
  66234.2145     0.94443E+01 
  66266.4766     0.96331E+01 
  66298.7388     0.98247E+01 
  66331.0010     0.10019E+02 
  66363.2631     0.10217E+02 
  66395.5253     0.10417E+02 
  66427.7874     0.10621E+02 
  66460.0496     0.10827E+02 
  66492.3118     0.11037E+02 
  66524.5739     0.11249E+02 
  66556.8361     0.11465E+02 
  66589.0982     0.11684E+02 
  66621.3604     0.11906E+02 
  66653.6226     0.12132E+02 
  66685.8847     0.12360E+02 
  66718.1469     0.12592E+02 
  66750.4090     0.12828E+02 
  66782.6712     0.13066E+02 
  66814.9334     0.13308E+02 
  66847.1955     0.13554E+02 
  66879.4577     0.13802E+02 
  66911.7198     0.14055E+02 
  66943.9820     0.14311E+02 
  66976.2442     0.14570E+02 
  67008.5063     0.14833E+02 
  67040.7685     0.15100E+02 
  67073.0306     0.15370E+02 
  67105.2928     0.15644E+02 
  67137.5550     0.15922E+02 
  67169.8171     0.16204E+02 
  67202.0793     0.16489E+02 
  67234.3414     0.16778E+02 
  67266.6036     0.17071E+02 
  67298.8658     0.17368E+02 
  67331.1279     0.17669E+02 
  67363.3901     0.17974E+02 
  67395.6522     0.18283E+02 
  67427.9144     0.18596E+02 
  67460.1766     0.18913E+02 
  67492.4387     0.19234E+02 
  67524.7009     0.19559E+02 
  67556.9630     0.19889E+02 
  67589.2252     0.20223E+02 
  67621.4874     0.20561E+02 
  67653.7495     0.20903E+02 
  67686.0117     0.21250E+02 
  67718.2738     0.21601E+02 
  67750.5360     0.21956E+02 
  67782.7982     0.22316E+02 
  67815.0603     0.22681E+02 
  67847.3225     0.23050E+02 
  67879.5846     0.23423E+02 
  67911.8468     0.23802E+02 
  67944.1090     0.24185E+02 
  67976.3711     0.24572E+02 
  68008.6333     0.24964E+02 
  68040.8954     0.25361E+02 
  68073.1576     0.25763E+02 
  68105.4198     0.26170E+02 
  68137.6819     0.26582E+02 
  68169.9441     0.26998E+02 
  68202.2062     0.27420E+02 
  68234.4684     0.27846E+02 
  68266.7306     0.28277E+02 
  68298.9927     0.28714E+02 
  68331.2549     0.29156E+02 
  68363.5170     0.29603E+02 
  68395.7792     0.30055E+02 
  68428.0414     0.30512E+02 
  68460.3035     0.30974E+02 
  68492.5657     0.31442E+02 
  68524.8278     0.31915E+02 
  68557.0900     0.32394E+02 
  68589.3522     0.32878E+02 
  68621.6143     0.33367E+02 
  68653.8765     0.33862E+02 
  68686.1386     0.34363E+02 
  68718.4008     0.34869E+02 
  68750.6630     0.35380E+02 
  68782.9251     0.35898E+02 
  68815.1873     0.36421E+02 
  68847.4494     0.36950E+02 
  68879.7116     0.37484E+02 
  68911.9738     0.38025E+02 
  68944.2359     0.38571E+02 
  68976.4981     0.39123E+02 
  69008.7602     0.39681E+02 
  69041.0224     0.40245E+02 
  69073.2846     0.40815E+02 
  69105.5467     0.41391E+02 
  69137.8089     0.41973E+02 
  69170.0710     0.42561E+02 
  69202.3332     0.43155E+02 
  69234.5954     0.43756E+02 
  69266.8575     0.44363E+02 
  69299.1197     0.44976E+02 
  69331.3818     0.45595E+02 
  69363.6440     0.46221E+02 
  69395.9062     0.46853E+02 
  69428.1683     0.47491E+02 
  69460.4305     0.48136E+02 
  69492.6926     0.48788E+02 
  69524.9548     0.49446E+02 
  69557.2170     0.50110E+02 
  69589.4791     0.50781E+02 
  69621.7413     0.51459E+02 
  69654.0034     0.52143E+02 
  69686.2656     0.52834E+02 
  69718.5278     0.53532E+02 
  69750.7899     0.54237E+02 
  69783.0521     0.54948E+02 
  69815.3142     0.55667E+02 
  69847.5764     0.56392E+02 
  69879.8386     0.57124E+02 
  69912.1007     0.57863E+02 
  69944.3629     0.58609E+02 
  69976.6250     0.59362E+02 
  70008.8872     0.60122E+02 
  70041.1494     0.60889E+02 
  70073.4115     0.61663E+02 
  70105.6737     0.62444E+02 
  70137.9358     0.63233E+02 
  70170.1980     0.64028E+02 
  70202.4602     0.64831E+02 
  70234.7223     0.65641E+02 
  70266.9845     0.66459E+02 
  70299.2466     0.67283E+02 
  70331.5088     0.68116E+02 
  70363.7710     0.68955E+02 
  70396.0331     0.69802E+02 
  70428.2953     0.70656E+02 
  70460.5574     0.71518E+02 
  70492.8196     0.72388E+02 
  70525.0818     0.73264E+02 
  70557.3439     0.74149E+02 
  70589.6061     0.75041E+02 
  70621.8682     0.75940E+02 
  70654.1304     0.76848E+02 
  70686.3926     0.77762E+02 
  70718.6547     0.78685E+02 
  70750.9169     0.79615E+02 
  70783.1790     0.80553E+02 
  70815.4412     0.81499E+02 
  70847.7034     0.82452E+02 
  70879.9655     0.83414E+02 
  70912.2277     0.84383E+02 
  70944.4898     0.85360E+02 
  70976.7520     0.86345E+02 
  71009.0142     0.87337E+02 
  71041.2763     0.88338E+02 
  71073.5385     0.89346E+02 
  71105.8006     0.90363E+02 
  71138.0628     0.91387E+02 
  71170.3250     0.92420E+02 
  71202.5871     0.93460E+02 
  71234.8493     0.94509E+02 
  71267.1114     0.95565E+02 
  71299.3736     0.96630E+02 
  71331.6358     0.97702E+02 
  71363.8979     0.98783E+02 
  71396.1601     0.99872E+02 
  71428.4222     0.10097E+03 
  71460.6844     0.10207E+03 
  71492.9466     0.10319E+03 
  71525.2087     0.10431E+03 
  71557.4709     0.10544E+03 
  71589.7330     0.10658E+03 
  71621.9952     0.10772E+03 
  71654.2574     0.10887E+03 
  71686.5195     0.11004E+03 
  71718.7817     0.11121E+03 
  71751.0438     0.11239E+03 
  71783.3060     0.11357E+03 
  71815.5682     0.11477E+03 
  71847.8303     0.11597E+03 
  71880.0925     0.11718E+03 
  71912.3546     0.11840E+03 
  71944.6168     0.11963E+03 
  71976.8790     0.12087E+03 
  72009.1411     0.12211E+03 
  72041.4033     0.12336E+03 
  72073.6654     0.12463E+03 
  72105.9276     0.12589E+03 
  72138.1898     0.12717E+03 
  72170.4519     0.12846E+03 
  72202.7141     0.12975E+03 
  72234.9762     0.13105E+03 
  72267.2384     0.13236E+03 
  72299.5006     0.13368E+03 
  72331.7627     0.13501E+03 
  72364.0249     0.13635E+03 
  72396.2870     0.13769E+03 
  72428.5492     0.13904E+03 
  72460.8114     0.14040E+03 
  72493.0735     0.14177E+03 
  72525.3357     0.14315E+03 
  72557.5978     0.14453E+03 
  72589.8600     0.14592E+03 
