  32262.1600     0.39573E-02 
  32294.4222     0.39975E-02 
  32326.6843     0.40380E-02 
  32358.9465     0.40788E-02 
  32391.2086     0.41198E-02 
  32423.4708     0.41611E-02 
  32455.7330     0.42027E-02 
  32487.9951     0.42445E-02 
  32520.2573     0.42866E-02 
  32552.5194     0.43290E-02 
  32584.7816     0.43716E-02 
  32617.0438     0.44145E-02 
  32649.3059     0.44577E-02 
  32681.5681     0.45011E-02 
  32713.8302     0.45448E-02 
  32746.0924     0.45888E-02 
  32778.3546     0.46330E-02 
  32810.6167     0.46775E-02 
  32842.8789     0.47222E-02 
  32875.1410     0.47672E-02 
  32907.4032     0.48125E-02 
  32939.6654     0.48581E-02 
  32971.9275     0.49039E-02 
  33004.1897     0.49499E-02 
  33036.4518     0.49962E-02 
  33068.7140     0.50428E-02 
  33100.9762     0.50897E-02 
  33133.2383     0.51368E-02 
  33165.5005     0.51841E-02 
  33197.7626     0.52317E-02 
  33230.0248     0.52796E-02 
  33262.2870     0.53277E-02 
  33294.5491     0.53761E-02 
  33326.8113     0.54248E-02 
  33359.0734     0.54737E-02 
  33391.3356     0.55228E-02 
  33423.5978     0.55722E-02 
  33455.8599     0.56219E-02 
  33488.1221     0.56718E-02 
  33520.3842     0.57219E-02 
  33552.6464     0.57723E-02 
  33584.9086     0.58230E-02 
  33617.1707     0.58739E-02 
  33649.4329     0.59250E-02 
  33681.6950     0.59764E-02 
  33713.9572     0.60281E-02 
  33746.2194     0.60800E-02 
  33778.4815     0.61321E-02 
  33810.7437     0.61845E-02 
  33843.0058     0.62371E-02 
  33875.2680     0.62899E-02 
  33907.5302     0.63430E-02 
  33939.7923     0.63963E-02 
  33972.0545     0.64499E-02 
  34004.3166     0.65036E-02 
  34036.5788     0.65577E-02 
  34068.8410     0.66119E-02 
  34101.1031     0.66664E-02 
  34133.3653     0.67211E-02 
  34165.6274     0.67760E-02 
  34197.8896     0.68312E-02 
  34230.1518     0.68866E-02 
  34262.4139     0.69422E-02 
  34294.6761     0.69980E-02 
  34326.9382     0.70541E-02 
  34359.2004     0.71103E-02 
  34391.4626     0.71668E-02 
  34423.7247     0.72235E-02 
  34455.9869     0.72804E-02 
  34488.2490     0.73376E-02 
  34520.5112     0.73949E-02 
  34552.7734     0.74524E-02 
  34585.0355     0.75102E-02 
  34617.2977     0.75681E-02 
  34649.5598     0.76263E-02 
  34681.8220     0.76846E-02 
  34714.0842     0.77432E-02 
  34746.3463     0.78019E-02 
  34778.6085     0.78608E-02 
  34810.8706     0.79200E-02 
  34843.1328     0.79793E-02 
  34875.3950     0.80388E-02 
  34907.6571     0.80985E-02 
  34939.9193     0.81584E-02 
  34972.1814     0.82184E-02 
  35004.4436     0.82787E-02 
  35036.7058     0.83391E-02 
  35068.9679     0.83997E-02 
  35101.2301     0.84605E-02 
  35133.4922     0.85214E-02 
  35165.7544     0.85825E-02 
  35198.0166     0.86438E-02 
  35230.2787     0.87052E-02 
  35262.5409     0.87668E-02 
  35294.8030     0.88286E-02 
  35327.0652     0.88905E-02 
  35359.3274     0.89526E-02 
  35391.5895     0.90148E-02 
  35423.8517     0.90772E-02 
  35456.1138     0.91397E-02 
  35488.3760     0.92024E-02 
  35520.6382     0.92652E-02 
  35552.9003     0.93281E-02 
  35585.1625     0.93912E-02 
  35617.4246     0.94544E-02 
  35649.6868     0.95178E-02 
  35681.9490     0.95813E-02 
  35714.2111     0.96449E-02 
  35746.4733     0.97086E-02 
  35778.7354     0.97725E-02 
  35810.9976     0.98364E-02 
  35843.2598     0.99005E-02 
  35875.5219     0.99647E-02 
  35907.7841     0.10029E-01 
  35940.0462     0.10093E-01 
  35972.3084     0.10158E-01 
  36004.5706     0.10223E-01 
  36036.8327     0.10287E-01 
  36069.0949     0.10352E-01 
  36101.3570     0.10417E-01 
  36133.6192     0.10482E-01 
  36165.8814     0.10547E-01 
  36198.1435     0.10612E-01 
  36230.4057     0.10678E-01 
  36262.6678     0.10743E-01 
  36294.9300     0.10808E-01 
  36327.1922     0.10874E-01 
  36359.4543     0.10939E-01 
  36391.7165     0.11005E-01 
  36423.9786     0.11071E-01 
  36456.2408     0.11136E-01 
  36488.5030     0.11202E-01 
  36520.7651     0.11268E-01 
  36553.0273     0.11334E-01 
  36585.2894     0.11400E-01 
  36617.5516     0.11466E-01 
  36649.8138     0.11532E-01 
  36682.0759     0.11598E-01 
  36714.3381     0.11664E-01 
  36746.6002     0.11730E-01 
  36778.8624     0.11796E-01 
  36811.1246     0.11862E-01 
  36843.3867     0.11928E-01 
  36875.6489     0.11995E-01 
  36907.9110     0.12061E-01 
  36940.1732     0.12127E-01 
  36972.4354     0.12193E-01 
  37004.6975     0.12259E-01 
  37036.9597     0.12326E-01 
  37069.2218     0.12392E-01 
  37101.4840     0.12458E-01 
  37133.7462     0.12524E-01 
  37166.0083     0.12591E-01 
  37198.2705     0.12657E-01 
  37230.5326     0.12723E-01 
  37262.7948     0.12789E-01 
  37295.0570     0.12855E-01 
  37327.3191     0.12921E-01 
  37359.5813     0.12987E-01 
  37391.8434     0.13053E-01 
  37424.1056     0.13119E-01 
  37456.3678     0.13185E-01 
  37488.6299     0.13251E-01 
  37520.8921     0.13317E-01 
  37553.1542     0.13382E-01 
  37585.4164     0.13448E-01 
  37617.6786     0.13514E-01 
  37649.9407     0.13579E-01 
  37682.2029     0.13645E-01 
  37714.4650     0.13710E-01 
  37746.7272     0.13775E-01 
  37778.9894     0.13841E-01 
  37811.2515     0.13906E-01 
  37843.5137     0.13971E-01 
  37875.7758     0.14036E-01 
  37908.0380     0.14101E-01 
  37940.3002     0.14166E-01 
  37972.5623     0.14230E-01 
  38004.8245     0.14295E-01 
  38037.0866     0.14359E-01 
  38069.3488     0.14424E-01 
  38101.6110     0.14488E-01 
  38133.8731     0.14552E-01 
  38166.1353     0.14616E-01 
  38198.3974     0.14680E-01 
  38230.6596     0.14743E-01 
  38262.9218     0.14807E-01 
  38295.1839     0.14870E-01 
  38327.4461     0.14934E-01 
  38359.7082     0.14997E-01 
  38391.9704     0.15060E-01 
  38424.2326     0.15123E-01 
  38456.4947     0.15185E-01 
  38488.7569     0.15248E-01 
  38521.0190     0.15310E-01 
  38553.2812     0.15373E-01 
  38585.5434     0.15435E-01 
  38617.8055     0.15496E-01 
  38650.0677     0.15558E-01 
  38682.3298     0.15620E-01 
  38714.5920     0.15681E-01 
  38746.8542     0.15742E-01 
  38779.1163     0.15803E-01 
  38811.3785     0.15864E-01 
  38843.6406     0.15924E-01 
  38875.9028     0.15984E-01 
  38908.1650     0.16044E-01 
  38940.4271     0.16104E-01 
  38972.6893     0.16164E-01 
  39004.9514     0.16223E-01 
  39037.2136     0.16283E-01 
  39069.4758     0.16342E-01 
  39101.7379     0.16400E-01 
  39134.0001     0.16459E-01 
  39166.2622     0.16517E-01 
  39198.5244     0.16575E-01 
  39230.7866     0.16633E-01 
  39263.0487     0.16691E-01 
  39295.3109     0.16748E-01 
  39327.5730     0.16805E-01 
  39359.8352     0.16862E-01 
  39392.0974     0.16919E-01 
  39424.3595     0.16975E-01 
  39456.6217     0.17031E-01 
  39488.8838     0.17087E-01 
  39521.1460     0.17142E-01 
  39553.4082     0.17197E-01 
  39585.6703     0.17252E-01 
  39617.9325     0.17307E-01 
  39650.1946     0.17361E-01 
  39682.4568     0.17415E-01 
  39714.7190     0.17469E-01 
  39746.9811     0.17523E-01 
  39779.2433     0.17576E-01 
  39811.5054     0.17629E-01 
  39843.7676     0.17681E-01 
  39876.0298     0.17734E-01 
  39908.2919     0.17785E-01 
  39940.5541     0.17837E-01 
  39972.8162     0.17888E-01 
  40005.0784     0.17939E-01 
  40037.3406     0.17990E-01 
  40069.6027     0.18040E-01 
  40101.8649     0.18090E-01 
  40134.1270     0.18140E-01 
  40166.3892     0.18190E-01 
  40198.6514     0.18239E-01 
  40230.9135     0.18287E-01 
  40263.1757     0.18336E-01 
  40295.4378     0.18384E-01 
  40327.7000     0.18431E-01 
  40359.9622     0.18478E-01 
  40392.2243     0.18525E-01 
  40424.4865     0.18572E-01 
  40456.7486     0.18618E-01 
  40489.0108     0.18664E-01 
  40521.2730     0.18709E-01 
  40553.5351     0.18755E-01 
  40585.7973     0.18799E-01 
  40618.0594     0.18844E-01 
  40650.3216     0.18888E-01 
  40682.5838     0.18931E-01 
  40714.8459     0.18975E-01 
  40747.1081     0.19017E-01 
  40779.3702     0.19060E-01 
  40811.6324     0.19102E-01 
  40843.8946     0.19144E-01 
  40876.1567     0.19185E-01 
  40908.4189     0.19226E-01 
  40940.6810     0.19266E-01 
  40972.9432     0.19306E-01 
  41005.2054     0.19346E-01 
  41037.4675     0.19385E-01 
  41069.7297     0.19424E-01 
  41101.9918     0.19463E-01 
  41134.2540     0.19501E-01 
  41166.5162     0.19538E-01 
  41198.7783     0.19575E-01 
  41231.0405     0.19612E-01 
  41263.3026     0.19649E-01 
  41295.5648     0.19685E-01 
  41327.8270     0.19720E-01 
  41360.0891     0.19755E-01 
  41392.3513     0.19790E-01 
  41424.6134     0.19824E-01 
  41456.8756     0.19858E-01 
  41489.1378     0.19891E-01 
  41521.3999     0.19924E-01 
  41553.6621     0.19957E-01 
  41585.9242     0.19989E-01 
  41618.1864     0.20020E-01 
  41650.4486     0.20052E-01 
  41682.7107     0.20082E-01 
  41714.9729     0.20113E-01 
  41747.2350     0.20143E-01 
  41779.4972     0.20172E-01 
  41811.7594     0.20201E-01 
  41844.0215     0.20229E-01 
  41876.2837     0.20257E-01 
  41908.5458     0.20285E-01 
  41940.8080     0.20312E-01 
  41973.0702     0.20339E-01 
  42005.3323     0.20365E-01 
  42037.5945     0.20391E-01 
  42069.8566     0.20416E-01 
  42102.1188     0.20441E-01 
  42134.3810     0.20465E-01 
  42166.6431     0.20489E-01 
  42198.9053     0.20513E-01 
  42231.1674     0.20536E-01 
  42263.4296     0.20558E-01 
  42295.6918     0.20580E-01 
  42327.9539     0.20602E-01 
  42360.2161     0.20623E-01 
  42392.4782     0.20643E-01 
  42424.7404     0.20663E-01 
  42457.0026     0.20683E-01 
  42489.2647     0.20702E-01 
  42521.5269     0.20721E-01 
  42553.7890     0.20739E-01 
  42586.0512     0.20757E-01 
  42618.3134     0.20774E-01 
  42650.5755     0.20791E-01 
  42682.8377     0.20807E-01 
  42715.0998     0.20823E-01 
  42747.3620     0.20839E-01 
  42779.6242     0.20854E-01 
  42811.8863     0.20868E-01 
  42844.1485     0.20882E-01 
  42876.4106     0.20895E-01 
  42908.6728     0.20908E-01 
  42940.9350     0.20921E-01 
  42973.1971     0.20933E-01 
  43005.4593     0.20944E-01 
  43037.7214     0.20955E-01 
  43069.9836     0.20966E-01 
  43102.2458     0.20976E-01 
  43134.5079     0.20985E-01 
  43166.7701     0.20994E-01 
  43199.0322     0.21003E-01 
  43231.2944     0.21011E-01 
  43263.5566     0.21019E-01 
  43295.8187     0.21026E-01 
  43328.0809     0.21033E-01 
  43360.3430     0.21039E-01 
  43392.6052     0.21044E-01 
  43424.8674     0.21050E-01 
  43457.1295     0.21054E-01 
  43489.3917     0.21059E-01 
  43521.6538     0.21062E-01 
  43553.9160     0.21066E-01 
  43586.1782     0.21068E-01 
  43618.4403     0.21071E-01 
  43650.7025     0.21073E-01 
  43682.9646     0.21074E-01 
  43715.2268     0.21075E-01 
  43747.4890     0.21075E-01 
  43779.7511     0.21075E-01 
  43812.0133     0.21074E-01 
  43844.2754     0.21073E-01 
  43876.5376     0.21072E-01 
  43908.7998     0.21070E-01 
  43941.0619     0.21067E-01 
  43973.3241     0.21064E-01 
  44005.5862     0.21061E-01 
  44037.8484     0.21057E-01 
  44070.1106     0.21052E-01 
  44102.3727     0.21048E-01 
  44134.6349     0.21042E-01 
  44166.8970     0.21036E-01 
  44199.1592     0.21030E-01 
  44231.4214     0.21023E-01 
  44263.6835     0.21016E-01 
  44295.9457     0.21008E-01 
  44328.2078     0.21000E-01 
  44360.4700     0.20992E-01 
  44392.7322     0.20982E-01 
  44424.9943     0.20973E-01 
  44457.2565     0.20963E-01 
  44489.5186     0.20952E-01 
  44521.7808     0.20941E-01 
  44554.0430     0.20930E-01 
  44586.3051     0.20918E-01 
  44618.5673     0.20906E-01 
  44650.8294     0.20893E-01 
  44683.0916     0.20880E-01 
  44715.3538     0.20866E-01 
  44747.6159     0.20852E-01 
  44779.8781     0.20837E-01 
  44812.1402     0.20822E-01 
  44844.4024     0.20807E-01 
  44876.6646     0.20791E-01 
  44908.9267     0.20774E-01 
  44941.1889     0.20757E-01 
  44973.4510     0.20740E-01 
  45005.7132     0.20722E-01 
  45037.9754     0.20704E-01 
  45070.2375     0.20686E-01 
  45102.4997     0.20666E-01 
  45134.7618     0.20647E-01 
  45167.0240     0.20627E-01 
  45199.2862     0.20607E-01 
  45231.5483     0.20586E-01 
  45263.8105     0.20565E-01 
  45296.0726     0.20543E-01 
  45328.3348     0.20521E-01 
  45360.5970     0.20499E-01 
  45392.8591     0.20476E-01 
  45425.1213     0.20452E-01 
  45457.3834     0.20429E-01 
  45489.6456     0.20405E-01 
  45521.9078     0.20380E-01 
  45554.1699     0.20355E-01 
  45586.4321     0.20330E-01 
  45618.6942     0.20304E-01 
  45650.9564     0.20278E-01 
  45683.2186     0.20251E-01 
  45715.4807     0.20224E-01 
  45747.7429     0.20197E-01 
  45780.0050     0.20169E-01 
  45812.2672     0.20141E-01 
  45844.5294     0.20112E-01 
  45876.7915     0.20083E-01 
  45909.0537     0.20054E-01 
  45941.3158     0.20024E-01 
  45973.5780     0.19994E-01 
  46005.8402     0.19964E-01 
  46038.1023     0.19933E-01 
  46070.3645     0.19901E-01 
  46102.6266     0.19870E-01 
  46134.8888     0.19838E-01 
  46167.1510     0.19805E-01 
  46199.4131     0.19773E-01 
  46231.6753     0.19740E-01 
  46263.9374     0.19706E-01 
  46296.1996     0.19672E-01 
  46328.4618     0.19638E-01 
  46360.7239     0.19604E-01 
  46392.9861     0.19569E-01 
  46425.2482     0.19533E-01 
  46457.5104     0.19498E-01 
  46489.7726     0.19462E-01 
  46522.0347     0.19426E-01 
  46554.2969     0.19389E-01 
  46586.5590     0.19352E-01 
  46618.8212     0.19315E-01 
  46651.0834     0.19277E-01 
  46683.3455     0.19239E-01 
  46715.6077     0.19201E-01 
  46747.8698     0.19162E-01 
  46780.1320     0.19123E-01 
  46812.3942     0.19084E-01 
  46844.6563     0.19044E-01 
  46876.9185     0.19005E-01 
  46909.1806     0.18964E-01 
  46941.4428     0.18924E-01 
  46973.7050     0.18883E-01 
  47005.9671     0.18842E-01 
  47038.2293     0.18800E-01 
  47070.4914     0.18759E-01 
  47102.7536     0.18717E-01 
  47135.0158     0.18674E-01 
  47167.2779     0.18632E-01 
  47199.5401     0.18589E-01 
  47231.8022     0.18546E-01 
  47264.0644     0.18502E-01 
  47296.3266     0.18458E-01 
  47328.5887     0.18414E-01 
  47360.8509     0.18370E-01 
  47393.1130     0.18325E-01 
  47425.3752     0.18281E-01 
  47457.6374     0.18235E-01 
  47489.8995     0.18190E-01 
  47522.1617     0.18144E-01 
  47554.4238     0.18098E-01 
  47586.6860     0.18052E-01 
  47618.9482     0.18006E-01 
  47651.2103     0.17959E-01 
  47683.4725     0.17912E-01 
  47715.7346     0.17865E-01 
  47747.9968     0.17818E-01 
  47780.2590     0.17770E-01 
  47812.5211     0.17722E-01 
  47844.7833     0.17674E-01 
  47877.0454     0.17626E-01 
  47909.3076     0.17577E-01 
  47941.5698     0.17528E-01 
  47973.8319     0.17479E-01 
  48006.0941     0.17430E-01 
  48038.3562     0.17381E-01 
  48070.6184     0.17331E-01 
  48102.8806     0.17281E-01 
  48135.1427     0.17231E-01 
  48167.4049     0.17180E-01 
  48199.6670     0.17130E-01 
  48231.9292     0.17079E-01 
  48264.1914     0.17028E-01 
  48296.4535     0.16977E-01 
  48328.7157     0.16926E-01 
  48360.9778     0.16874E-01 
  48393.2400     0.16823E-01 
  48425.5022     0.16771E-01 
  48457.7643     0.16719E-01 
  48490.0265     0.16667E-01 
  48522.2886     0.16614E-01 
  48554.5508     0.16562E-01 
  48586.8130     0.16509E-01 
  48619.0751     0.16456E-01 
  48651.3373     0.16403E-01 
  48683.5994     0.16350E-01 
  48715.8616     0.16296E-01 
  48748.1238     0.16243E-01 
  48780.3859     0.16189E-01 
  48812.6481     0.16135E-01 
  48844.9102     0.16081E-01 
  48877.1724     0.16027E-01 
  48909.4346     0.15972E-01 
  48941.6967     0.15918E-01 
  48973.9589     0.15863E-01 
  49006.2210     0.15809E-01 
  49038.4832     0.15754E-01 
  49070.7454     0.15699E-01 
  49103.0075     0.15644E-01 
  49135.2697     0.15588E-01 
  49167.5318     0.15533E-01 
  49199.7940     0.15478E-01 
  49232.0562     0.15422E-01 
  49264.3183     0.15366E-01 
  49296.5805     0.15311E-01 
  49328.8426     0.15255E-01 
  49361.1048     0.15199E-01 
  49393.3670     0.15142E-01 
  49425.6291     0.15086E-01 
  49457.8913     0.15030E-01 
  49490.1534     0.14973E-01 
  49522.4156     0.14917E-01 
  49554.6778     0.14860E-01 
  49586.9399     0.14804E-01 
  49619.2021     0.14747E-01 
  49651.4642     0.14690E-01 
  49683.7264     0.14633E-01 
  49715.9886     0.14576E-01 
  49748.2507     0.14519E-01 
  49780.5129     0.14462E-01 
  49812.7750     0.14405E-01 
  49845.0372     0.14347E-01 
  49877.2994     0.14290E-01 
  49909.5615     0.14232E-01 
  49941.8237     0.14175E-01 
  49974.0858     0.14117E-01 
  50006.3480     0.14060E-01 
  50038.6102     0.14002E-01 
  50070.8723     0.13945E-01 
  50103.1345     0.13887E-01 
  50135.3966     0.13829E-01 
  50167.6588     0.13771E-01 
  50199.9210     0.13713E-01 
  50232.1831     0.13655E-01 
  50264.4453     0.13597E-01 
  50296.7074     0.13539E-01 
  50328.9696     0.13481E-01 
  50361.2318     0.13423E-01 
  50393.4939     0.13365E-01 
  50425.7561     0.13307E-01 
  50458.0182     0.13249E-01 
  50490.2804     0.13191E-01 
  50522.5426     0.13133E-01 
  50554.8047     0.13075E-01 
  50587.0669     0.13017E-01 
  50619.3290     0.12958E-01 
  50651.5912     0.12900E-01 
  50683.8534     0.12842E-01 
  50716.1155     0.12784E-01 
  50748.3777     0.12726E-01 
  50780.6398     0.12667E-01 
  50812.9020     0.12609E-01 
  50845.1642     0.12551E-01 
  50877.4263     0.12493E-01 
  50909.6885     0.12435E-01 
  50941.9506     0.12377E-01 
  50974.2128     0.12318E-01 
  51006.4750     0.12260E-01 
  51038.7371     0.12202E-01 
  51070.9993     0.12144E-01 
  51103.2614     0.12086E-01 
  51135.5236     0.12028E-01 
  51167.7858     0.11970E-01 
  51200.0479     0.11912E-01 
  51232.3101     0.11854E-01 
  51264.5722     0.11796E-01 
  51296.8344     0.11738E-01 
  51329.0966     0.11681E-01 
  51361.3587     0.11623E-01 
  51393.6209     0.11565E-01 
  51425.8830     0.11507E-01 
  51458.1452     0.11450E-01 
  51490.4074     0.11392E-01 
  51522.6695     0.11334E-01 
  51554.9317     0.11277E-01 
  51587.1938     0.11219E-01 
  51619.4560     0.11162E-01 
  51651.7182     0.11105E-01 
  51683.9803     0.11047E-01 
  51716.2425     0.10990E-01 
  51748.5046     0.10933E-01 
  51780.7668     0.10876E-01 
  51813.0290     0.10819E-01 
  51845.2911     0.10762E-01 
  51877.5533     0.10705E-01 
  51909.8154     0.10648E-01 
  51942.0776     0.10591E-01 
  51974.3398     0.10534E-01 
  52006.6019     0.10478E-01 
  52038.8641     0.10421E-01 
  52071.1262     0.10364E-01 
  52103.3884     0.10308E-01 
  52135.6506     0.10252E-01 
  52167.9127     0.10195E-01 
  52200.1749     0.10139E-01 
  52232.4370     0.10083E-01 
  52264.6992     0.10027E-01 
  52296.9614     0.99713E-02 
  52329.2235     0.99155E-02 
  52361.4857     0.98598E-02 
  52393.7478     0.98041E-02 
  52426.0100     0.97486E-02 
  52458.2722     0.96931E-02 
  52490.5343     0.96378E-02 
  52522.7965     0.95825E-02 
  52555.0586     0.95274E-02 
  52587.3208     0.94724E-02 
  52619.5830     0.94174E-02 
  52651.8451     0.93626E-02 
  52684.1073     0.93078E-02 
  52716.3694     0.92532E-02 
  52748.6316     0.91987E-02 
  52780.8938     0.91443E-02 
  52813.1559     0.90900E-02 
  52845.4181     0.90358E-02 
  52877.6802     0.89817E-02 
  52909.9424     0.89278E-02 
  52942.2046     0.88739E-02 
  52974.4667     0.88202E-02 
  53006.7289     0.87666E-02 
  53038.9910     0.87131E-02 
  53071.2532     0.86597E-02 
  53103.5154     0.86065E-02 
  53135.7775     0.85533E-02 
  53168.0397     0.85003E-02 
  53200.3018     0.84475E-02 
  53232.5640     0.83947E-02 
  53264.8262     0.83421E-02 
  53297.0883     0.82896E-02 
  53329.3505     0.82372E-02 
  53361.6126     0.81850E-02 
  53393.8748     0.81329E-02 
  53426.1370     0.80809E-02 
  53458.3991     0.80291E-02 
  53490.6613     0.79774E-02 
  53522.9234     0.79258E-02 
  53555.1856     0.78744E-02 
  53587.4478     0.78231E-02 
  53619.7099     0.77719E-02 
  53651.9721     0.77209E-02 
  53684.2342     0.76700E-02 
  53716.4964     0.76193E-02 
  53748.7586     0.75687E-02 
  53781.0207     0.75182E-02 
  53813.2829     0.74679E-02 
  53845.5450     0.74177E-02 
  53877.8072     0.73677E-02 
  53910.0694     0.73178E-02 
  53942.3315     0.72681E-02 
  53974.5937     0.72185E-02 
  54006.8558     0.71691E-02 
  54039.1180     0.71198E-02 
  54071.3802     0.70706E-02 
  54103.6423     0.70217E-02 
  54135.9045     0.69728E-02 
  54168.1666     0.69241E-02 
  54200.4288     0.68756E-02 
  54232.6910     0.68272E-02 
  54264.9531     0.67790E-02 
  54297.2153     0.67309E-02 
  54329.4774     0.66830E-02 
  54361.7396     0.66353E-02 
  54394.0018     0.65877E-02 
  54426.2639     0.65402E-02 
  54458.5261     0.64929E-02 
  54490.7882     0.64458E-02 
  54523.0504     0.63988E-02 
  54555.3126     0.63520E-02 
  54587.5747     0.63053E-02 
  54619.8369     0.62589E-02 
  54652.0990     0.62125E-02 
  54684.3612     0.61663E-02 
  54716.6234     0.61203E-02 
  54748.8855     0.60745E-02 
  54781.1477     0.60288E-02 
  54813.4098     0.59833E-02 
  54845.6720     0.59379E-02 
  54877.9342     0.58927E-02 
  54910.1963     0.58477E-02 
  54942.4585     0.58028E-02 
  54974.7206     0.57581E-02 
  55006.9828     0.57136E-02 
  55039.2450     0.56692E-02 
  55071.5071     0.56250E-02 
  55103.7693     0.55810E-02 
  55136.0314     0.55371E-02 
  55168.2936     0.54935E-02 
  55200.5558     0.54499E-02 
  55232.8179     0.54066E-02 
  55265.0801     0.53634E-02 
  55297.3422     0.53203E-02 
  55329.6044     0.52775E-02 
  55361.8666     0.52348E-02 
  55394.1287     0.51923E-02 
  55426.3909     0.51499E-02 
  55458.6530     0.51078E-02 
  55490.9152     0.50658E-02 
  55523.1774     0.50239E-02 
  55555.4395     0.49823E-02 
  55587.7017     0.49408E-02 
  55619.9638     0.48995E-02 
  55652.2260     0.48583E-02 
  55684.4882     0.48174E-02 
  55716.7503     0.47766E-02 
  55749.0125     0.47359E-02 
  55781.2746     0.46955E-02 
  55813.5368     0.46552E-02 
  55845.7990     0.46151E-02 
  55878.0611     0.45752E-02 
  55910.3233     0.45354E-02 
  55942.5854     0.44958E-02 
  55974.8476     0.44564E-02 
  56007.1098     0.44171E-02 
  56039.3719     0.43781E-02 
  56071.6341     0.43392E-02 
  56103.8962     0.43005E-02 
  56136.1584     0.42619E-02 
  56168.4206     0.42236E-02 
  56200.6827     0.41854E-02 
  56232.9449     0.41473E-02 
  56265.2070     0.41095E-02 
  56297.4692     0.40718E-02 
  56329.7314     0.40343E-02 
  56361.9935     0.39970E-02 
  56394.2557     0.39599E-02 
  56426.5178     0.39229E-02 
  56458.7800     0.38861E-02 
  56491.0422     0.38495E-02 
  56523.3043     0.38130E-02 
  56555.5665     0.37768E-02 
  56587.8286     0.37407E-02 
  56620.0908     0.37048E-02 
  56652.3530     0.36690E-02 
  56684.6151     0.36335E-02 
  56716.8773     0.35981E-02 
  56749.1394     0.35629E-02 
  56781.4016     0.35278E-02 
  56813.6638     0.34930E-02 
  56845.9259     0.34583E-02 
  56878.1881     0.34238E-02 
  56910.4502     0.33894E-02 
  56942.7124     0.33553E-02 
  56974.9746     0.33213E-02 
  57007.2367     0.32875E-02 
  57039.4989     0.32538E-02 
  57071.7610     0.32204E-02 
  57104.0232     0.31871E-02 
  57136.2854     0.31540E-02 
  57168.5475     0.31211E-02 
  57200.8097     0.30883E-02 
  57233.0718     0.30557E-02 
  57265.3340     0.30233E-02 
  57297.5962     0.29911E-02 
  57329.8583     0.29591E-02 
  57362.1205     0.29272E-02 
  57394.3826     0.28955E-02 
  57426.6448     0.28640E-02 
  57458.9070     0.28326E-02 
  57491.1691     0.28014E-02 
  57523.4313     0.27705E-02 
  57555.6934     0.27396E-02 
  57587.9556     0.27090E-02 
  57620.2178     0.26785E-02 
  57652.4799     0.26482E-02 
  57684.7421     0.26181E-02 
  57717.0042     0.25882E-02 
  57749.2664     0.25584E-02 
  57781.5286     0.25288E-02 
  57813.7907     0.24994E-02 
  57846.0529     0.24701E-02 
  57878.3150     0.24411E-02 
  57910.5772     0.24122E-02 
  57942.8394     0.23835E-02 
  57975.1015     0.23549E-02 
  58007.3637     0.23266E-02 
  58039.6258     0.22984E-02 
  58071.8880     0.22704E-02 
  58104.1502     0.22425E-02 
  58136.4123     0.22149E-02 
  58168.6745     0.21874E-02 
  58200.9366     0.21601E-02 
  58233.1988     0.21329E-02 
  58265.4610     0.21060E-02 
  58297.7231     0.20792E-02 
  58329.9853     0.20526E-02 
  58362.2474     0.20262E-02 
  58394.5096     0.19999E-02 
  58426.7718     0.19738E-02 
  58459.0339     0.19479E-02 
  58491.2961     0.19222E-02 
  58523.5582     0.18967E-02 
  58555.8204     0.18713E-02 
  58588.0826     0.18461E-02 
  58620.3447     0.18211E-02 
  58652.6069     0.17962E-02 
  58684.8690     0.17716E-02 
  58717.1312     0.17471E-02 
  58749.3934     0.17228E-02 
  58781.6555     0.16986E-02 
  58813.9177     0.16747E-02 
  58846.1798     0.16509E-02 
  58878.4420     0.16273E-02 
  58910.7042     0.16039E-02 
  58942.9663     0.15806E-02 
  58975.2285     0.15576E-02 
  59007.4906     0.15347E-02 
  59039.7528     0.15120E-02 
  59072.0150     0.14895E-02 
  59104.2771     0.14671E-02 
  59136.5393     0.14449E-02 
  59168.8014     0.14230E-02 
  59201.0636     0.14012E-02 
  59233.3258     0.13795E-02 
  59265.5879     0.13581E-02 
  59297.8501     0.13368E-02 
  59330.1122     0.13157E-02 
  59362.3744     0.12948E-02 
  59394.6366     0.12741E-02 
  59426.8987     0.12536E-02 
  59459.1609     0.12332E-02 
  59491.4230     0.12131E-02 
  59523.6852     0.11931E-02 
  59555.9474     0.11733E-02 
  59588.2095     0.11537E-02 
  59620.4717     0.11343E-02 
  59652.7338     0.11150E-02 
  59684.9960     0.10960E-02 
  59717.2582     0.10771E-02 
  59749.5203     0.10584E-02 
  59781.7825     0.10400E-02 
  59814.0446     0.10217E-02 
  59846.3068     0.10035E-02 
  59878.5690     0.98563E-03 
  59910.8311     0.96790E-03 
  59943.0933     0.95037E-03 
  59975.3554     0.93302E-03 
  60007.6176     0.91587E-03 
  60039.8798     0.89892E-03 
  60072.1419     0.88216E-03 
  60104.4041     0.86559E-03 
  60136.6662     0.84922E-03 
  60168.9284     0.83305E-03 
  60201.1906     0.81707E-03 
  60233.4527     0.80130E-03 
  60265.7149     0.78572E-03 
  60297.9770     0.77034E-03 
  60330.2392     0.75517E-03 
  60362.5014     0.74020E-03 
  60394.7635     0.72543E-03 
  60427.0257     0.71087E-03 
  60459.2878     0.69651E-03 
  60491.5500     0.68236E-03 
  60523.8122     0.66842E-03 
  60556.0743     0.65468E-03 
  60588.3365     0.64116E-03 
  60620.5986     0.62785E-03 
  60652.8608     0.61475E-03 
  60685.1230     0.60186E-03 
  60717.3851     0.58919E-03 
  60749.6473     0.57673E-03 
  60781.9094     0.56450E-03 
  60814.1716     0.55248E-03 
  60846.4338     0.54068E-03 
  60878.6959     0.52911E-03 
  60910.9581     0.51776E-03 
  60943.2202     0.50663E-03 
  60975.4824     0.49573E-03 
  61007.7446     0.48506E-03 
  61040.0067     0.47461E-03 
  61072.2689     0.46440E-03 
  61104.5310     0.45442E-03 
  61136.7932     0.44468E-03 
  61169.0554     0.43517E-03 
  61201.3175     0.42590E-03 
  61233.5797     0.41688E-03 
  61265.8418     0.40809E-03 
  61298.1040     0.39955E-03 
  61330.3662     0.39125E-03 
  61362.6283     0.38320E-03 
  61394.8905     0.37540E-03 
  61427.1526     0.36785E-03 
  61459.4148     0.36056E-03 
  61491.6770     0.35352E-03 
  61523.9391     0.34674E-03 
  61556.2013     0.34022E-03 
  61588.4634     0.33397E-03 
  61620.7256     0.32798E-03 
  61652.9878     0.32225E-03 
  61685.2499     0.31680E-03 
  61717.5121     0.31162E-03 
  61749.7742     0.30671E-03 
  61782.0364     0.30209E-03 
  61814.2986     0.29774E-03 
  61846.5607     0.29367E-03 
  61878.8229     0.28989E-03 
  61911.0850     0.28640E-03 
  61943.3472     0.28320E-03 
  61975.6094     0.28029E-03 
  62007.8715     0.27768E-03 
  62040.1337     0.27537E-03 
  62072.3958     0.27336E-03 
  62104.6580     0.27166E-03 
  62136.9202     0.27026E-03 
  62169.1823     0.26918E-03 
  62201.4445     0.26841E-03 
  62233.7066     0.26797E-03 
  62265.9688     0.26784E-03 
  62298.2310     0.26804E-03 
  62330.4931     0.26856E-03 
  62362.7553     0.26942E-03 
  62395.0174     0.27062E-03 
  62427.2796     0.27215E-03 
  62459.5418     0.27403E-03 
  62491.8039     0.27625E-03 
  62524.0661     0.27883E-03 
  62556.3282     0.28175E-03 
  62588.5904     0.28504E-03 
  62620.8526     0.28869E-03 
  62653.1147     0.29270E-03 
  62685.3769     0.29709E-03 
  62717.6390     0.30185E-03 
  62749.9012     0.30699E-03 
  62782.1634     0.31251E-03 
  62814.4255     0.31842E-03 
  62846.6877     0.32472E-03 
  62878.9498     0.33142E-03 
  62911.2120     0.33852E-03 
  62943.4742     0.34602E-03 
  62975.7363     0.35393E-03 
  63007.9985     0.36226E-03 
  63040.2606     0.37101E-03 
  63072.5228     0.38019E-03 
  63104.7850     0.38979E-03 
  63137.0471     0.39983E-03 
  63169.3093     0.41031E-03 
  63201.5714     0.42123E-03 
  63233.8336     0.43261E-03 
  63266.0958     0.44444E-03 
  63298.3579     0.45673E-03 
  63330.6201     0.46949E-03 
  63362.8822     0.48272E-03 
  63395.1444     0.49643E-03 
  63427.4066     0.51063E-03 
  63459.6687     0.52531E-03 
  63491.9309     0.54049E-03 
  63524.1930     0.55617E-03 
  63556.4552     0.57236E-03 
  63588.7174     0.58906E-03 
  63620.9795     0.60628E-03 
  63653.2417     0.62403E-03 
  63685.5038     0.64232E-03 
  63717.7660     0.66114E-03 
  63750.0282     0.68051E-03 
  63782.2903     0.70043E-03 
  63814.5525     0.72090E-03 
  63846.8146     0.74195E-03 
  63879.0768     0.76357E-03 
  63911.3390     0.78577E-03 
  63943.6011     0.80855E-03 
  63975.8633     0.83193E-03 
  64008.1254     0.85591E-03 
  64040.3876     0.88050E-03 
  64072.6498     0.90571E-03 
  64104.9119     0.93154E-03 
  64137.1741     0.95800E-03 
  64169.4362     0.98510E-03 
  64201.6984     0.10129E-02 
  64233.9606     0.10413E-02 
  64266.2227     0.10703E-02 
  64298.4849     0.11001E-02 
  64330.7470     0.11305E-02 
  64363.0092     0.11616E-02 
  64395.2714     0.11934E-02 
  64427.5335     0.12259E-02 
  64459.7957     0.12591E-02 
  64492.0578     0.12930E-02 
  64524.3200     0.13277E-02 
  64556.5822     0.13631E-02 
  64588.8443     0.13993E-02 
  64621.1065     0.14362E-02 
  64653.3686     0.14739E-02 
  64685.6308     0.15123E-02 
  64717.8930     0.15516E-02 
  64750.1551     0.15916E-02 
  64782.4173     0.16324E-02 
  64814.6794     0.16741E-02 
  64846.9416     0.17166E-02 
  64879.2038     0.17599E-02 
  64911.4659     0.18040E-02 
  64943.7281     0.18490E-02 
  64975.9902     0.18949E-02 
  65008.2524     0.19417E-02 
  65040.5146     0.19893E-02 
  65072.7767     0.20378E-02 
  65105.0389     0.20872E-02 
  65137.3010     0.21376E-02 
  65169.5632     0.21888E-02 
  65201.8254     0.22411E-02 
  65234.0875     0.22942E-02 
  65266.3497     0.23483E-02 
  65298.6118     0.24034E-02 
  65330.8740     0.24595E-02 
  65363.1362     0.25165E-02 
  65395.3983     0.25746E-02 
  65427.6605     0.26337E-02 
  65459.9226     0.26938E-02 
  65492.1848     0.27550E-02 
  65524.4470     0.28172E-02 
  65556.7091     0.28804E-02 
  65588.9713     0.29448E-02 
  65621.2334     0.30102E-02 
  65653.4956     0.30767E-02 
  65685.7578     0.31444E-02 
  65718.0199     0.32132E-02 
  65750.2821     0.32831E-02 
  65782.5442     0.33541E-02 
  65814.8064     0.34264E-02 
  65847.0686     0.34998E-02 
  65879.3307     0.35744E-02 
  65911.5929     0.36502E-02 
  65943.8550     0.37272E-02 
  65976.1172     0.38054E-02 
  66008.3794     0.38849E-02 
  66040.6415     0.39657E-02 
  66072.9037     0.40477E-02 
  66105.1658     0.41310E-02 
  66137.4280     0.42156E-02 
  66169.6902     0.43015E-02 
  66201.9523     0.43887E-02 
  66234.2145     0.44773E-02 
  66266.4766     0.45672E-02 
  66298.7388     0.46586E-02 
  66331.0010     0.47513E-02 
  66363.2631     0.48453E-02 
  66395.5253     0.49408E-02 
  66427.7874     0.50378E-02 
  66460.0496     0.51362E-02 
  66492.3118     0.52360E-02 
  66524.5739     0.53373E-02 
  66556.8361     0.54401E-02 
  66589.0982     0.55444E-02 
  66621.3604     0.56502E-02 
  66653.6226     0.57576E-02 
  66685.8847     0.58665E-02 
  66718.1469     0.59770E-02 
  66750.4090     0.60891E-02 
  66782.6712     0.62027E-02 
  66814.9334     0.63180E-02 
  66847.1955     0.64349E-02 
  66879.4577     0.65535E-02 
  66911.7198     0.66737E-02 
  66943.9820     0.67956E-02 
  66976.2442     0.69192E-02 
  67008.5063     0.70445E-02 
  67040.7685     0.71715E-02 
  67073.0306     0.73003E-02 
  67105.2928     0.74308E-02 
  67137.5550     0.75632E-02 
  67169.8171     0.76973E-02 
  67202.0793     0.78332E-02 
  67234.3414     0.79710E-02 
  67266.6036     0.81106E-02 
  67298.8658     0.82521E-02 
  67331.1279     0.83954E-02 
  67363.3901     0.85407E-02 
  67395.6522     0.86878E-02 
  67427.9144     0.88370E-02 
  67460.1766     0.89880E-02 
  67492.4387     0.91411E-02 
  67524.7009     0.92961E-02 
  67556.9630     0.94531E-02 
  67589.2252     0.96122E-02 
  67621.4874     0.97733E-02 
  67653.7495     0.99364E-02 
  67686.0117     0.10102E-01 
  67718.2738     0.10269E-01 
  67750.5360     0.10438E-01 
  67782.7982     0.10610E-01 
  67815.0603     0.10784E-01 
  67847.3225     0.10960E-01 
  67879.5846     0.11138E-01 
  67911.8468     0.11318E-01 
  67944.1090     0.11501E-01 
  67976.3711     0.11685E-01 
  68008.6333     0.11872E-01 
  68040.8954     0.12062E-01 
  68073.1576     0.12253E-01 
  68105.4198     0.12447E-01 
  68137.6819     0.12643E-01 
  68169.9441     0.12842E-01 
  68202.2062     0.13043E-01 
  68234.4684     0.13246E-01 
  68266.7306     0.13452E-01 
  68298.9927     0.13660E-01 
  68331.2549     0.13871E-01 
  68363.5170     0.14084E-01 
  68395.7792     0.14300E-01 
  68428.0414     0.14518E-01 
  68460.3035     0.14739E-01 
  68492.5657     0.14962E-01 
  68524.8278     0.15188E-01 
  68557.0900     0.15416E-01 
  68589.3522     0.15647E-01 
  68621.6143     0.15881E-01 
  68653.8765     0.16117E-01 
  68686.1386     0.16356E-01 
  68718.4008     0.16597E-01 
  68750.6630     0.16842E-01 
  68782.9251     0.17089E-01 
  68815.1873     0.17339E-01 
  68847.4494     0.17591E-01 
  68879.7116     0.17846E-01 
  68911.9738     0.18104E-01 
  68944.2359     0.18365E-01 
  68976.4981     0.18629E-01 
  69008.7602     0.18896E-01 
  69041.0224     0.19165E-01 
  69073.2846     0.19437E-01 
  69105.5467     0.19713E-01 
  69137.8089     0.19991E-01 
  69170.0710     0.20272E-01 
  69202.3332     0.20556E-01 
  69234.5954     0.20843E-01 
  69266.8575     0.21133E-01 
  69299.1197     0.21426E-01 
  69331.3818     0.21722E-01 
  69363.6440     0.22021E-01 
  69395.9062     0.22324E-01 
  69428.1683     0.22629E-01 
  69460.4305     0.22938E-01 
  69492.6926     0.23249E-01 
  69524.9548     0.23564E-01 
  69557.2170     0.23882E-01 
  69589.4791     0.24203E-01 
  69621.7413     0.24527E-01 
  69654.0034     0.24855E-01 
  69686.2656     0.25186E-01 
  69718.5278     0.25520E-01 
  69750.7899     0.25857E-01 
  69783.0521     0.26198E-01 
  69815.3142     0.26542E-01 
  69847.5764     0.26889E-01 
  69879.8386     0.27240E-01 
  69912.1007     0.27594E-01 
  69944.3629     0.27951E-01 
  69976.6250     0.28312E-01 
  70008.8872     0.28676E-01 
  70041.1494     0.29043E-01 
  70073.4115     0.29414E-01 
  70105.6737     0.29789E-01 
  70137.9358     0.30167E-01 
  70170.1980     0.30549E-01 
  70202.4602     0.30934E-01 
  70234.7223     0.31322E-01 
  70266.9845     0.31714E-01 
  70299.2466     0.32110E-01 
  70331.5088     0.32509E-01 
  70363.7710     0.32912E-01 
  70396.0331     0.33318E-01 
  70428.2953     0.33728E-01 
  70460.5574     0.34142E-01 
  70492.8196     0.34559E-01 
  70525.0818     0.34980E-01 
  70557.3439     0.35405E-01 
  70589.6061     0.35834E-01 
  70621.8682     0.36266E-01 
  70654.1304     0.36701E-01 
  70686.3926     0.37141E-01 
  70718.6547     0.37584E-01 
  70750.9169     0.38031E-01 
  70783.1790     0.38482E-01 
  70815.4412     0.38937E-01 
  70847.7034     0.39395E-01 
  70879.9655     0.39858E-01 
  70912.2277     0.40324E-01 
  70944.4898     0.40794E-01 
  70976.7520     0.41268E-01 
  71009.0142     0.41745E-01 
  71041.2763     0.42227E-01 
  71073.5385     0.42712E-01 
  71105.8006     0.43201E-01 
  71138.0628     0.43695E-01 
  71170.3250     0.44192E-01 
  71202.5871     0.44693E-01 
  71234.8493     0.45198E-01 
  71267.1114     0.45707E-01 
  71299.3736     0.46220E-01 
  71331.6358     0.46737E-01 
  71363.8979     0.47258E-01 
  71396.1601     0.47782E-01 
  71428.4222     0.48311E-01 
  71460.6844     0.48844E-01 
  71492.9466     0.49381E-01 
  71525.2087     0.49922E-01 
  71557.4709     0.50467E-01 
  71589.7330     0.51016E-01 
  71621.9952     0.51569E-01 
  71654.2574     0.52126E-01 
  71686.5195     0.52687E-01 
  71718.7817     0.53252E-01 
  71751.0438     0.53821E-01 
  71783.3060     0.54394E-01 
  71815.5682     0.54972E-01 
  71847.8303     0.55553E-01 
  71880.0925     0.56139E-01 
  71912.3546     0.56728E-01 
  71944.6168     0.57322E-01 
  71976.8790     0.57920E-01 
  72009.1411     0.58522E-01 
  72041.4033     0.59128E-01 
  72073.6654     0.59738E-01 
  72105.9276     0.60352E-01 
  72138.1898     0.60970E-01 
  72170.4519     0.61593E-01 
  72202.7141     0.62219E-01 
  72234.9762     0.62850E-01 
  72267.2384     0.63485E-01 
  72299.5006     0.64123E-01 
  72331.7627     0.64766E-01 
  72364.0249     0.65414E-01 
  72396.2870     0.66065E-01 
  72428.5492     0.66720E-01 
  72460.8114     0.67380E-01 
  72493.0735     0.68043E-01 
  72525.3357     0.68711E-01 
  72557.5978     0.69382E-01 
  72589.8600     0.70058E-01 
