  32262.1600     0.18290E+02 
  32294.4222     0.18483E+02 
  32326.6843     0.18677E+02 
  32358.9465     0.18873E+02 
  32391.2086     0.19069E+02 
  32423.4708     0.19267E+02 
  32455.7330     0.19467E+02 
  32487.9951     0.19667E+02 
  32520.2573     0.19869E+02 
  32552.5194     0.20072E+02 
  32584.7816     0.20277E+02 
  32617.0438     0.20482E+02 
  32649.3059     0.20689E+02 
  32681.5681     0.20898E+02 
  32713.8302     0.21107E+02 
  32746.0924     0.21318E+02 
  32778.3546     0.21530E+02 
  32810.6167     0.21743E+02 
  32842.8789     0.21957E+02 
  32875.1410     0.22173E+02 
  32907.4032     0.22390E+02 
  32939.6654     0.22608E+02 
  32971.9275     0.22827E+02 
  33004.1897     0.23048E+02 
  33036.4518     0.23269E+02 
  33068.7140     0.23492E+02 
  33100.9762     0.23717E+02 
  33133.2383     0.23942E+02 
  33165.5005     0.24169E+02 
  33197.7626     0.24396E+02 
  33230.0248     0.24625E+02 
  33262.2870     0.24856E+02 
  33294.5491     0.25087E+02 
  33326.8113     0.25320E+02 
  33359.0734     0.25553E+02 
  33391.3356     0.25788E+02 
  33423.5978     0.26024E+02 
  33455.8599     0.26261E+02 
  33488.1221     0.26500E+02 
  33520.3842     0.26739E+02 
  33552.6464     0.26980E+02 
  33584.9086     0.27221E+02 
  33617.1707     0.27464E+02 
  33649.4329     0.27708E+02 
  33681.6950     0.27953E+02 
  33713.9572     0.28199E+02 
  33746.2194     0.28447E+02 
  33778.4815     0.28695E+02 
  33810.7437     0.28944E+02 
  33843.0058     0.29195E+02 
  33875.2680     0.29446E+02 
  33907.5302     0.29699E+02 
  33939.7923     0.29953E+02 
  33972.0545     0.30207E+02 
  34004.3166     0.30463E+02 
  34036.5788     0.30720E+02 
  34068.8410     0.30977E+02 
  34101.1031     0.31236E+02 
  34133.3653     0.31496E+02 
  34165.6274     0.31756E+02 
  34197.8896     0.32018E+02 
  34230.1518     0.32281E+02 
  34262.4139     0.32544E+02 
  34294.6761     0.32809E+02 
  34326.9382     0.33074E+02 
  34359.2004     0.33341E+02 
  34391.4626     0.33608E+02 
  34423.7247     0.33876E+02 
  34455.9869     0.34145E+02 
  34488.2490     0.34415E+02 
  34520.5112     0.34686E+02 
  34552.7734     0.34958E+02 
  34585.0355     0.35230E+02 
  34617.2977     0.35503E+02 
  34649.5598     0.35778E+02 
  34681.8220     0.36053E+02 
  34714.0842     0.36328E+02 
  34746.3463     0.36605E+02 
  34778.6085     0.36882E+02 
  34810.8706     0.37161E+02 
  34843.1328     0.37439E+02 
  34875.3950     0.37719E+02 
  34907.6571     0.38000E+02 
  34939.9193     0.38281E+02 
  34972.1814     0.38562E+02 
  35004.4436     0.38845E+02 
  35036.7058     0.39128E+02 
  35068.9679     0.39412E+02 
  35101.2301     0.39696E+02 
  35133.4922     0.39982E+02 
  35165.7544     0.40267E+02 
  35198.0166     0.40554E+02 
  35230.2787     0.40841E+02 
  35262.5409     0.41128E+02 
  35294.8030     0.41416E+02 
  35327.0652     0.41705E+02 
  35359.3274     0.41994E+02 
  35391.5895     0.42284E+02 
  35423.8517     0.42574E+02 
  35456.1138     0.42865E+02 
  35488.3760     0.43156E+02 
  35520.6382     0.43448E+02 
  35552.9003     0.43740E+02 
  35585.1625     0.44033E+02 
  35617.4246     0.44326E+02 
  35649.6868     0.44620E+02 
  35681.9490     0.44914E+02 
  35714.2111     0.45208E+02 
  35746.4733     0.45503E+02 
  35778.7354     0.45798E+02 
  35810.9976     0.46093E+02 
  35843.2598     0.46389E+02 
  35875.5219     0.46685E+02 
  35907.7841     0.46981E+02 
  35940.0462     0.47278E+02 
  35972.3084     0.47574E+02 
  36004.5706     0.47872E+02 
  36036.8327     0.48169E+02 
  36069.0949     0.48466E+02 
  36101.3570     0.48764E+02 
  36133.6192     0.49062E+02 
  36165.8814     0.49360E+02 
  36198.1435     0.49658E+02 
  36230.4057     0.49957E+02 
  36262.6678     0.50255E+02 
  36294.9300     0.50554E+02 
  36327.1922     0.50852E+02 
  36359.4543     0.51151E+02 
  36391.7165     0.51450E+02 
  36423.9786     0.51749E+02 
  36456.2408     0.52047E+02 
  36488.5030     0.52346E+02 
  36520.7651     0.52645E+02 
  36553.0273     0.52944E+02 
  36585.2894     0.53243E+02 
  36617.5516     0.53541E+02 
  36649.8138     0.53840E+02 
  36682.0759     0.54138E+02 
  36714.3381     0.54437E+02 
  36746.6002     0.54735E+02 
  36778.8624     0.55033E+02 
  36811.1246     0.55331E+02 
  36843.3867     0.55629E+02 
  36875.6489     0.55926E+02 
  36907.9110     0.56223E+02 
  36940.1732     0.56520E+02 
  36972.4354     0.56817E+02 
  37004.6975     0.57114E+02 
  37036.9597     0.57410E+02 
  37069.2218     0.57706E+02 
  37101.4840     0.58002E+02 
  37133.7462     0.58297E+02 
  37166.0083     0.58592E+02 
  37198.2705     0.58886E+02 
  37230.5326     0.59180E+02 
  37262.7948     0.59474E+02 
  37295.0570     0.59767E+02 
  37327.3191     0.60060E+02 
  37359.5813     0.60353E+02 
  37391.8434     0.60644E+02 
  37424.1056     0.60936E+02 
  37456.3678     0.61227E+02 
  37488.6299     0.61517E+02 
  37520.8921     0.61807E+02 
  37553.1542     0.62096E+02 
  37585.4164     0.62385E+02 
  37617.6786     0.62673E+02 
  37649.9407     0.62960E+02 
  37682.2029     0.63247E+02 
  37714.4650     0.63533E+02 
  37746.7272     0.63818E+02 
  37778.9894     0.64103E+02 
  37811.2515     0.64387E+02 
  37843.5137     0.64670E+02 
  37875.7758     0.64953E+02 
  37908.0380     0.65235E+02 
  37940.3002     0.65516E+02 
  37972.5623     0.65796E+02 
  38004.8245     0.66075E+02 
  38037.0866     0.66354E+02 
  38069.3488     0.66631E+02 
  38101.6110     0.66908E+02 
  38133.8731     0.67184E+02 
  38166.1353     0.67459E+02 
  38198.3974     0.67733E+02 
  38230.6596     0.68007E+02 
  38262.9218     0.68279E+02 
  38295.1839     0.68550E+02 
  38327.4461     0.68821E+02 
  38359.7082     0.69090E+02 
  38391.9704     0.69358E+02 
  38424.2326     0.69626E+02 
  38456.4947     0.69892E+02 
  38488.7569     0.70157E+02 
  38521.0190     0.70421E+02 
  38553.2812     0.70684E+02 
  38585.5434     0.70946E+02 
  38617.8055     0.71207E+02 
  38650.0677     0.71466E+02 
  38682.3298     0.71725E+02 
  38714.5920     0.71982E+02 
  38746.8542     0.72238E+02 
  38779.1163     0.72493E+02 
  38811.3785     0.72747E+02 
  38843.6406     0.72999E+02 
  38875.9028     0.73250E+02 
  38908.1650     0.73500E+02 
  38940.4271     0.73749E+02 
  38972.6893     0.73996E+02 
  39004.9514     0.74242E+02 
  39037.2136     0.74487E+02 
  39069.4758     0.74730E+02 
  39101.7379     0.74972E+02 
  39134.0001     0.75213E+02 
  39166.2622     0.75452E+02 
  39198.5244     0.75690E+02 
  39230.7866     0.75926E+02 
  39263.0487     0.76161E+02 
  39295.3109     0.76394E+02 
  39327.5730     0.76626E+02 
  39359.8352     0.76857E+02 
  39392.0974     0.77086E+02 
  39424.3595     0.77314E+02 
  39456.6217     0.77540E+02 
  39488.8838     0.77764E+02 
  39521.1460     0.77987E+02 
  39553.4082     0.78209E+02 
  39585.6703     0.78428E+02 
  39617.9325     0.78647E+02 
  39650.1946     0.78863E+02 
  39682.4568     0.79078E+02 
  39714.7190     0.79292E+02 
  39746.9811     0.79504E+02 
  39779.2433     0.79714E+02 
  39811.5054     0.79922E+02 
  39843.7676     0.80129E+02 
  39876.0298     0.80334E+02 
  39908.2919     0.80538E+02 
  39940.5541     0.80740E+02 
  39972.8162     0.80940E+02 
  40005.0784     0.81138E+02 
  40037.3406     0.81335E+02 
  40069.6027     0.81529E+02 
  40101.8649     0.81722E+02 
  40134.1270     0.81914E+02 
  40166.3892     0.82103E+02 
  40198.6514     0.82291E+02 
  40230.9135     0.82477E+02 
  40263.1757     0.82661E+02 
  40295.4378     0.82843E+02 
  40327.7000     0.83024E+02 
  40359.9622     0.83202E+02 
  40392.2243     0.83379E+02 
  40424.4865     0.83554E+02 
  40456.7486     0.83727E+02 
  40489.0108     0.83898E+02 
  40521.2730     0.84067E+02 
  40553.5351     0.84234E+02 
  40585.7973     0.84400E+02 
  40618.0594     0.84563E+02 
  40650.3216     0.84725E+02 
  40682.5838     0.84884E+02 
  40714.8459     0.85042E+02 
  40747.1081     0.85198E+02 
  40779.3702     0.85351E+02 
  40811.6324     0.85503E+02 
  40843.8946     0.85653E+02 
  40876.1567     0.85800E+02 
  40908.4189     0.85946E+02 
  40940.6810     0.86090E+02 
  40972.9432     0.86232E+02 
  41005.2054     0.86372E+02 
  41037.4675     0.86509E+02 
  41069.7297     0.86645E+02 
  41101.9918     0.86779E+02 
  41134.2540     0.86910E+02 
  41166.5162     0.87040E+02 
  41198.7783     0.87167E+02 
  41231.0405     0.87293E+02 
  41263.3026     0.87416E+02 
  41295.5648     0.87537E+02 
  41327.8270     0.87657E+02 
  41360.0891     0.87774E+02 
  41392.3513     0.87889E+02 
  41424.6134     0.88002E+02 
  41456.8756     0.88113E+02 
  41489.1378     0.88222E+02 
  41521.3999     0.88328E+02 
  41553.6621     0.88433E+02 
  41585.9242     0.88535E+02 
  41618.1864     0.88635E+02 
  41650.4486     0.88734E+02 
  41682.7107     0.88830E+02 
  41714.9729     0.88924E+02 
  41747.2350     0.89015E+02 
  41779.4972     0.89105E+02 
  41811.7594     0.89193E+02 
  41844.0215     0.89278E+02 
  41876.2837     0.89361E+02 
  41908.5458     0.89442E+02 
  41940.8080     0.89521E+02 
  41973.0702     0.89598E+02 
  42005.3323     0.89673E+02 
  42037.5945     0.89745E+02 
  42069.8566     0.89815E+02 
  42102.1188     0.89883E+02 
  42134.3810     0.89949E+02 
  42166.6431     0.90013E+02 
  42198.9053     0.90075E+02 
  42231.1674     0.90134E+02 
  42263.4296     0.90192E+02 
  42295.6918     0.90247E+02 
  42327.9539     0.90300E+02 
  42360.2161     0.90351E+02 
  42392.4782     0.90399E+02 
  42424.7404     0.90446E+02 
  42457.0026     0.90490E+02 
  42489.2647     0.90532E+02 
  42521.5269     0.90572E+02 
  42553.7890     0.90610E+02 
  42586.0512     0.90645E+02 
  42618.3134     0.90679E+02 
  42650.5755     0.90710E+02 
  42682.8377     0.90739E+02 
  42715.0998     0.90766E+02 
  42747.3620     0.90791E+02 
  42779.6242     0.90814E+02 
  42811.8863     0.90834E+02 
  42844.1485     0.90852E+02 
  42876.4106     0.90869E+02 
  42908.6728     0.90883E+02 
  42940.9350     0.90894E+02 
  42973.1971     0.90904E+02 
  43005.4593     0.90912E+02 
  43037.7214     0.90917E+02 
  43069.9836     0.90920E+02 
  43102.2458     0.90922E+02 
  43134.5079     0.90921E+02 
  43166.7701     0.90917E+02 
  43199.0322     0.90912E+02 
  43231.2944     0.90905E+02 
  43263.5566     0.90895E+02 
  43295.8187     0.90884E+02 
  43328.0809     0.90870E+02 
  43360.3430     0.90854E+02 
  43392.6052     0.90836E+02 
  43424.8674     0.90816E+02 
  43457.1295     0.90794E+02 
  43489.3917     0.90770E+02 
  43521.6538     0.90744E+02 
  43553.9160     0.90715E+02 
  43586.1782     0.90685E+02 
  43618.4403     0.90652E+02 
  43650.7025     0.90618E+02 
  43682.9646     0.90581E+02 
  43715.2268     0.90542E+02 
  43747.4890     0.90502E+02 
  43779.7511     0.90459E+02 
  43812.0133     0.90414E+02 
  43844.2754     0.90367E+02 
  43876.5376     0.90318E+02 
  43908.7998     0.90267E+02 
  43941.0619     0.90214E+02 
  43973.3241     0.90159E+02 
  44005.5862     0.90102E+02 
  44037.8484     0.90044E+02 
  44070.1106     0.89983E+02 
  44102.3727     0.89920E+02 
  44134.6349     0.89855E+02 
  44166.8970     0.89788E+02 
  44199.1592     0.89719E+02 
  44231.4214     0.89649E+02 
  44263.6835     0.89576E+02 
  44295.9457     0.89501E+02 
  44328.2078     0.89425E+02 
  44360.4700     0.89346E+02 
  44392.7322     0.89266E+02 
  44424.9943     0.89184E+02 
  44457.2565     0.89100E+02 
  44489.5186     0.89014E+02 
  44521.7808     0.88926E+02 
  44554.0430     0.88836E+02 
  44586.3051     0.88744E+02 
  44618.5673     0.88651E+02 
  44650.8294     0.88556E+02 
  44683.0916     0.88458E+02 
  44715.3538     0.88359E+02 
  44747.6159     0.88259E+02 
  44779.8781     0.88156E+02 
  44812.1402     0.88052E+02 
  44844.4024     0.87945E+02 
  44876.6646     0.87837E+02 
  44908.9267     0.87728E+02 
  44941.1889     0.87616E+02 
  44973.4510     0.87503E+02 
  45005.7132     0.87388E+02 
  45037.9754     0.87271E+02 
  45070.2375     0.87153E+02 
  45102.4997     0.87033E+02 
  45134.7618     0.86911E+02 
  45167.0240     0.86787E+02 
  45199.2862     0.86662E+02 
  45231.5483     0.86535E+02 
  45263.8105     0.86406E+02 
  45296.0726     0.86276E+02 
  45328.3348     0.86144E+02 
  45360.5970     0.86011E+02 
  45392.8591     0.85876E+02 
  45425.1213     0.85739E+02 
  45457.3834     0.85600E+02 
  45489.6456     0.85461E+02 
  45521.9078     0.85319E+02 
  45554.1699     0.85176E+02 
  45586.4321     0.85031E+02 
  45618.6942     0.84885E+02 
  45650.9564     0.84737E+02 
  45683.2186     0.84588E+02 
  45715.4807     0.84437E+02 
  45747.7429     0.84285E+02 
  45780.0050     0.84132E+02 
  45812.2672     0.83976E+02 
  45844.5294     0.83820E+02 
  45876.7915     0.83661E+02 
  45909.0537     0.83502E+02 
  45941.3158     0.83341E+02 
  45973.5780     0.83178E+02 
  46005.8402     0.83015E+02 
  46038.1023     0.82849E+02 
  46070.3645     0.82683E+02 
  46102.6266     0.82515E+02 
  46134.8888     0.82345E+02 
  46167.1510     0.82175E+02 
  46199.4131     0.82003E+02 
  46231.6753     0.81829E+02 
  46263.9374     0.81655E+02 
  46296.1996     0.81479E+02 
  46328.4618     0.81301E+02 
  46360.7239     0.81123E+02 
  46392.9861     0.80943E+02 
  46425.2482     0.80762E+02 
  46457.5104     0.80579E+02 
  46489.7726     0.80396E+02 
  46522.0347     0.80211E+02 
  46554.2969     0.80025E+02 
  46586.5590     0.79838E+02 
  46618.8212     0.79650E+02 
  46651.0834     0.79460E+02 
  46683.3455     0.79269E+02 
  46715.6077     0.79077E+02 
  46747.8698     0.78884E+02 
  46780.1320     0.78690E+02 
  46812.3942     0.78495E+02 
  46844.6563     0.78299E+02 
  46876.9185     0.78101E+02 
  46909.1806     0.77903E+02 
  46941.4428     0.77703E+02 
  46973.7050     0.77503E+02 
  47005.9671     0.77301E+02 
  47038.2293     0.77098E+02 
  47070.4914     0.76895E+02 
  47102.7536     0.76690E+02 
  47135.0158     0.76484E+02 
  47167.2779     0.76278E+02 
  47199.5401     0.76070E+02 
  47231.8022     0.75861E+02 
  47264.0644     0.75652E+02 
  47296.3266     0.75442E+02 
  47328.5887     0.75230E+02 
  47360.8509     0.75018E+02 
  47393.1130     0.74805E+02 
  47425.3752     0.74591E+02 
  47457.6374     0.74376E+02 
  47489.8995     0.74160E+02 
  47522.1617     0.73944E+02 
  47554.4238     0.73726E+02 
  47586.6860     0.73508E+02 
  47618.9482     0.73289E+02 
  47651.2103     0.73069E+02 
  47683.4725     0.72849E+02 
  47715.7346     0.72627E+02 
  47747.9968     0.72405E+02 
  47780.2590     0.72182E+02 
  47812.5211     0.71959E+02 
  47844.7833     0.71734E+02 
  47877.0454     0.71509E+02 
  47909.3076     0.71283E+02 
  47941.5698     0.71057E+02 
  47973.8319     0.70830E+02 
  48006.0941     0.70602E+02 
  48038.3562     0.70374E+02 
  48070.6184     0.70145E+02 
  48102.8806     0.69915E+02 
  48135.1427     0.69685E+02 
  48167.4049     0.69454E+02 
  48199.6670     0.69223E+02 
  48231.9292     0.68991E+02 
  48264.1914     0.68758E+02 
  48296.4535     0.68525E+02 
  48328.7157     0.68291E+02 
  48360.9778     0.68057E+02 
  48393.2400     0.67822E+02 
  48425.5022     0.67587E+02 
  48457.7643     0.67351E+02 
  48490.0265     0.67115E+02 
  48522.2886     0.66878E+02 
  48554.5508     0.66641E+02 
  48586.8130     0.66404E+02 
  48619.0751     0.66165E+02 
  48651.3373     0.65927E+02 
  48683.5994     0.65688E+02 
  48715.8616     0.65449E+02 
  48748.1238     0.65209E+02 
  48780.3859     0.64969E+02 
  48812.6481     0.64729E+02 
  48844.9102     0.64488E+02 
  48877.1724     0.64247E+02 
  48909.4346     0.64005E+02 
  48941.6967     0.63763E+02 
  48973.9589     0.63521E+02 
  49006.2210     0.63279E+02 
  49038.4832     0.63036E+02 
  49070.7454     0.62793E+02 
  49103.0075     0.62550E+02 
  49135.2697     0.62306E+02 
  49167.5318     0.62063E+02 
  49199.7940     0.61819E+02 
  49232.0562     0.61574E+02 
  49264.3183     0.61330E+02 
  49296.5805     0.61085E+02 
  49328.8426     0.60840E+02 
  49361.1048     0.60595E+02 
  49393.3670     0.60350E+02 
  49425.6291     0.60104E+02 
  49457.8913     0.59859E+02 
  49490.1534     0.59613E+02 
  49522.4156     0.59367E+02 
  49554.6778     0.59121E+02 
  49586.9399     0.58875E+02 
  49619.2021     0.58629E+02 
  49651.4642     0.58383E+02 
  49683.7264     0.58136E+02 
  49715.9886     0.57890E+02 
  49748.2507     0.57643E+02 
  49780.5129     0.57397E+02 
  49812.7750     0.57150E+02 
  49845.0372     0.56903E+02 
  49877.2994     0.56657E+02 
  49909.5615     0.56410E+02 
  49941.8237     0.56163E+02 
  49974.0858     0.55916E+02 
  50006.3480     0.55670E+02 
  50038.6102     0.55423E+02 
  50070.8723     0.55176E+02 
  50103.1345     0.54929E+02 
  50135.3966     0.54683E+02 
  50167.6588     0.54436E+02 
  50199.9210     0.54190E+02 
  50232.1831     0.53943E+02 
  50264.4453     0.53697E+02 
  50296.7074     0.53451E+02 
  50328.9696     0.53204E+02 
  50361.2318     0.52958E+02 
  50393.4939     0.52712E+02 
  50425.7561     0.52467E+02 
  50458.0182     0.52221E+02 
  50490.2804     0.51975E+02 
  50522.5426     0.51730E+02 
  50554.8047     0.51485E+02 
  50587.0669     0.51239E+02 
  50619.3290     0.50995E+02 
  50651.5912     0.50750E+02 
  50683.8534     0.50505E+02 
  50716.1155     0.50261E+02 
  50748.3777     0.50017E+02 
  50780.6398     0.49773E+02 
  50812.9020     0.49529E+02 
  50845.1642     0.49285E+02 
  50877.4263     0.49042E+02 
  50909.6885     0.48799E+02 
  50941.9506     0.48556E+02 
  50974.2128     0.48314E+02 
  51006.4750     0.48072E+02 
  51038.7371     0.47830E+02 
  51070.9993     0.47588E+02 
  51103.2614     0.47346E+02 
  51135.5236     0.47105E+02 
  51167.7858     0.46864E+02 
  51200.0479     0.46624E+02 
  51232.3101     0.46384E+02 
  51264.5722     0.46144E+02 
  51296.8344     0.45904E+02 
  51329.0966     0.45665E+02 
  51361.3587     0.45426E+02 
  51393.6209     0.45188E+02 
  51425.8830     0.44949E+02 
  51458.1452     0.44711E+02 
  51490.4074     0.44474E+02 
  51522.6695     0.44237E+02 
  51554.9317     0.44000E+02 
  51587.1938     0.43764E+02 
  51619.4560     0.43528E+02 
  51651.7182     0.43292E+02 
  51683.9803     0.43057E+02 
  51716.2425     0.42822E+02 
  51748.5046     0.42588E+02 
  51780.7668     0.42354E+02 
  51813.0290     0.42121E+02 
  51845.2911     0.41888E+02 
  51877.5533     0.41655E+02 
  51909.8154     0.41423E+02 
  51942.0776     0.41191E+02 
  51974.3398     0.40960E+02 
  52006.6019     0.40729E+02 
  52038.8641     0.40499E+02 
  52071.1262     0.40269E+02 
  52103.3884     0.40039E+02 
  52135.6506     0.39811E+02 
  52167.9127     0.39582E+02 
  52200.1749     0.39354E+02 
  52232.4370     0.39127E+02 
  52264.6992     0.38900E+02 
  52296.9614     0.38673E+02 
  52329.2235     0.38447E+02 
  52361.4857     0.38222E+02 
  52393.7478     0.37997E+02 
  52426.0100     0.37773E+02 
  52458.2722     0.37549E+02 
  52490.5343     0.37325E+02 
  52522.7965     0.37103E+02 
  52555.0586     0.36880E+02 
  52587.3208     0.36659E+02 
  52619.5830     0.36438E+02 
  52651.8451     0.36217E+02 
  52684.1073     0.35997E+02 
  52716.3694     0.35777E+02 
  52748.6316     0.35558E+02 
  52780.8938     0.35340E+02 
  52813.1559     0.35122E+02 
  52845.4181     0.34905E+02 
  52877.6802     0.34689E+02 
  52909.9424     0.34472E+02 
  52942.2046     0.34257E+02 
  52974.4667     0.34042E+02 
  53006.7289     0.33828E+02 
  53038.9910     0.33614E+02 
  53071.2532     0.33401E+02 
  53103.5154     0.33189E+02 
  53135.7775     0.32977E+02 
  53168.0397     0.32766E+02 
  53200.3018     0.32555E+02 
  53232.5640     0.32345E+02 
  53264.8262     0.32136E+02 
  53297.0883     0.31927E+02 
  53329.3505     0.31719E+02 
  53361.6126     0.31511E+02 
  53393.8748     0.31304E+02 
  53426.1370     0.31098E+02 
  53458.3991     0.30892E+02 
  53490.6613     0.30687E+02 
  53522.9234     0.30483E+02 
  53555.1856     0.30279E+02 
  53587.4478     0.30076E+02 
  53619.7099     0.29874E+02 
  53651.9721     0.29672E+02 
  53684.2342     0.29471E+02 
  53716.4964     0.29271E+02 
  53748.7586     0.29071E+02 
  53781.0207     0.28872E+02 
  53813.2829     0.28673E+02 
  53845.5450     0.28476E+02 
  53877.8072     0.28278E+02 
  53910.0694     0.28082E+02 
  53942.3315     0.27886E+02 
  53974.5937     0.27691E+02 
  54006.8558     0.27497E+02 
  54039.1180     0.27303E+02 
  54071.3802     0.27110E+02 
  54103.6423     0.26918E+02 
  54135.9045     0.26726E+02 
  54168.1666     0.26535E+02 
  54200.4288     0.26345E+02 
  54232.6910     0.26155E+02 
  54264.9531     0.25966E+02 
  54297.2153     0.25778E+02 
  54329.4774     0.25590E+02 
  54361.7396     0.25403E+02 
  54394.0018     0.25217E+02 
  54426.2639     0.25032E+02 
  54458.5261     0.24847E+02 
  54490.7882     0.24663E+02 
  54523.0504     0.24479E+02 
  54555.3126     0.24297E+02 
  54587.5747     0.24115E+02 
  54619.8369     0.23933E+02 
  54652.0990     0.23753E+02 
  54684.3612     0.23573E+02 
  54716.6234     0.23394E+02 
  54748.8855     0.23215E+02 
  54781.1477     0.23037E+02 
  54813.4098     0.22860E+02 
  54845.6720     0.22684E+02 
  54877.9342     0.22508E+02 
  54910.1963     0.22333E+02 
  54942.4585     0.22159E+02 
  54974.7206     0.21986E+02 
  55006.9828     0.21813E+02 
  55039.2450     0.21641E+02 
  55071.5071     0.21470E+02 
  55103.7693     0.21299E+02 
  55136.0314     0.21129E+02 
  55168.2936     0.20960E+02 
  55200.5558     0.20791E+02 
  55232.8179     0.20623E+02 
  55265.0801     0.20456E+02 
  55297.3422     0.20290E+02 
  55329.6044     0.20124E+02 
  55361.8666     0.19959E+02 
  55394.1287     0.19795E+02 
  55426.3909     0.19632E+02 
  55458.6530     0.19469E+02 
  55490.9152     0.19307E+02 
  55523.1774     0.19145E+02 
  55555.4395     0.18985E+02 
  55587.7017     0.18825E+02 
  55619.9638     0.18666E+02 
  55652.2260     0.18507E+02 
  55684.4882     0.18350E+02 
  55716.7503     0.18192E+02 
  55749.0125     0.18036E+02 
  55781.2746     0.17881E+02 
  55813.5368     0.17726E+02 
  55845.7990     0.17571E+02 
  55878.0611     0.17418E+02 
  55910.3233     0.17265E+02 
  55942.5854     0.17113E+02 
  55974.8476     0.16962E+02 
  56007.1098     0.16811E+02 
  56039.3719     0.16661E+02 
  56071.6341     0.16512E+02 
  56103.8962     0.16364E+02 
  56136.1584     0.16216E+02 
  56168.4206     0.16069E+02 
  56200.6827     0.15923E+02 
  56232.9449     0.15777E+02 
  56265.2070     0.15632E+02 
  56297.4692     0.15488E+02 
  56329.7314     0.15345E+02 
  56361.9935     0.15202E+02 
  56394.2557     0.15060E+02 
  56426.5178     0.14918E+02 
  56458.7800     0.14778E+02 
  56491.0422     0.14638E+02 
  56523.3043     0.14499E+02 
  56555.5665     0.14360E+02 
  56587.8286     0.14222E+02 
  56620.0908     0.14085E+02 
  56652.3530     0.13949E+02 
  56684.6151     0.13813E+02 
  56716.8773     0.13678E+02 
  56749.1394     0.13544E+02 
  56781.4016     0.13410E+02 
  56813.6638     0.13277E+02 
  56845.9259     0.13145E+02 
  56878.1881     0.13014E+02 
  56910.4502     0.12883E+02 
  56942.7124     0.12753E+02 
  56974.9746     0.12623E+02 
  57007.2367     0.12495E+02 
  57039.4989     0.12367E+02 
  57071.7610     0.12240E+02 
  57104.0232     0.12113E+02 
  57136.2854     0.11987E+02 
  57168.5475     0.11862E+02 
  57200.8097     0.11737E+02 
  57233.0718     0.11613E+02 
  57265.3340     0.11490E+02 
  57297.5962     0.11368E+02 
  57329.8583     0.11246E+02 
  57362.1205     0.11125E+02 
  57394.3826     0.11005E+02 
  57426.6448     0.10885E+02 
  57458.9070     0.10766E+02 
  57491.1691     0.10648E+02 
  57523.4313     0.10530E+02 
  57555.6934     0.10413E+02 
  57587.9556     0.10297E+02 
  57620.2178     0.10181E+02 
  57652.4799     0.10066E+02 
  57684.7421     0.99522E+01 
  57717.0042     0.98386E+01 
  57749.2664     0.97258E+01 
  57781.5286     0.96136E+01 
  57813.7907     0.95021E+01 
  57846.0529     0.93913E+01 
  57878.3150     0.92811E+01 
  57910.5772     0.91716E+01 
  57942.8394     0.90629E+01 
  57975.1015     0.89547E+01 
  58007.3637     0.88473E+01 
  58039.6258     0.87405E+01 
  58071.8880     0.86344E+01 
  58104.1502     0.85290E+01 
  58136.4123     0.84242E+01 
  58168.6745     0.83202E+01 
  58200.9366     0.82167E+01 
  58233.1988     0.81140E+01 
  58265.4610     0.80119E+01 
  58297.7231     0.79105E+01 
  58329.9853     0.78098E+01 
  58362.2474     0.77097E+01 
  58394.5096     0.76103E+01 
  58426.7718     0.75116E+01 
  58459.0339     0.74135E+01 
  58491.2961     0.73161E+01 
  58523.5582     0.72194E+01 
  58555.8204     0.71233E+01 
  58588.0826     0.70279E+01 
  58620.3447     0.69331E+01 
  58652.6069     0.68391E+01 
  58684.8690     0.67456E+01 
  58717.1312     0.66529E+01 
  58749.3934     0.65608E+01 
  58781.6555     0.64694E+01 
  58813.9177     0.63786E+01 
  58846.1798     0.62885E+01 
  58878.4420     0.61991E+01 
  58910.7042     0.61103E+01 
  58942.9663     0.60222E+01 
  58975.2285     0.59348E+01 
  59007.4906     0.58480E+01 
  59039.7528     0.57619E+01 
  59072.0150     0.56764E+01 
  59104.2771     0.55917E+01 
  59136.5393     0.55075E+01 
  59168.8014     0.54241E+01 
  59201.0636     0.53413E+01 
  59233.3258     0.52592E+01 
  59265.5879     0.51777E+01 
  59297.8501     0.50969E+01 
  59330.1122     0.50168E+01 
  59362.3744     0.49373E+01 
  59394.6366     0.48585E+01 
  59426.8987     0.47804E+01 
  59459.1609     0.47029E+01 
  59491.4230     0.46262E+01 
  59523.6852     0.45500E+01 
  59555.9474     0.44746E+01 
  59588.2095     0.43998E+01 
  59620.4717     0.43257E+01 
  59652.7338     0.42523E+01 
  59684.9960     0.41796E+01 
  59717.2582     0.41075E+01 
  59749.5203     0.40361E+01 
  59781.7825     0.39654E+01 
  59814.0446     0.38954E+01 
  59846.3068     0.38261E+01 
  59878.5690     0.37574E+01 
  59910.8311     0.36894E+01 
  59943.0933     0.36222E+01 
  59975.3554     0.35556E+01 
  60007.6176     0.34897E+01 
  60039.8798     0.34245E+01 
  60072.1419     0.33599E+01 
  60104.4041     0.32961E+01 
  60136.6662     0.32330E+01 
  60168.9284     0.31706E+01 
  60201.1906     0.31089E+01 
  60233.4527     0.30479E+01 
  60265.7149     0.29876E+01 
  60297.9770     0.29280E+01 
  60330.2392     0.28692E+01 
  60362.5014     0.28110E+01 
  60394.7635     0.27536E+01 
  60427.0257     0.26969E+01 
  60459.2878     0.26409E+01 
  60491.5500     0.25857E+01 
  60523.8122     0.25311E+01 
  60556.0743     0.24774E+01 
  60588.3365     0.24243E+01 
  60620.5986     0.23720E+01 
  60652.8608     0.23205E+01 
  60685.1230     0.22697E+01 
  60717.3851     0.22196E+01 
  60749.6473     0.21704E+01 
  60781.9094     0.21218E+01 
  60814.1716     0.20741E+01 
  60846.4338     0.20271E+01 
  60878.6959     0.19809E+01 
  60910.9581     0.19355E+01 
  60943.2202     0.18908E+01 
  60975.4824     0.18470E+01 
  61007.7446     0.18039E+01 
  61040.0067     0.17617E+01 
  61072.2689     0.17203E+01 
  61104.5310     0.16796E+01 
  61136.7932     0.16398E+01 
  61169.0554     0.16008E+01 
  61201.3175     0.15627E+01 
  61233.5797     0.15254E+01 
  61265.8418     0.14889E+01 
  61298.1040     0.14532E+01 
  61330.3662     0.14185E+01 
  61362.6283     0.13846E+01 
  61394.8905     0.13515E+01 
  61427.1526     0.13194E+01 
  61459.4148     0.12881E+01 
  61491.6770     0.12577E+01 
  61523.9391     0.12282E+01 
  61556.2013     0.11996E+01 
  61588.4634     0.11719E+01 
  61620.7256     0.11452E+01 
  61652.9878     0.11193E+01 
  61685.2499     0.10944E+01 
  61717.5121     0.10705E+01 
  61749.7742     0.10475E+01 
  61782.0364     0.10255E+01 
  61814.2986     0.10045E+01 
  61846.5607     0.98442E+00 
  61878.8229     0.96536E+00 
  61911.0850     0.94730E+00 
  61943.3472     0.93026E+00 
  61975.6094     0.91424E+00 
  62007.8715     0.89925E+00 
  62040.1337     0.88532E+00 
  62072.3958     0.87243E+00 
  62104.6580     0.86062E+00 
  62136.9202     0.84989E+00 
  62169.1823     0.84025E+00 
  62201.4445     0.83171E+00 
  62233.7066     0.82429E+00 
  62265.9688     0.81799E+00 
  62298.2310     0.81284E+00 
  62330.4931     0.80884E+00 
  62362.7553     0.80600E+00 
  62395.0174     0.80435E+00 
  62427.2796     0.80389E+00 
  62459.5418     0.80464E+00 
  62491.8039     0.80661E+00 
  62524.0661     0.80982E+00 
  62556.3282     0.81428E+00 
  62588.5904     0.82000E+00 
  62620.8526     0.82701E+00 
  62653.1147     0.83532E+00 
  62685.3769     0.84494E+00 
  62717.6390     0.85589E+00 
  62749.9012     0.86819E+00 
  62782.1634     0.88185E+00 
  62814.4255     0.89689E+00 
  62846.6877     0.91333E+00 
  62878.9498     0.93119E+00 
  62911.2120     0.95048E+00 
  62943.4742     0.97123E+00 
  62975.7363     0.99344E+00 
  63007.9985     0.10172E+01 
  63040.2606     0.10424E+01 
  63072.5228     0.10691E+01 
  63104.7850     0.10974E+01 
  63137.0471     0.11273E+01 
  63169.3093     0.11587E+01 
  63201.5714     0.11918E+01 
  63233.8336     0.12265E+01 
  63266.0958     0.12629E+01 
  63298.3579     0.13009E+01 
  63330.6201     0.13407E+01 
  63362.8822     0.13821E+01 
  63395.1444     0.14254E+01 
  63427.4066     0.14703E+01 
  63459.6687     0.15171E+01 
  63491.9309     0.15657E+01 
  63524.1930     0.16162E+01 
  63556.4552     0.16685E+01 
  63588.7174     0.17227E+01 
  63620.9795     0.17789E+01 
  63653.2417     0.18370E+01 
  63685.5038     0.18970E+01 
  63717.7660     0.19591E+01 
  63750.0282     0.20232E+01 
  63782.2903     0.20894E+01 
  63814.5525     0.21576E+01 
  63846.8146     0.22280E+01 
  63879.0768     0.23005E+01 
  63911.3390     0.23752E+01 
  63943.6011     0.24522E+01 
  63975.8633     0.25313E+01 
  64008.1254     0.26127E+01 
  64040.3876     0.26965E+01 
  64072.6498     0.27825E+01 
  64104.9119     0.28710E+01 
  64137.1741     0.29618E+01 
  64169.4362     0.30551E+01 
  64201.6984     0.31508E+01 
  64233.9606     0.32491E+01 
  64266.2227     0.33499E+01 
  64298.4849     0.34533E+01 
  64330.7470     0.35592E+01 
  64363.0092     0.36679E+01 
  64395.2714     0.37792E+01 
  64427.5335     0.38933E+01 
  64459.7957     0.40101E+01 
  64492.0578     0.41297E+01 
  64524.3200     0.42522E+01 
  64556.5822     0.43775E+01 
  64588.8443     0.45058E+01 
  64621.1065     0.46370E+01 
  64653.3686     0.47713E+01 
  64685.6308     0.49086E+01 
  64717.8930     0.50490E+01 
  64750.1551     0.51925E+01 
  64782.4173     0.53392E+01 
  64814.6794     0.54891E+01 
  64846.9416     0.56423E+01 
  64879.2038     0.57988E+01 
  64911.4659     0.59587E+01 
  64943.7281     0.61220E+01 
  64975.9902     0.62887E+01 
  65008.2524     0.64590E+01 
  65040.5146     0.66327E+01 
  65072.7767     0.68101E+01 
  65105.0389     0.69912E+01 
  65137.3010     0.71759E+01 
  65169.5632     0.73644E+01 
  65201.8254     0.75567E+01 
  65234.0875     0.77529E+01 
  65266.3497     0.79530E+01 
  65298.6118     0.81570E+01 
  65330.8740     0.83650E+01 
  65363.1362     0.85771E+01 
  65395.3983     0.87934E+01 
  65427.6605     0.90138E+01 
  65459.9226     0.92385E+01 
  65492.1848     0.94674E+01 
  65524.4470     0.97007E+01 
  65556.7091     0.99385E+01 
  65588.9713     0.10181E+02 
  65621.2334     0.10427E+02 
  65653.4956     0.10679E+02 
  65685.7578     0.10935E+02 
  65718.0199     0.11195E+02 
  65750.2821     0.11461E+02 
  65782.5442     0.11731E+02 
  65814.8064     0.12006E+02 
  65847.0686     0.12286E+02 
  65879.3307     0.12572E+02 
  65911.5929     0.12862E+02 
  65943.8550     0.13157E+02 
  65976.1172     0.13458E+02 
  66008.3794     0.13764E+02 
  66040.6415     0.14075E+02 
  66072.9037     0.14392E+02 
  66105.1658     0.14715E+02 
  66137.4280     0.15042E+02 
  66169.6902     0.15376E+02 
  66201.9523     0.15715E+02 
  66234.2145     0.16060E+02 
  66266.4766     0.16411E+02 
  66298.7388     0.16768E+02 
  66331.0010     0.17131E+02 
  66363.2631     0.17500E+02 
  66395.5253     0.17875E+02 
  66427.7874     0.18256E+02 
  66460.0496     0.18644E+02 
  66492.3118     0.19038E+02 
  66524.5739     0.19438E+02 
  66556.8361     0.19845E+02 
  66589.0982     0.20259E+02 
  66621.3604     0.20679E+02 
  66653.6226     0.21106E+02 
  66685.8847     0.21540E+02 
  66718.1469     0.21981E+02 
  66750.4090     0.22429E+02 
  66782.6712     0.22884E+02 
  66814.9334     0.23346E+02 
  66847.1955     0.23816E+02 
  66879.4577     0.24293E+02 
  66911.7198     0.24777E+02 
  66943.9820     0.25269E+02 
  66976.2442     0.25769E+02 
  67008.5063     0.26276E+02 
  67040.7685     0.26791E+02 
  67073.0306     0.27314E+02 
  67105.2928     0.27845E+02 
  67137.5550     0.28384E+02 
  67169.8171     0.28931E+02 
  67202.0793     0.29487E+02 
  67234.3414     0.30050E+02 
  67266.6036     0.30622E+02 
  67298.8658     0.31203E+02 
  67331.1279     0.31792E+02 
  67363.3901     0.32390E+02 
  67395.6522     0.32997E+02 
  67427.9144     0.33613E+02 
  67460.1766     0.34238E+02 
  67492.4387     0.34872E+02 
  67524.7009     0.35515E+02 
  67556.9630     0.36167E+02 
  67589.2252     0.36828E+02 
  67621.4874     0.37500E+02 
  67653.7495     0.38180E+02 
  67686.0117     0.38871E+02 
  67718.2738     0.39571E+02 
  67750.5360     0.40281E+02 
  67782.7982     0.41001E+02 
  67815.0603     0.41731E+02 
  67847.3225     0.42471E+02 
  67879.5846     0.43222E+02 
  67911.8468     0.43983E+02 
  67944.1090     0.44754E+02 
  67976.3711     0.45536E+02 
  68008.6333     0.46329E+02 
  68040.8954     0.47133E+02 
  68073.1576     0.47947E+02 
  68105.4198     0.48772E+02 
  68137.6819     0.49609E+02 
  68169.9441     0.50457E+02 
  68202.2062     0.51316E+02 
  68234.4684     0.52186E+02 
  68266.7306     0.53068E+02 
  68298.9927     0.53962E+02 
  68331.2549     0.54867E+02 
  68363.5170     0.55784E+02 
  68395.7792     0.56713E+02 
  68428.0414     0.57654E+02 
  68460.3035     0.58608E+02 
  68492.5657     0.59573E+02 
  68524.8278     0.60551E+02 
  68557.0900     0.61542E+02 
  68589.3522     0.62545E+02 
  68621.6143     0.63561E+02 
  68653.8765     0.64589E+02 
  68686.1386     0.65631E+02 
  68718.4008     0.66685E+02 
  68750.6630     0.67753E+02 
  68782.9251     0.68834E+02 
  68815.1873     0.69928E+02 
  68847.4494     0.71036E+02 
  68879.7116     0.72157E+02 
  68911.9738     0.73292E+02 
  68944.2359     0.74441E+02 
  68976.4981     0.75603E+02 
  69008.7602     0.76780E+02 
  69041.0224     0.77971E+02 
  69073.2846     0.79176E+02 
  69105.5467     0.80395E+02 
  69137.8089     0.81629E+02 
  69170.0710     0.82877E+02 
  69202.3332     0.84140E+02 
  69234.5954     0.85418E+02 
  69266.8575     0.86710E+02 
  69299.1197     0.88018E+02 
  69331.3818     0.89341E+02 
  69363.6440     0.90678E+02 
  69395.9062     0.92031E+02 
  69428.1683     0.93400E+02 
  69460.4305     0.94784E+02 
  69492.6926     0.96184E+02 
  69524.9548     0.97599E+02 
  69557.2170     0.99030E+02 
  69589.4791     0.10048E+03 
  69621.7413     0.10194E+03 
  69654.0034     0.10342E+03 
  69686.2656     0.10492E+03 
  69718.5278     0.10643E+03 
  69750.7899     0.10796E+03 
  69783.0521     0.10950E+03 
  69815.3142     0.11106E+03 
  69847.5764     0.11264E+03 
  69879.8386     0.11423E+03 
  69912.1007     0.11585E+03 
  69944.3629     0.11748E+03 
  69976.6250     0.11912E+03 
  70008.8872     0.12079E+03 
  70041.1494     0.12247E+03 
  70073.4115     0.12416E+03 
  70105.6737     0.12588E+03 
  70137.9358     0.12761E+03 
  70170.1980     0.12936E+03 
  70202.4602     0.13113E+03 
  70234.7223     0.13292E+03 
  70266.9845     0.13473E+03 
  70299.2466     0.13655E+03 
  70331.5088     0.13839E+03 
  70363.7710     0.14025E+03 
  70396.0331     0.14213E+03 
  70428.2953     0.14402E+03 
  70460.5574     0.14594E+03 
  70492.8196     0.14787E+03 
  70525.0818     0.14982E+03 
  70557.3439     0.15179E+03 
  70589.6061     0.15378E+03 
  70621.8682     0.15579E+03 
  70654.1304     0.15782E+03 
  70686.3926     0.15987E+03 
  70718.6547     0.16193E+03 
  70750.9169     0.16402E+03 
  70783.1790     0.16612E+03 
  70815.4412     0.16825E+03 
  70847.7034     0.17039E+03 
  70879.9655     0.17255E+03 
  70912.2277     0.17473E+03 
  70944.4898     0.17694E+03 
  70976.7520     0.17916E+03 
  71009.0142     0.18140E+03 
  71041.2763     0.18366E+03 
  71073.5385     0.18594E+03 
  71105.8006     0.18825E+03 
  71138.0628     0.19057E+03 
  71170.3250     0.19291E+03 
  71202.5871     0.19527E+03 
  71234.8493     0.19765E+03 
  71267.1114     0.20006E+03 
  71299.3736     0.20248E+03 
  71331.6358     0.20492E+03 
  71363.8979     0.20739E+03 
  71396.1601     0.20987E+03 
  71428.4222     0.21238E+03 
  71460.6844     0.21490E+03 
  71492.9466     0.21745E+03 
  71525.2087     0.22001E+03 
  71557.4709     0.22260E+03 
  71589.7330     0.22521E+03 
  71621.9952     0.22784E+03 
  71654.2574     0.23049E+03 
  71686.5195     0.23316E+03 
  71718.7817     0.23585E+03 
  71751.0438     0.23856E+03 
  71783.3060     0.24130E+03 
  71815.5682     0.24405E+03 
  71847.8303     0.24683E+03 
  71880.0925     0.24962E+03 
  71912.3546     0.25244E+03 
  71944.6168     0.25528E+03 
  71976.8790     0.25814E+03 
  72009.1411     0.26102E+03 
  72041.4033     0.26392E+03 
  72073.6654     0.26685E+03 
  72105.9276     0.26979E+03 
  72138.1898     0.27276E+03 
  72170.4519     0.27574E+03 
  72202.7141     0.27875E+03 
  72234.9762     0.28178E+03 
  72267.2384     0.28483E+03 
  72299.5006     0.28790E+03 
  72331.7627     0.29099E+03 
  72364.0249     0.29410E+03 
  72396.2870     0.29724E+03 
  72428.5492     0.30039E+03 
  72460.8114     0.30357E+03 
  72493.0735     0.30677E+03 
  72525.3357     0.30999E+03 
  72557.5978     0.31323E+03 
  72589.8600     0.31649E+03 
