  32262.1600     0.17244E+03 
  32294.4222     0.17433E+03 
  32326.6843     0.17622E+03 
  32358.9465     0.17814E+03 
  32391.2086     0.18006E+03 
  32423.4708     0.18200E+03 
  32455.7330     0.18395E+03 
  32487.9951     0.18592E+03 
  32520.2573     0.18789E+03 
  32552.5194     0.18989E+03 
  32584.7816     0.19189E+03 
  32617.0438     0.19391E+03 
  32649.3059     0.19594E+03 
  32681.5681     0.19798E+03 
  32713.8302     0.20004E+03 
  32746.0924     0.20211E+03 
  32778.3546     0.20419E+03 
  32810.6167     0.20629E+03 
  32842.8789     0.20840E+03 
  32875.1410     0.21052E+03 
  32907.4032     0.21265E+03 
  32939.6654     0.21480E+03 
  32971.9275     0.21696E+03 
  33004.1897     0.21914E+03 
  33036.4518     0.22132E+03 
  33068.7140     0.22352E+03 
  33100.9762     0.22574E+03 
  33133.2383     0.22796E+03 
  33165.5005     0.23020E+03 
  33197.7626     0.23245E+03 
  33230.0248     0.23471E+03 
  33262.2870     0.23698E+03 
  33294.5491     0.23927E+03 
  33326.8113     0.24157E+03 
  33359.0734     0.24388E+03 
  33391.3356     0.24621E+03 
  33423.5978     0.24855E+03 
  33455.8599     0.25090E+03 
  33488.1221     0.25326E+03 
  33520.3842     0.25563E+03 
  33552.6464     0.25802E+03 
  33584.9086     0.26041E+03 
  33617.1707     0.26282E+03 
  33649.4329     0.26524E+03 
  33681.6950     0.26768E+03 
  33713.9572     0.27012E+03 
  33746.2194     0.27258E+03 
  33778.4815     0.27505E+03 
  33810.7437     0.27752E+03 
  33843.0058     0.28002E+03 
  33875.2680     0.28252E+03 
  33907.5302     0.28503E+03 
  33939.7923     0.28756E+03 
  33972.0545     0.29009E+03 
  34004.3166     0.29264E+03 
  34036.5788     0.29520E+03 
  34068.8410     0.29776E+03 
  34101.1031     0.30034E+03 
  34133.3653     0.30293E+03 
  34165.6274     0.30553E+03 
  34197.8896     0.30814E+03 
  34230.1518     0.31076E+03 
  34262.4139     0.31340E+03 
  34294.6761     0.31604E+03 
  34326.9382     0.31869E+03 
  34359.2004     0.32135E+03 
  34391.4626     0.32402E+03 
  34423.7247     0.32670E+03 
  34455.9869     0.32939E+03 
  34488.2490     0.33210E+03 
  34520.5112     0.33481E+03 
  34552.7734     0.33752E+03 
  34585.0355     0.34025E+03 
  34617.2977     0.34299E+03 
  34649.5598     0.34574E+03 
  34681.8220     0.34849E+03 
  34714.0842     0.35126E+03 
  34746.3463     0.35403E+03 
  34778.6085     0.35681E+03 
  34810.8706     0.35960E+03 
  34843.1328     0.36240E+03 
  34875.3950     0.36521E+03 
  34907.6571     0.36802E+03 
  34939.9193     0.37084E+03 
  34972.1814     0.37367E+03 
  35004.4436     0.37651E+03 
  35036.7058     0.37936E+03 
  35068.9679     0.38221E+03 
  35101.2301     0.38507E+03 
  35133.4922     0.38794E+03 
  35165.7544     0.39081E+03 
  35198.0166     0.39369E+03 
  35230.2787     0.39658E+03 
  35262.5409     0.39947E+03 
  35294.8030     0.40238E+03 
  35327.0652     0.40528E+03 
  35359.3274     0.40820E+03 
  35391.5895     0.41111E+03 
  35423.8517     0.41404E+03 
  35456.1138     0.41697E+03 
  35488.3760     0.41991E+03 
  35520.6382     0.42285E+03 
  35552.9003     0.42579E+03 
  35585.1625     0.42875E+03 
  35617.4246     0.43170E+03 
  35649.6868     0.43466E+03 
  35681.9490     0.43763E+03 
  35714.2111     0.44060E+03 
  35746.4733     0.44358E+03 
  35778.7354     0.44656E+03 
  35810.9976     0.44954E+03 
  35843.2598     0.45253E+03 
  35875.5219     0.45552E+03 
  35907.7841     0.45851E+03 
  35940.0462     0.46151E+03 
  35972.3084     0.46451E+03 
  36004.5706     0.46751E+03 
  36036.8327     0.47052E+03 
  36069.0949     0.47353E+03 
  36101.3570     0.47654E+03 
  36133.6192     0.47955E+03 
  36165.8814     0.48257E+03 
  36198.1435     0.48559E+03 
  36230.4057     0.48861E+03 
  36262.6678     0.49163E+03 
  36294.9300     0.49465E+03 
  36327.1922     0.49767E+03 
  36359.4543     0.50070E+03 
  36391.7165     0.50373E+03 
  36423.9786     0.50675E+03 
  36456.2408     0.50978E+03 
  36488.5030     0.51281E+03 
  36520.7651     0.51584E+03 
  36553.0273     0.51887E+03 
  36585.2894     0.52189E+03 
  36617.5516     0.52492E+03 
  36649.8138     0.52795E+03 
  36682.0759     0.53098E+03 
  36714.3381     0.53400E+03 
  36746.6002     0.53703E+03 
  36778.8624     0.54005E+03 
  36811.1246     0.54307E+03 
  36843.3867     0.54609E+03 
  36875.6489     0.54911E+03 
  36907.9110     0.55213E+03 
  36940.1732     0.55514E+03 
  36972.4354     0.55816E+03 
  37004.6975     0.56117E+03 
  37036.9597     0.56417E+03 
  37069.2218     0.56718E+03 
  37101.4840     0.57018E+03 
  37133.7462     0.57318E+03 
  37166.0083     0.57617E+03 
  37198.2705     0.57916E+03 
  37230.5326     0.58215E+03 
  37262.7948     0.58513E+03 
  37295.0570     0.58811E+03 
  37327.3191     0.59109E+03 
  37359.5813     0.59406E+03 
  37391.8434     0.59702E+03 
  37424.1056     0.59998E+03 
  37456.3678     0.60294E+03 
  37488.6299     0.60589E+03 
  37520.8921     0.60883E+03 
  37553.1542     0.61177E+03 
  37585.4164     0.61470E+03 
  37617.6786     0.61763E+03 
  37649.9407     0.62055E+03 
  37682.2029     0.62346E+03 
  37714.4650     0.62637E+03 
  37746.7272     0.62927E+03 
  37778.9894     0.63217E+03 
  37811.2515     0.63505E+03 
  37843.5137     0.63793E+03 
  37875.7758     0.64080E+03 
  37908.0380     0.64367E+03 
  37940.3002     0.64652E+03 
  37972.5623     0.64937E+03 
  38004.8245     0.65221E+03 
  38037.0866     0.65504E+03 
  38069.3488     0.65786E+03 
  38101.6110     0.66068E+03 
  38133.8731     0.66348E+03 
  38166.1353     0.66628E+03 
  38198.3974     0.66906E+03 
  38230.6596     0.67184E+03 
  38262.9218     0.67460E+03 
  38295.1839     0.67736E+03 
  38327.4461     0.68011E+03 
  38359.7082     0.68284E+03 
  38391.9704     0.68557E+03 
  38424.2326     0.68828E+03 
  38456.4947     0.69099E+03 
  38488.7569     0.69368E+03 
  38521.0190     0.69636E+03 
  38553.2812     0.69903E+03 
  38585.5434     0.70169E+03 
  38617.8055     0.70434E+03 
  38650.0677     0.70698E+03 
  38682.3298     0.70960E+03 
  38714.5920     0.71221E+03 
  38746.8542     0.71481E+03 
  38779.1163     0.71740E+03 
  38811.3785     0.71997E+03 
  38843.6406     0.72253E+03 
  38875.9028     0.72508E+03 
  38908.1650     0.72761E+03 
  38940.4271     0.73013E+03 
  38972.6893     0.73264E+03 
  39004.9514     0.73513E+03 
  39037.2136     0.73761E+03 
  39069.4758     0.74008E+03 
  39101.7379     0.74253E+03 
  39134.0001     0.74497E+03 
  39166.2622     0.74739E+03 
  39198.5244     0.74980E+03 
  39230.7866     0.75219E+03 
  39263.0487     0.75457E+03 
  39295.3109     0.75694E+03 
  39327.5730     0.75928E+03 
  39359.8352     0.76162E+03 
  39392.0974     0.76393E+03 
  39424.3595     0.76624E+03 
  39456.6217     0.76852E+03 
  39488.8838     0.77079E+03 
  39521.1460     0.77304E+03 
  39553.4082     0.77528E+03 
  39585.6703     0.77750E+03 
  39617.9325     0.77971E+03 
  39650.1946     0.78189E+03 
  39682.4568     0.78406E+03 
  39714.7190     0.78622E+03 
  39746.9811     0.78835E+03 
  39779.2433     0.79047E+03 
  39811.5054     0.79257E+03 
  39843.7676     0.79466E+03 
  39876.0298     0.79672E+03 
  39908.2919     0.79877E+03 
  39940.5541     0.80080E+03 
  39972.8162     0.80282E+03 
  40005.0784     0.80481E+03 
  40037.3406     0.80679E+03 
  40069.6027     0.80875E+03 
  40101.8649     0.81069E+03 
  40134.1270     0.81261E+03 
  40166.3892     0.81451E+03 
  40198.6514     0.81639E+03 
  40230.9135     0.81826E+03 
  40263.1757     0.82010E+03 
  40295.4378     0.82193E+03 
  40327.7000     0.82373E+03 
  40359.9622     0.82552E+03 
  40392.2243     0.82729E+03 
  40424.4865     0.82904E+03 
  40456.7486     0.83077E+03 
  40489.0108     0.83247E+03 
  40521.2730     0.83416E+03 
  40553.5351     0.83583E+03 
  40585.7973     0.83748E+03 
  40618.0594     0.83911E+03 
  40650.3216     0.84072E+03 
  40682.5838     0.84230E+03 
  40714.8459     0.84387E+03 
  40747.1081     0.84542E+03 
  40779.3702     0.84694E+03 
  40811.6324     0.84845E+03 
  40843.8946     0.84993E+03 
  40876.1567     0.85140E+03 
  40908.4189     0.85284E+03 
  40940.6810     0.85426E+03 
  40972.9432     0.85566E+03 
  41005.2054     0.85704E+03 
  41037.4675     0.85840E+03 
  41069.7297     0.85974E+03 
  41101.9918     0.86105E+03 
  41134.2540     0.86235E+03 
  41166.5162     0.86362E+03 
  41198.7783     0.86487E+03 
  41231.0405     0.86610E+03 
  41263.3026     0.86731E+03 
  41295.5648     0.86849E+03 
  41327.8270     0.86965E+03 
  41360.0891     0.87080E+03 
  41392.3513     0.87192E+03 
  41424.6134     0.87301E+03 
  41456.8756     0.87409E+03 
  41489.1378     0.87514E+03 
  41521.3999     0.87618E+03 
  41553.6621     0.87719E+03 
  41585.9242     0.87817E+03 
  41618.1864     0.87914E+03 
  41650.4486     0.88008E+03 
  41682.7107     0.88100E+03 
  41714.9729     0.88190E+03 
  41747.2350     0.88277E+03 
  41779.4972     0.88363E+03 
  41811.7594     0.88446E+03 
  41844.0215     0.88527E+03 
  41876.2837     0.88605E+03 
  41908.5458     0.88682E+03 
  41940.8080     0.88756E+03 
  41973.0702     0.88828E+03 
  42005.3323     0.88897E+03 
  42037.5945     0.88964E+03 
  42069.8566     0.89030E+03 
  42102.1188     0.89092E+03 
  42134.3810     0.89153E+03 
  42166.6431     0.89211E+03 
  42198.9053     0.89267E+03 
  42231.1674     0.89321E+03 
  42263.4296     0.89372E+03 
  42295.6918     0.89421E+03 
  42327.9539     0.89468E+03 
  42360.2161     0.89513E+03 
  42392.4782     0.89555E+03 
  42424.7404     0.89595E+03 
  42457.0026     0.89633E+03 
  42489.2647     0.89669E+03 
  42521.5269     0.89702E+03 
  42553.7890     0.89733E+03 
  42586.0512     0.89762E+03 
  42618.3134     0.89789E+03 
  42650.5755     0.89813E+03 
  42682.8377     0.89835E+03 
  42715.0998     0.89855E+03 
  42747.3620     0.89872E+03 
  42779.6242     0.89887E+03 
  42811.8863     0.89900E+03 
  42844.1485     0.89911E+03 
  42876.4106     0.89920E+03 
  42908.6728     0.89926E+03 
  42940.9350     0.89930E+03 
  42973.1971     0.89932E+03 
  43005.4593     0.89931E+03 
  43037.7214     0.89929E+03 
  43069.9836     0.89924E+03 
  43102.2458     0.89917E+03 
  43134.5079     0.89907E+03 
  43166.7701     0.89896E+03 
  43199.0322     0.89882E+03 
  43231.2944     0.89866E+03 
  43263.5566     0.89848E+03 
  43295.8187     0.89828E+03 
  43328.0809     0.89805E+03 
  43360.3430     0.89780E+03 
  43392.6052     0.89753E+03 
  43424.8674     0.89724E+03 
  43457.1295     0.89693E+03 
  43489.3917     0.89660E+03 
  43521.6538     0.89624E+03 
  43553.9160     0.89586E+03 
  43586.1782     0.89547E+03 
  43618.4403     0.89505E+03 
  43650.7025     0.89460E+03 
  43682.9646     0.89414E+03 
  43715.2268     0.89366E+03 
  43747.4890     0.89315E+03 
  43779.7511     0.89263E+03 
  43812.0133     0.89208E+03 
  43844.2754     0.89151E+03 
  43876.5376     0.89092E+03 
  43908.7998     0.89031E+03 
  43941.0619     0.88968E+03 
  43973.3241     0.88903E+03 
  44005.5862     0.88836E+03 
  44037.8484     0.88767E+03 
  44070.1106     0.88696E+03 
  44102.3727     0.88622E+03 
  44134.6349     0.88547E+03 
  44166.8970     0.88470E+03 
  44199.1592     0.88391E+03 
  44231.4214     0.88309E+03 
  44263.6835     0.88226E+03 
  44295.9457     0.88141E+03 
  44328.2078     0.88053E+03 
  44360.4700     0.87964E+03 
  44392.7322     0.87873E+03 
  44424.9943     0.87780E+03 
  44457.2565     0.87685E+03 
  44489.5186     0.87588E+03 
  44521.7808     0.87489E+03 
  44554.0430     0.87388E+03 
  44586.3051     0.87286E+03 
  44618.5673     0.87181E+03 
  44650.8294     0.87075E+03 
  44683.0916     0.86966E+03 
  44715.3538     0.86856E+03 
  44747.6159     0.86744E+03 
  44779.8781     0.86630E+03 
  44812.1402     0.86515E+03 
  44844.4024     0.86397E+03 
  44876.6646     0.86278E+03 
  44908.9267     0.86157E+03 
  44941.1889     0.86034E+03 
  44973.4510     0.85909E+03 
  45005.7132     0.85783E+03 
  45037.9754     0.85654E+03 
  45070.2375     0.85525E+03 
  45102.4997     0.85393E+03 
  45134.7618     0.85260E+03 
  45167.0240     0.85124E+03 
  45199.2862     0.84988E+03 
  45231.5483     0.84849E+03 
  45263.8105     0.84709E+03 
  45296.0726     0.84567E+03 
  45328.3348     0.84424E+03 
  45360.5970     0.84279E+03 
  45392.8591     0.84132E+03 
  45425.1213     0.83984E+03 
  45457.3834     0.83834E+03 
  45489.6456     0.83683E+03 
  45521.9078     0.83529E+03 
  45554.1699     0.83375E+03 
  45586.4321     0.83219E+03 
  45618.6942     0.83061E+03 
  45650.9564     0.82902E+03 
  45683.2186     0.82741E+03 
  45715.4807     0.82579E+03 
  45747.7429     0.82415E+03 
  45780.0050     0.82250E+03 
  45812.2672     0.82083E+03 
  45844.5294     0.81915E+03 
  45876.7915     0.81745E+03 
  45909.0537     0.81574E+03 
  45941.3158     0.81402E+03 
  45973.5780     0.81228E+03 
  46005.8402     0.81052E+03 
  46038.1023     0.80876E+03 
  46070.3645     0.80698E+03 
  46102.6266     0.80518E+03 
  46134.8888     0.80338E+03 
  46167.1510     0.80156E+03 
  46199.4131     0.79972E+03 
  46231.6753     0.79788E+03 
  46263.9374     0.79602E+03 
  46296.1996     0.79415E+03 
  46328.4618     0.79226E+03 
  46360.7239     0.79036E+03 
  46392.9861     0.78845E+03 
  46425.2482     0.78653E+03 
  46457.5104     0.78460E+03 
  46489.7726     0.78265E+03 
  46522.0347     0.78070E+03 
  46554.2969     0.77873E+03 
  46586.5590     0.77675E+03 
  46618.8212     0.77475E+03 
  46651.0834     0.77275E+03 
  46683.3455     0.77074E+03 
  46715.6077     0.76871E+03 
  46747.8698     0.76667E+03 
  46780.1320     0.76463E+03 
  46812.3942     0.76257E+03 
  46844.6563     0.76050E+03 
  46876.9185     0.75842E+03 
  46909.1806     0.75633E+03 
  46941.4428     0.75423E+03 
  46973.7050     0.75212E+03 
  47005.9671     0.75000E+03 
  47038.2293     0.74787E+03 
  47070.4914     0.74574E+03 
  47102.7536     0.74359E+03 
  47135.0158     0.74143E+03 
  47167.2779     0.73926E+03 
  47199.5401     0.73709E+03 
  47231.8022     0.73490E+03 
  47264.0644     0.73271E+03 
  47296.3266     0.73051E+03 
  47328.5887     0.72830E+03 
  47360.8509     0.72608E+03 
  47393.1130     0.72385E+03 
  47425.3752     0.72162E+03 
  47457.6374     0.71937E+03 
  47489.8995     0.71712E+03 
  47522.1617     0.71487E+03 
  47554.4238     0.71260E+03 
  47586.6860     0.71033E+03 
  47618.9482     0.70804E+03 
  47651.2103     0.70576E+03 
  47683.4725     0.70346E+03 
  47715.7346     0.70116E+03 
  47747.9968     0.69885E+03 
  47780.2590     0.69653E+03 
  47812.5211     0.69421E+03 
  47844.7833     0.69188E+03 
  47877.0454     0.68955E+03 
  47909.3076     0.68721E+03 
  47941.5698     0.68486E+03 
  47973.8319     0.68250E+03 
  48006.0941     0.68015E+03 
  48038.3562     0.67778E+03 
  48070.6184     0.67541E+03 
  48102.8806     0.67303E+03 
  48135.1427     0.67065E+03 
  48167.4049     0.66827E+03 
  48199.6670     0.66588E+03 
  48231.9292     0.66348E+03 
  48264.1914     0.66108E+03 
  48296.4535     0.65867E+03 
  48328.7157     0.65626E+03 
  48360.9778     0.65385E+03 
  48393.2400     0.65143E+03 
  48425.5022     0.64901E+03 
  48457.7643     0.64658E+03 
  48490.0265     0.64415E+03 
  48522.2886     0.64171E+03 
  48554.5508     0.63928E+03 
  48586.8130     0.63683E+03 
  48619.0751     0.63439E+03 
  48651.3373     0.63194E+03 
  48683.5994     0.62949E+03 
  48715.8616     0.62703E+03 
  48748.1238     0.62457E+03 
  48780.3859     0.62211E+03 
  48812.6481     0.61965E+03 
  48844.9102     0.61718E+03 
  48877.1724     0.61471E+03 
  48909.4346     0.61224E+03 
  48941.6967     0.60977E+03 
  48973.9589     0.60729E+03 
  49006.2210     0.60481E+03 
  49038.4832     0.60233E+03 
  49070.7454     0.59985E+03 
  49103.0075     0.59737E+03 
  49135.2697     0.59488E+03 
  49167.5318     0.59240E+03 
  49199.7940     0.58991E+03 
  49232.0562     0.58742E+03 
  49264.3183     0.58493E+03 
  49296.5805     0.58244E+03 
  49328.8426     0.57994E+03 
  49361.1048     0.57745E+03 
  49393.3670     0.57496E+03 
  49425.6291     0.57246E+03 
  49457.8913     0.56997E+03 
  49490.1534     0.56747E+03 
  49522.4156     0.56497E+03 
  49554.6778     0.56248E+03 
  49586.9399     0.55998E+03 
  49619.2021     0.55748E+03 
  49651.4642     0.55499E+03 
  49683.7264     0.55249E+03 
  49715.9886     0.54999E+03 
  49748.2507     0.54750E+03 
  49780.5129     0.54500E+03 
  49812.7750     0.54251E+03 
  49845.0372     0.54001E+03 
  49877.2994     0.53752E+03 
  49909.5615     0.53503E+03 
  49941.8237     0.53254E+03 
  49974.0858     0.53005E+03 
  50006.3480     0.52756E+03 
  50038.6102     0.52507E+03 
  50070.8723     0.52258E+03 
  50103.1345     0.52009E+03 
  50135.3966     0.51761E+03 
  50167.6588     0.51513E+03 
  50199.9210     0.51265E+03 
  50232.1831     0.51017E+03 
  50264.4453     0.50769E+03 
  50296.7074     0.50521E+03 
  50328.9696     0.50274E+03 
  50361.2318     0.50027E+03 
  50393.4939     0.49780E+03 
  50425.7561     0.49533E+03 
  50458.0182     0.49287E+03 
  50490.2804     0.49041E+03 
  50522.5426     0.48795E+03 
  50554.8047     0.48549E+03 
  50587.0669     0.48304E+03 
  50619.3290     0.48058E+03 
  50651.5912     0.47813E+03 
  50683.8534     0.47569E+03 
  50716.1155     0.47325E+03 
  50748.3777     0.47081E+03 
  50780.6398     0.46837E+03 
  50812.9020     0.46594E+03 
  50845.1642     0.46351E+03 
  50877.4263     0.46108E+03 
  50909.6885     0.45866E+03 
  50941.9506     0.45624E+03 
  50974.2128     0.45382E+03 
  51006.4750     0.45141E+03 
  51038.7371     0.44900E+03 
  51070.9993     0.44659E+03 
  51103.2614     0.44419E+03 
  51135.5236     0.44179E+03 
  51167.7858     0.43940E+03 
  51200.0479     0.43701E+03 
  51232.3101     0.43463E+03 
  51264.5722     0.43224E+03 
  51296.8344     0.42987E+03 
  51329.0966     0.42749E+03 
  51361.3587     0.42513E+03 
  51393.6209     0.42276E+03 
  51425.8830     0.42040E+03 
  51458.1452     0.41805E+03 
  51490.4074     0.41570E+03 
  51522.6695     0.41335E+03 
  51554.9317     0.41101E+03 
  51587.1938     0.40868E+03 
  51619.4560     0.40635E+03 
  51651.7182     0.40402E+03 
  51683.9803     0.40170E+03 
  51716.2425     0.39938E+03 
  51748.5046     0.39707E+03 
  51780.7668     0.39477E+03 
  51813.0290     0.39247E+03 
  51845.2911     0.39017E+03 
  51877.5533     0.38788E+03 
  51909.8154     0.38560E+03 
  51942.0776     0.38332E+03 
  51974.3398     0.38104E+03 
  52006.6019     0.37878E+03 
  52038.8641     0.37651E+03 
  52071.1262     0.37426E+03 
  52103.3884     0.37200E+03 
  52135.6506     0.36976E+03 
  52167.9127     0.36752E+03 
  52200.1749     0.36528E+03 
  52232.4370     0.36306E+03 
  52264.6992     0.36083E+03 
  52296.9614     0.35862E+03 
  52329.2235     0.35640E+03 
  52361.4857     0.35420E+03 
  52393.7478     0.35200E+03 
  52426.0100     0.34981E+03 
  52458.2722     0.34762E+03 
  52490.5343     0.34544E+03 
  52522.7965     0.34327E+03 
  52555.0586     0.34110E+03 
  52587.3208     0.33894E+03 
  52619.5830     0.33678E+03 
  52651.8451     0.33463E+03 
  52684.1073     0.33249E+03 
  52716.3694     0.33035E+03 
  52748.6316     0.32822E+03 
  52780.8938     0.32610E+03 
  52813.1559     0.32398E+03 
  52845.4181     0.32187E+03 
  52877.6802     0.31977E+03 
  52909.9424     0.31767E+03 
  52942.2046     0.31558E+03 
  52974.4667     0.31350E+03 
  53006.7289     0.31142E+03 
  53038.9910     0.30935E+03 
  53071.2532     0.30728E+03 
  53103.5154     0.30523E+03 
  53135.7775     0.30318E+03 
  53168.0397     0.30113E+03 
  53200.3018     0.29910E+03 
  53232.5640     0.29707E+03 
  53264.8262     0.29504E+03 
  53297.0883     0.29303E+03 
  53329.3505     0.29102E+03 
  53361.6126     0.28902E+03 
  53393.8748     0.28702E+03 
  53426.1370     0.28503E+03 
  53458.3991     0.28305E+03 
  53490.6613     0.28108E+03 
  53522.9234     0.27911E+03 
  53555.1856     0.27715E+03 
  53587.4478     0.27520E+03 
  53619.7099     0.27325E+03 
  53651.9721     0.27131E+03 
  53684.2342     0.26938E+03 
  53716.4964     0.26746E+03 
  53748.7586     0.26554E+03 
  53781.0207     0.26363E+03 
  53813.2829     0.26173E+03 
  53845.5450     0.25983E+03 
  53877.8072     0.25794E+03 
  53910.0694     0.25606E+03 
  53942.3315     0.25419E+03 
  53974.5937     0.25232E+03 
  54006.8558     0.25047E+03 
  54039.1180     0.24861E+03 
  54071.3802     0.24677E+03 
  54103.6423     0.24493E+03 
  54135.9045     0.24310E+03 
  54168.1666     0.24128E+03 
  54200.4288     0.23947E+03 
  54232.6910     0.23766E+03 
  54264.9531     0.23586E+03 
  54297.2153     0.23407E+03 
  54329.4774     0.23228E+03 
  54361.7396     0.23050E+03 
  54394.0018     0.22873E+03 
  54426.2639     0.22697E+03 
  54458.5261     0.22521E+03 
  54490.7882     0.22346E+03 
  54523.0504     0.22172E+03 
  54555.3126     0.21999E+03 
  54587.5747     0.21826E+03 
  54619.8369     0.21655E+03 
  54652.0990     0.21484E+03 
  54684.3612     0.21313E+03 
  54716.6234     0.21144E+03 
  54748.8855     0.20975E+03 
  54781.1477     0.20807E+03 
  54813.4098     0.20639E+03 
  54845.6720     0.20473E+03 
  54877.9342     0.20307E+03 
  54910.1963     0.20142E+03 
  54942.4585     0.19977E+03 
  54974.7206     0.19814E+03 
  55006.9828     0.19651E+03 
  55039.2450     0.19489E+03 
  55071.5071     0.19327E+03 
  55103.7693     0.19166E+03 
  55136.0314     0.19007E+03 
  55168.2936     0.18847E+03 
  55200.5558     0.18689E+03 
  55232.8179     0.18531E+03 
  55265.0801     0.18374E+03 
  55297.3422     0.18218E+03 
  55329.6044     0.18063E+03 
  55361.8666     0.17908E+03 
  55394.1287     0.17754E+03 
  55426.3909     0.17601E+03 
  55458.6530     0.17449E+03 
  55490.9152     0.17297E+03 
  55523.1774     0.17146E+03 
  55555.4395     0.16996E+03 
  55587.7017     0.16846E+03 
  55619.9638     0.16697E+03 
  55652.2260     0.16549E+03 
  55684.4882     0.16402E+03 
  55716.7503     0.16256E+03 
  55749.0125     0.16110E+03 
  55781.2746     0.15965E+03 
  55813.5368     0.15820E+03 
  55845.7990     0.15677E+03 
  55878.0611     0.15534E+03 
  55910.3233     0.15392E+03 
  55942.5854     0.15250E+03 
  55974.8476     0.15110E+03 
  56007.1098     0.14970E+03 
  56039.3719     0.14831E+03 
  56071.6341     0.14692E+03 
  56103.8962     0.14554E+03 
  56136.1584     0.14417E+03 
  56168.4206     0.14281E+03 
  56200.6827     0.14145E+03 
  56232.9449     0.14011E+03 
  56265.2070     0.13876E+03 
  56297.4692     0.13743E+03 
  56329.7314     0.13610E+03 
  56361.9935     0.13478E+03 
  56394.2557     0.13347E+03 
  56426.5178     0.13217E+03 
  56458.7800     0.13087E+03 
  56491.0422     0.12958E+03 
  56523.3043     0.12829E+03 
  56555.5665     0.12702E+03 
  56587.8286     0.12575E+03 
  56620.0908     0.12448E+03 
  56652.3530     0.12323E+03 
  56684.6151     0.12198E+03 
  56716.8773     0.12074E+03 
  56749.1394     0.11950E+03 
  56781.4016     0.11828E+03 
  56813.6638     0.11706E+03 
  56845.9259     0.11584E+03 
  56878.1881     0.11464E+03 
  56910.4502     0.11344E+03 
  56942.7124     0.11225E+03 
  56974.9746     0.11106E+03 
  57007.2367     0.10988E+03 
  57039.4989     0.10871E+03 
  57071.7610     0.10755E+03 
  57104.0232     0.10639E+03 
  57136.2854     0.10524E+03 
  57168.5475     0.10409E+03 
  57200.8097     0.10296E+03 
  57233.0718     0.10183E+03 
  57265.3340     0.10070E+03 
  57297.5962     0.99588E+02 
  57329.8583     0.98478E+02 
  57362.1205     0.97375E+02 
  57394.3826     0.96279E+02 
  57426.6448     0.95190E+02 
  57458.9070     0.94107E+02 
  57491.1691     0.93031E+02 
  57523.4313     0.91962E+02 
  57555.6934     0.90900E+02 
  57587.9556     0.89844E+02 
  57620.2178     0.88795E+02 
  57652.4799     0.87753E+02 
  57684.7421     0.86717E+02 
  57717.0042     0.85689E+02 
  57749.2664     0.84666E+02 
  57781.5286     0.83651E+02 
  57813.7907     0.82641E+02 
  57846.0529     0.81639E+02 
  57878.3150     0.80643E+02 
  57910.5772     0.79654E+02 
  57942.8394     0.78671E+02 
  57975.1015     0.77695E+02 
  58007.3637     0.76725E+02 
  58039.6258     0.75762E+02 
  58071.8880     0.74805E+02 
  58104.1502     0.73855E+02 
  58136.4123     0.72912E+02 
  58168.6745     0.71974E+02 
  58200.9366     0.71044E+02 
  58233.1988     0.70120E+02 
  58265.4610     0.69202E+02 
  58297.7231     0.68290E+02 
  58329.9853     0.67385E+02 
  58362.2474     0.66487E+02 
  58394.5096     0.65595E+02 
  58426.7718     0.64709E+02 
  58459.0339     0.63830E+02 
  58491.2961     0.62957E+02 
  58523.5582     0.62090E+02 
  58555.8204     0.61230E+02 
  58588.0826     0.60376E+02 
  58620.3447     0.59528E+02 
  58652.6069     0.58687E+02 
  58684.8690     0.57852E+02 
  58717.1312     0.57024E+02 
  58749.3934     0.56201E+02 
  58781.6555     0.55385E+02 
  58813.9177     0.54575E+02 
  58846.1798     0.53772E+02 
  58878.4420     0.52975E+02 
  58910.7042     0.52184E+02 
  58942.9663     0.51399E+02 
  58975.2285     0.50621E+02 
  59007.4906     0.49849E+02 
  59039.7528     0.49083E+02 
  59072.0150     0.48323E+02 
  59104.2771     0.47569E+02 
  59136.5393     0.46822E+02 
  59168.8014     0.46081E+02 
  59201.0636     0.45346E+02 
  59233.3258     0.44618E+02 
  59265.5879     0.43896E+02 
  59297.8501     0.43179E+02 
  59330.1122     0.42470E+02 
  59362.3744     0.41766E+02 
  59394.6366     0.41068E+02 
  59426.8987     0.40377E+02 
  59459.1609     0.39692E+02 
  59491.4230     0.39013E+02 
  59523.6852     0.38340E+02 
  59555.9474     0.37674E+02 
  59588.2095     0.37014E+02 
  59620.4717     0.36360E+02 
  59652.7338     0.35712E+02 
  59684.9960     0.35070E+02 
  59717.2582     0.34435E+02 
  59749.5203     0.33806E+02 
  59781.7825     0.33183E+02 
  59814.0446     0.32567E+02 
  59846.3068     0.31956E+02 
  59878.5690     0.31352E+02 
  59910.8311     0.30754E+02 
  59943.0933     0.30163E+02 
  59975.3554     0.29578E+02 
  60007.6176     0.28999E+02 
  60039.8798     0.28426E+02 
  60072.1419     0.27860E+02 
  60104.4041     0.27300E+02 
  60136.6662     0.26746E+02 
  60168.9284     0.26199E+02 
  60201.1906     0.25658E+02 
  60233.4527     0.25123E+02 
  60265.7149     0.24595E+02 
  60297.9770     0.24073E+02 
  60330.2392     0.23558E+02 
  60362.5014     0.23049E+02 
  60394.7635     0.22546E+02 
  60427.0257     0.22050E+02 
  60459.2878     0.21561E+02 
  60491.5500     0.21078E+02 
  60523.8122     0.20602E+02 
  60556.0743     0.20132E+02 
  60588.3365     0.19669E+02 
  60620.5986     0.19212E+02 
  60652.8608     0.18762E+02 
  60685.1230     0.18319E+02 
  60717.3851     0.17882E+02 
  60749.6473     0.17452E+02 
  60781.9094     0.17029E+02 
  60814.1716     0.16613E+02 
  60846.4338     0.16204E+02 
  60878.6959     0.15801E+02 
  60910.9581     0.15405E+02 
  60943.2202     0.15016E+02 
  60975.4824     0.14635E+02 
  61007.7446     0.14260E+02 
  61040.0067     0.13892E+02 
  61072.2689     0.13531E+02 
  61104.5310     0.13178E+02 
  61136.7932     0.12831E+02 
  61169.0554     0.12492E+02 
  61201.3175     0.12160E+02 
  61233.5797     0.11835E+02 
  61265.8418     0.11518E+02 
  61298.1040     0.11208E+02 
  61330.3662     0.10905E+02 
  61362.6283     0.10610E+02 
  61394.8905     0.10322E+02 
  61427.1526     0.10043E+02 
  61459.4148     0.97703E+01 
  61491.6770     0.95057E+01 
  61523.9391     0.92489E+01 
  61556.2013     0.90000E+01 
  61588.4634     0.87589E+01 
  61620.7256     0.85258E+01 
  61652.9878     0.83007E+01 
  61685.2499     0.80837E+01 
  61717.5121     0.78748E+01 
  61749.7742     0.76742E+01 
  61782.0364     0.74818E+01 
  61814.2986     0.72979E+01 
  61846.5607     0.71224E+01 
  61878.8229     0.69554E+01 
  61911.0850     0.67970E+01 
  61943.3472     0.66473E+01 
  61975.6094     0.65063E+01 
  62007.8715     0.63742E+01 
  62040.1337     0.62511E+01 
  62072.3958     0.61369E+01 
  62104.6580     0.60319E+01 
  62136.9202     0.59361E+01 
  62169.1823     0.58496E+01 
  62201.4445     0.57725E+01 
  62233.7066     0.57049E+01 
  62265.9688     0.56469E+01 
  62298.2310     0.55986E+01 
  62330.4931     0.55601E+01 
  62362.7553     0.55315E+01 
  62395.0174     0.55129E+01 
  62427.2796     0.55045E+01 
  62459.5418     0.55064E+01 
  62491.8039     0.55185E+01 
  62524.0661     0.55412E+01 
  62556.3282     0.55745E+01 
  62588.5904     0.56186E+01 
  62620.8526     0.56734E+01 
  62653.1147     0.57393E+01 
  62685.3769     0.58163E+01 
  62717.6390     0.59046E+01 
  62749.9012     0.60042E+01 
  62782.1634     0.61154E+01 
  62814.4255     0.62383E+01 
  62846.6877     0.63730E+01 
  62878.9498     0.65196E+01 
  62911.2120     0.66784E+01 
  62943.4742     0.68495E+01 
  62975.7363     0.70329E+01 
  63007.9985     0.72290E+01 
  63040.2606     0.74378E+01 
  63072.5228     0.76596E+01 
  63104.7850     0.78944E+01 
  63137.0471     0.81426E+01 
  63169.3093     0.84041E+01 
  63201.5714     0.86793E+01 
  63233.8336     0.89682E+01 
  63266.0958     0.92712E+01 
  63298.3579     0.95883E+01 
  63330.6201     0.99198E+01 
  63362.8822     0.10266E+02 
  63395.1444     0.10627E+02 
  63427.4066     0.11002E+02 
  63459.6687     0.11393E+02 
  63491.9309     0.11800E+02 
  63524.1930     0.12221E+02 
  63556.4552     0.12659E+02 
  63588.7174     0.13113E+02 
  63620.9795     0.13583E+02 
  63653.2417     0.14069E+02 
  63685.5038     0.14572E+02 
  63717.7660     0.15093E+02 
  63750.0282     0.15630E+02 
  63782.2903     0.16185E+02 
  63814.5525     0.16757E+02 
  63846.8146     0.17347E+02 
  63879.0768     0.17956E+02 
  63911.3390     0.18583E+02 
  63943.6011     0.19228E+02 
  63975.8633     0.19893E+02 
  64008.1254     0.20577E+02 
  64040.3876     0.21280E+02 
  64072.6498     0.22003E+02 
  64104.9119     0.22747E+02 
  64137.1741     0.23510E+02 
  64169.4362     0.24295E+02 
  64201.6984     0.25100E+02 
  64233.9606     0.25927E+02 
  64266.2227     0.26775E+02 
  64298.4849     0.27645E+02 
  64330.7470     0.28537E+02 
  64363.0092     0.29452E+02 
  64395.2714     0.30390E+02 
  64427.5335     0.31351E+02 
  64459.7957     0.32335E+02 
  64492.0578     0.33344E+02 
  64524.3200     0.34376E+02 
  64556.5822     0.35434E+02 
  64588.8443     0.36516E+02 
  64621.1065     0.37623E+02 
  64653.3686     0.38756E+02 
  64685.6308     0.39916E+02 
  64717.8930     0.41101E+02 
  64750.1551     0.42314E+02 
  64782.4173     0.43553E+02 
  64814.6794     0.44820E+02 
  64846.9416     0.46116E+02 
  64879.2038     0.47439E+02 
  64911.4659     0.48792E+02 
  64943.7281     0.50173E+02 
  64975.9902     0.51584E+02 
  65008.2524     0.53026E+02 
  65040.5146     0.54498E+02 
  65072.7767     0.56001E+02 
  65105.0389     0.57535E+02 
  65137.3010     0.59101E+02 
  65169.5632     0.60699E+02 
  65201.8254     0.62330E+02 
  65234.0875     0.63995E+02 
  65266.3497     0.65693E+02 
  65298.6118     0.67425E+02 
  65330.8740     0.69192E+02 
  65363.1362     0.70994E+02 
  65395.3983     0.72832E+02 
  65427.6605     0.74706E+02 
  65459.9226     0.76617E+02 
  65492.1848     0.78565E+02 
  65524.4470     0.80551E+02 
  65556.7091     0.82575E+02 
  65588.9713     0.84637E+02 
  65621.2334     0.86740E+02 
  65653.4956     0.88882E+02 
  65685.7578     0.91064E+02 
  65718.0199     0.93287E+02 
  65750.2821     0.95553E+02 
  65782.5442     0.97860E+02 
  65814.8064     0.10021E+03 
  65847.0686     0.10260E+03 
  65879.3307     0.10504E+03 
  65911.5929     0.10752E+03 
  65943.8550     0.11005E+03 
  65976.1172     0.11262E+03 
  66008.3794     0.11524E+03 
  66040.6415     0.11791E+03 
  66072.9037     0.12062E+03 
  66105.1658     0.12338E+03 
  66137.4280     0.12619E+03 
  66169.6902     0.12905E+03 
  66201.9523     0.13196E+03 
  66234.2145     0.13493E+03 
  66266.4766     0.13794E+03 
  66298.7388     0.14101E+03 
  66331.0010     0.14412E+03 
  66363.2631     0.14730E+03 
  66395.5253     0.15052E+03 
  66427.7874     0.15380E+03 
  66460.0496     0.15714E+03 
  66492.3118     0.16054E+03 
  66524.5739     0.16399E+03 
  66556.8361     0.16750E+03 
  66589.0982     0.17106E+03 
  66621.3604     0.17469E+03 
  66653.6226     0.17838E+03 
  66685.8847     0.18213E+03 
  66718.1469     0.18594E+03 
  66750.4090     0.18981E+03 
  66782.6712     0.19375E+03 
  66814.9334     0.19775E+03 
  66847.1955     0.20182E+03 
  66879.4577     0.20595E+03 
  66911.7198     0.21015E+03 
  66943.9820     0.21441E+03 
  66976.2442     0.21874E+03 
  67008.5063     0.22315E+03 
  67040.7685     0.22762E+03 
  67073.0306     0.23216E+03 
  67105.2928     0.23678E+03 
  67137.5550     0.24147E+03 
  67169.8171     0.24623E+03 
  67202.0793     0.25106E+03 
  67234.3414     0.25597E+03 
  67266.6036     0.26096E+03 
  67298.8658     0.26602E+03 
  67331.1279     0.27116E+03 
  67363.3901     0.27638E+03 
  67395.6522     0.28168E+03 
  67427.9144     0.28706E+03 
  67460.1766     0.29252E+03 
  67492.4387     0.29807E+03 
  67524.7009     0.30369E+03 
  67556.9630     0.30940E+03 
  67589.2252     0.31520E+03 
  67621.4874     0.32108E+03 
  67653.7495     0.32705E+03 
  67686.0117     0.33311E+03 
  67718.2738     0.33925E+03 
  67750.5360     0.34549E+03 
  67782.7982     0.35182E+03 
  67815.0603     0.35824E+03 
  67847.3225     0.36475E+03 
  67879.5846     0.37136E+03 
  67911.8468     0.37806E+03 
  67944.1090     0.38486E+03 
  67976.3711     0.39175E+03 
  68008.6333     0.39875E+03 
  68040.8954     0.40584E+03 
  68073.1576     0.41303E+03 
  68105.4198     0.42032E+03 
  68137.6819     0.42772E+03 
  68169.9441     0.43522E+03 
  68202.2062     0.44282E+03 
  68234.4684     0.45053E+03 
  68266.7306     0.45835E+03 
  68298.9927     0.46627E+03 
  68331.2549     0.47430E+03 
  68363.5170     0.48244E+03 
  68395.7792     0.49069E+03 
  68428.0414     0.49905E+03 
  68460.3035     0.50753E+03 
  68492.5657     0.51612E+03 
  68524.8278     0.52483E+03 
  68557.0900     0.53365E+03 
  68589.3522     0.54259E+03 
  68621.6143     0.55164E+03 
  68653.8765     0.56082E+03 
  68686.1386     0.57012E+03 
  68718.4008     0.57954E+03 
  68750.6630     0.58908E+03 
  68782.9251     0.59874E+03 
  68815.1873     0.60853E+03 
  68847.4494     0.61845E+03 
  68879.7116     0.62849E+03 
  68911.9738     0.63867E+03 
  68944.2359     0.64897E+03 
  68976.4981     0.65940E+03 
  69008.7602     0.66997E+03 
  69041.0224     0.68066E+03 
  69073.2846     0.69149E+03 
  69105.5467     0.70246E+03 
  69137.8089     0.71356E+03 
  69170.0710     0.72480E+03 
  69202.3332     0.73618E+03 
  69234.5954     0.74770E+03 
  69266.8575     0.75936E+03 
  69299.1197     0.77116E+03 
  69331.3818     0.78311E+03 
  69363.6440     0.79519E+03 
  69395.9062     0.80743E+03 
  69428.1683     0.81981E+03 
  69460.4305     0.83234E+03 
  69492.6926     0.84501E+03 
  69524.9548     0.85784E+03 
  69557.2170     0.87082E+03 
  69589.4791     0.88395E+03 
  69621.7413     0.89723E+03 
  69654.0034     0.91067E+03 
  69686.2656     0.92426E+03 
  69718.5278     0.93801E+03 
  69750.7899     0.95192E+03 
  69783.0521     0.96598E+03 
  69815.3142     0.98021E+03 
  69847.5764     0.99460E+03 
  69879.8386     0.10091E+04 
  69912.1007     0.10239E+04 
  69944.3629     0.10387E+04 
  69976.6250     0.10538E+04 
  70008.8872     0.10690E+04 
  70041.1494     0.10844E+04 
  70073.4115     0.10999E+04 
  70105.6737     0.11156E+04 
  70137.9358     0.11315E+04 
  70170.1980     0.11476E+04 
  70202.4602     0.11638E+04 
  70234.7223     0.11802E+04 
  70266.9845     0.11968E+04 
  70299.2466     0.12135E+04 
  70331.5088     0.12305E+04 
  70363.7710     0.12476E+04 
  70396.0331     0.12649E+04 
  70428.2953     0.12823E+04 
  70460.5574     0.13000E+04 
  70492.8196     0.13178E+04 
  70525.0818     0.13358E+04 
  70557.3439     0.13540E+04 
  70589.6061     0.13724E+04 
  70621.8682     0.13910E+04 
  70654.1304     0.14097E+04 
  70686.3926     0.14287E+04 
  70718.6547     0.14478E+04 
  70750.9169     0.14671E+04 
  70783.1790     0.14866E+04 
  70815.4412     0.15063E+04 
  70847.7034     0.15262E+04 
  70879.9655     0.15463E+04 
  70912.2277     0.15666E+04 
  70944.4898     0.15871E+04 
  70976.7520     0.16078E+04 
  71009.0142     0.16286E+04 
  71041.2763     0.16497E+04 
  71073.5385     0.16710E+04 
  71105.8006     0.16924E+04 
  71138.0628     0.17141E+04 
  71170.3250     0.17360E+04 
  71202.5871     0.17580E+04 
  71234.8493     0.17803E+04 
  71267.1114     0.18028E+04 
  71299.3736     0.18254E+04 
  71331.6358     0.18483E+04 
  71363.8979     0.18714E+04 
  71396.1601     0.18947E+04 
  71428.4222     0.19182E+04 
  71460.6844     0.19419E+04 
  71492.9466     0.19658E+04 
  71525.2087     0.19899E+04 
  71557.4709     0.20142E+04 
  71589.7330     0.20387E+04 
  71621.9952     0.20635E+04 
  71654.2574     0.20884E+04 
  71686.5195     0.21136E+04 
  71718.7817     0.21390E+04 
  71751.0438     0.21646E+04 
  71783.3060     0.21904E+04 
  71815.5682     0.22164E+04 
  71847.8303     0.22426E+04 
  71880.0925     0.22690E+04 
  71912.3546     0.22957E+04 
  71944.6168     0.23225E+04 
  71976.8790     0.23496E+04 
  72009.1411     0.23769E+04 
  72041.4033     0.24044E+04 
  72073.6654     0.24321E+04 
  72105.9276     0.24601E+04 
  72138.1898     0.24882E+04 
  72170.4519     0.25166E+04 
  72202.7141     0.25452E+04 
  72234.9762     0.25740E+04 
  72267.2384     0.26030E+04 
  72299.5006     0.26322E+04 
  72331.7627     0.26617E+04 
  72364.0249     0.26914E+04 
  72396.2870     0.27213E+04 
  72428.5492     0.27514E+04 
  72460.8114     0.27817E+04 
  72493.0735     0.28122E+04 
  72525.3357     0.28430E+04 
  72557.5978     0.28740E+04 
  72589.8600     0.29052E+04 
