  32262.1600     0.58556E-04 
  32294.4222     0.59247E-04 
  32326.6843     0.59944E-04 
  32358.9465     0.60646E-04 
  32391.2086     0.61354E-04 
  32423.4708     0.62067E-04 
  32455.7330     0.62785E-04 
  32487.9951     0.63509E-04 
  32520.2573     0.64239E-04 
  32552.5194     0.64974E-04 
  32584.7816     0.65715E-04 
  32617.0438     0.66461E-04 
  32649.3059     0.67212E-04 
  32681.5681     0.67969E-04 
  32713.8302     0.68731E-04 
  32746.0924     0.69499E-04 
  32778.3546     0.70273E-04 
  32810.6167     0.71052E-04 
  32842.8789     0.71836E-04 
  32875.1410     0.72626E-04 
  32907.4032     0.73421E-04 
  32939.6654     0.74222E-04 
  32971.9275     0.75028E-04 
  33004.1897     0.75839E-04 
  33036.4518     0.76656E-04 
  33068.7140     0.77478E-04 
  33100.9762     0.78306E-04 
  33133.2383     0.79139E-04 
  33165.5005     0.79978E-04 
  33197.7626     0.80822E-04 
  33230.0248     0.81671E-04 
  33262.2870     0.82525E-04 
  33294.5491     0.83385E-04 
  33326.8113     0.84250E-04 
  33359.0734     0.85121E-04 
  33391.3356     0.85997E-04 
  33423.5978     0.86878E-04 
  33455.8599     0.87764E-04 
  33488.1221     0.88655E-04 
  33520.3842     0.89552E-04 
  33552.6464     0.90454E-04 
  33584.9086     0.91361E-04 
  33617.1707     0.92273E-04 
  33649.4329     0.93190E-04 
  33681.6950     0.94112E-04 
  33713.9572     0.95039E-04 
  33746.2194     0.95972E-04 
  33778.4815     0.96909E-04 
  33810.7437     0.97852E-04 
  33843.0058     0.98799E-04 
  33875.2680     0.99751E-04 
  33907.5302     0.10071E-03 
  33939.7923     0.10167E-03 
  33972.0545     0.10264E-03 
  34004.3166     0.10361E-03 
  34036.5788     0.10459E-03 
  34068.8410     0.10557E-03 
  34101.1031     0.10655E-03 
  34133.3653     0.10754E-03 
  34165.6274     0.10854E-03 
  34197.8896     0.10954E-03 
  34230.1518     0.11054E-03 
  34262.4139     0.11155E-03 
  34294.6761     0.11257E-03 
  34326.9382     0.11358E-03 
  34359.2004     0.11461E-03 
  34391.4626     0.11563E-03 
  34423.7247     0.11666E-03 
  34455.9869     0.11770E-03 
  34488.2490     0.11874E-03 
  34520.5112     0.11978E-03 
  34552.7734     0.12083E-03 
  34585.0355     0.12188E-03 
  34617.2977     0.12294E-03 
  34649.5598     0.12400E-03 
  34681.8220     0.12506E-03 
  34714.0842     0.12613E-03 
  34746.3463     0.12721E-03 
  34778.6085     0.12828E-03 
  34810.8706     0.12936E-03 
  34843.1328     0.13045E-03 
  34875.3950     0.13153E-03 
  34907.6571     0.13262E-03 
  34939.9193     0.13372E-03 
  34972.1814     0.13482E-03 
  35004.4436     0.13592E-03 
  35036.7058     0.13702E-03 
  35068.9679     0.13813E-03 
  35101.2301     0.13924E-03 
  35133.4922     0.14036E-03 
  35165.7544     0.14148E-03 
  35198.0166     0.14260E-03 
  35230.2787     0.14372E-03 
  35262.5409     0.14485E-03 
  35294.8030     0.14598E-03 
  35327.0652     0.14712E-03 
  35359.3274     0.14825E-03 
  35391.5895     0.14939E-03 
  35423.8517     0.15054E-03 
  35456.1138     0.15168E-03 
  35488.3760     0.15283E-03 
  35520.6382     0.15398E-03 
  35552.9003     0.15513E-03 
  35585.1625     0.15629E-03 
  35617.4246     0.15744E-03 
  35649.6868     0.15860E-03 
  35681.9490     0.15977E-03 
  35714.2111     0.16093E-03 
  35746.4733     0.16210E-03 
  35778.7354     0.16326E-03 
  35810.9976     0.16444E-03 
  35843.2598     0.16561E-03 
  35875.5219     0.16678E-03 
  35907.7841     0.16796E-03 
  35940.0462     0.16914E-03 
  35972.3084     0.17031E-03 
  36004.5706     0.17150E-03 
  36036.8327     0.17268E-03 
  36069.0949     0.17386E-03 
  36101.3570     0.17505E-03 
  36133.6192     0.17623E-03 
  36165.8814     0.17742E-03 
  36198.1435     0.17861E-03 
  36230.4057     0.17980E-03 
  36262.6678     0.18099E-03 
  36294.9300     0.18218E-03 
  36327.1922     0.18337E-03 
  36359.4543     0.18457E-03 
  36391.7165     0.18576E-03 
  36423.9786     0.18696E-03 
  36456.2408     0.18815E-03 
  36488.5030     0.18935E-03 
  36520.7651     0.19054E-03 
  36553.0273     0.19174E-03 
  36585.2894     0.19294E-03 
  36617.5516     0.19413E-03 
  36649.8138     0.19533E-03 
  36682.0759     0.19653E-03 
  36714.3381     0.19772E-03 
  36746.6002     0.19892E-03 
  36778.8624     0.20012E-03 
  36811.1246     0.20131E-03 
  36843.3867     0.20251E-03 
  36875.6489     0.20370E-03 
  36907.9110     0.20490E-03 
  36940.1732     0.20609E-03 
  36972.4354     0.20729E-03 
  37004.6975     0.20848E-03 
  37036.9597     0.20967E-03 
  37069.2218     0.21086E-03 
  37101.4840     0.21205E-03 
  37133.7462     0.21324E-03 
  37166.0083     0.21442E-03 
  37198.2705     0.21561E-03 
  37230.5326     0.21679E-03 
  37262.7948     0.21798E-03 
  37295.0570     0.21916E-03 
  37327.3191     0.22034E-03 
  37359.5813     0.22152E-03 
  37391.8434     0.22269E-03 
  37424.1056     0.22387E-03 
  37456.3678     0.22504E-03 
  37488.6299     0.22621E-03 
  37520.8921     0.22738E-03 
  37553.1542     0.22855E-03 
  37585.4164     0.22971E-03 
  37617.6786     0.23087E-03 
  37649.9407     0.23203E-03 
  37682.2029     0.23319E-03 
  37714.4650     0.23434E-03 
  37746.7272     0.23549E-03 
  37778.9894     0.23664E-03 
  37811.2515     0.23779E-03 
  37843.5137     0.23893E-03 
  37875.7758     0.24007E-03 
  37908.0380     0.24121E-03 
  37940.3002     0.24234E-03 
  37972.5623     0.24347E-03 
  38004.8245     0.24460E-03 
  38037.0866     0.24572E-03 
  38069.3488     0.24684E-03 
  38101.6110     0.24796E-03 
  38133.8731     0.24907E-03 
  38166.1353     0.25018E-03 
  38198.3974     0.25129E-03 
  38230.6596     0.25239E-03 
  38262.9218     0.25349E-03 
  38295.1839     0.25458E-03 
  38327.4461     0.25567E-03 
  38359.7082     0.25675E-03 
  38391.9704     0.25783E-03 
  38424.2326     0.25891E-03 
  38456.4947     0.25998E-03 
  38488.7569     0.26105E-03 
  38521.0190     0.26211E-03 
  38553.2812     0.26317E-03 
  38585.5434     0.26422E-03 
  38617.8055     0.26527E-03 
  38650.0677     0.26632E-03 
  38682.3298     0.26736E-03 
  38714.5920     0.26839E-03 
  38746.8542     0.26942E-03 
  38779.1163     0.27044E-03 
  38811.3785     0.27146E-03 
  38843.6406     0.27247E-03 
  38875.9028     0.27348E-03 
  38908.1650     0.27448E-03 
  38940.4271     0.27548E-03 
  38972.6893     0.27647E-03 
  39004.9514     0.27745E-03 
  39037.2136     0.27843E-03 
  39069.4758     0.27941E-03 
  39101.7379     0.28037E-03 
  39134.0001     0.28133E-03 
  39166.2622     0.28229E-03 
  39198.5244     0.28324E-03 
  39230.7866     0.28418E-03 
  39263.0487     0.28512E-03 
  39295.3109     0.28605E-03 
  39327.5730     0.28697E-03 
  39359.8352     0.28789E-03 
  39392.0974     0.28880E-03 
  39424.3595     0.28971E-03 
  39456.6217     0.29060E-03 
  39488.8838     0.29150E-03 
  39521.1460     0.29238E-03 
  39553.4082     0.29326E-03 
  39585.6703     0.29413E-03 
  39617.9325     0.29499E-03 
  39650.1946     0.29585E-03 
  39682.4568     0.29670E-03 
  39714.7190     0.29754E-03 
  39746.9811     0.29838E-03 
  39779.2433     0.29920E-03 
  39811.5054     0.30002E-03 
  39843.7676     0.30084E-03 
  39876.0298     0.30164E-03 
  39908.2919     0.30244E-03 
  39940.5541     0.30323E-03 
  39972.8162     0.30402E-03 
  40005.0784     0.30479E-03 
  40037.3406     0.30556E-03 
  40069.6027     0.30632E-03 
  40101.8649     0.30707E-03 
  40134.1270     0.30782E-03 
  40166.3892     0.30856E-03 
  40198.6514     0.30928E-03 
  40230.9135     0.31000E-03 
  40263.1757     0.31072E-03 
  40295.4378     0.31142E-03 
  40327.7000     0.31212E-03 
  40359.9622     0.31281E-03 
  40392.2243     0.31349E-03 
  40424.4865     0.31416E-03 
  40456.7486     0.31482E-03 
  40489.0108     0.31548E-03 
  40521.2730     0.31613E-03 
  40553.5351     0.31676E-03 
  40585.7973     0.31739E-03 
  40618.0594     0.31802E-03 
  40650.3216     0.31863E-03 
  40682.5838     0.31923E-03 
  40714.8459     0.31983E-03 
  40747.1081     0.32042E-03 
  40779.3702     0.32100E-03 
  40811.6324     0.32157E-03 
  40843.8946     0.32213E-03 
  40876.1567     0.32268E-03 
  40908.4189     0.32322E-03 
  40940.6810     0.32376E-03 
  40972.9432     0.32428E-03 
  41005.2054     0.32480E-03 
  41037.4675     0.32531E-03 
  41069.7297     0.32581E-03 
  41101.9918     0.32630E-03 
  41134.2540     0.32678E-03 
  41166.5162     0.32725E-03 
  41198.7783     0.32771E-03 
  41231.0405     0.32817E-03 
  41263.3026     0.32861E-03 
  41295.5648     0.32905E-03 
  41327.8270     0.32947E-03 
  41360.0891     0.32989E-03 
  41392.3513     0.33030E-03 
  41424.6134     0.33070E-03 
  41456.8756     0.33109E-03 
  41489.1378     0.33147E-03 
  41521.3999     0.33184E-03 
  41553.6621     0.33220E-03 
  41585.9242     0.33255E-03 
  41618.1864     0.33290E-03 
  41650.4486     0.33323E-03 
  41682.7107     0.33355E-03 
  41714.9729     0.33387E-03 
  41747.2350     0.33418E-03 
  41779.4972     0.33447E-03 
  41811.7594     0.33476E-03 
  41844.0215     0.33504E-03 
  41876.2837     0.33531E-03 
  41908.5458     0.33556E-03 
  41940.8080     0.33581E-03 
  41973.0702     0.33605E-03 
  42005.3323     0.33629E-03 
  42037.5945     0.33651E-03 
  42069.8566     0.33672E-03 
  42102.1188     0.33692E-03 
  42134.3810     0.33711E-03 
  42166.6431     0.33730E-03 
  42198.9053     0.33747E-03 
  42231.1674     0.33764E-03 
  42263.4296     0.33779E-03 
  42295.6918     0.33794E-03 
  42327.9539     0.33808E-03 
  42360.2161     0.33820E-03 
  42392.4782     0.33832E-03 
  42424.7404     0.33843E-03 
  42457.0026     0.33853E-03 
  42489.2647     0.33862E-03 
  42521.5269     0.33870E-03 
  42553.7890     0.33877E-03 
  42586.0512     0.33883E-03 
  42618.3134     0.33888E-03 
  42650.5755     0.33893E-03 
  42682.8377     0.33896E-03 
  42715.0998     0.33898E-03 
  42747.3620     0.33900E-03 
  42779.6242     0.33901E-03 
  42811.8863     0.33900E-03 
  42844.1485     0.33899E-03 
  42876.4106     0.33897E-03 
  42908.6728     0.33894E-03 
  42940.9350     0.33890E-03 
  42973.1971     0.33885E-03 
  43005.4593     0.33879E-03 
  43037.7214     0.33872E-03 
  43069.9836     0.33864E-03 
  43102.2458     0.33856E-03 
  43134.5079     0.33846E-03 
  43166.7701     0.33836E-03 
  43199.0322     0.33825E-03 
  43231.2944     0.33812E-03 
  43263.5566     0.33799E-03 
  43295.8187     0.33785E-03 
  43328.0809     0.33770E-03 
  43360.3430     0.33755E-03 
  43392.6052     0.33738E-03 
  43424.8674     0.33720E-03 
  43457.1295     0.33702E-03 
  43489.3917     0.33683E-03 
  43521.6538     0.33663E-03 
  43553.9160     0.33641E-03 
  43586.1782     0.33620E-03 
  43618.4403     0.33597E-03 
  43650.7025     0.33573E-03 
  43682.9646     0.33549E-03 
  43715.2268     0.33523E-03 
  43747.4890     0.33497E-03 
  43779.7511     0.33470E-03 
  43812.0133     0.33442E-03 
  43844.2754     0.33413E-03 
  43876.5376     0.33384E-03 
  43908.7998     0.33353E-03 
  43941.0619     0.33322E-03 
  43973.3241     0.33290E-03 
  44005.5862     0.33257E-03 
  44037.8484     0.33223E-03 
  44070.1106     0.33189E-03 
  44102.3727     0.33154E-03 
  44134.6349     0.33117E-03 
  44166.8970     0.33080E-03 
  44199.1592     0.33043E-03 
  44231.4214     0.33004E-03 
  44263.6835     0.32965E-03 
  44295.9457     0.32925E-03 
  44328.2078     0.32884E-03 
  44360.4700     0.32842E-03 
  44392.7322     0.32800E-03 
  44424.9943     0.32756E-03 
  44457.2565     0.32712E-03 
  44489.5186     0.32668E-03 
  44521.7808     0.32622E-03 
  44554.0430     0.32576E-03 
  44586.3051     0.32529E-03 
  44618.5673     0.32481E-03 
  44650.8294     0.32433E-03 
  44683.0916     0.32383E-03 
  44715.3538     0.32333E-03 
  44747.6159     0.32283E-03 
  44779.8781     0.32231E-03 
  44812.1402     0.32179E-03 
  44844.4024     0.32127E-03 
  44876.6646     0.32073E-03 
  44908.9267     0.32019E-03 
  44941.1889     0.31964E-03 
  44973.4510     0.31908E-03 
  45005.7132     0.31852E-03 
  45037.9754     0.31795E-03 
  45070.2375     0.31738E-03 
  45102.4997     0.31679E-03 
  45134.7618     0.31620E-03 
  45167.0240     0.31561E-03 
  45199.2862     0.31501E-03 
  45231.5483     0.31440E-03 
  45263.8105     0.31378E-03 
  45296.0726     0.31316E-03 
  45328.3348     0.31253E-03 
  45360.5970     0.31190E-03 
  45392.8591     0.31126E-03 
  45425.1213     0.31061E-03 
  45457.3834     0.30996E-03 
  45489.6456     0.30930E-03 
  45521.9078     0.30863E-03 
  45554.1699     0.30796E-03 
  45586.4321     0.30729E-03 
  45618.6942     0.30661E-03 
  45650.9564     0.30592E-03 
  45683.2186     0.30522E-03 
  45715.4807     0.30453E-03 
  45747.7429     0.30382E-03 
  45780.0050     0.30311E-03 
  45812.2672     0.30239E-03 
  45844.5294     0.30167E-03 
  45876.7915     0.30095E-03 
  45909.0537     0.30022E-03 
  45941.3158     0.29948E-03 
  45973.5780     0.29874E-03 
  46005.8402     0.29799E-03 
  46038.1023     0.29724E-03 
  46070.3645     0.29648E-03 
  46102.6266     0.29572E-03 
  46134.8888     0.29495E-03 
  46167.1510     0.29418E-03 
  46199.4131     0.29340E-03 
  46231.6753     0.29262E-03 
  46263.9374     0.29183E-03 
  46296.1996     0.29104E-03 
  46328.4618     0.29025E-03 
  46360.7239     0.28945E-03 
  46392.9861     0.28864E-03 
  46425.2482     0.28784E-03 
  46457.5104     0.28702E-03 
  46489.7726     0.28621E-03 
  46522.0347     0.28538E-03 
  46554.2969     0.28456E-03 
  46586.5590     0.28373E-03 
  46618.8212     0.28290E-03 
  46651.0834     0.28206E-03 
  46683.3455     0.28122E-03 
  46715.6077     0.28037E-03 
  46747.8698     0.27952E-03 
  46780.1320     0.27867E-03 
  46812.3942     0.27781E-03 
  46844.6563     0.27695E-03 
  46876.9185     0.27609E-03 
  46909.1806     0.27522E-03 
  46941.4428     0.27435E-03 
  46973.7050     0.27348E-03 
  47005.9671     0.27260E-03 
  47038.2293     0.27172E-03 
  47070.4914     0.27084E-03 
  47102.7536     0.26995E-03 
  47135.0158     0.26906E-03 
  47167.2779     0.26817E-03 
  47199.5401     0.26727E-03 
  47231.8022     0.26637E-03 
  47264.0644     0.26547E-03 
  47296.3266     0.26457E-03 
  47328.5887     0.26366E-03 
  47360.8509     0.26275E-03 
  47393.1130     0.26184E-03 
  47425.3752     0.26092E-03 
  47457.6374     0.26001E-03 
  47489.8995     0.25909E-03 
  47522.1617     0.25816E-03 
  47554.4238     0.25724E-03 
  47586.6860     0.25631E-03 
  47618.9482     0.25538E-03 
  47651.2103     0.25445E-03 
  47683.4725     0.25352E-03 
  47715.7346     0.25258E-03 
  47747.9968     0.25164E-03 
  47780.2590     0.25070E-03 
  47812.5211     0.24976E-03 
  47844.7833     0.24882E-03 
  47877.0454     0.24787E-03 
  47909.3076     0.24692E-03 
  47941.5698     0.24597E-03 
  47973.8319     0.24502E-03 
  48006.0941     0.24407E-03 
  48038.3562     0.24312E-03 
  48070.6184     0.24216E-03 
  48102.8806     0.24121E-03 
  48135.1427     0.24025E-03 
  48167.4049     0.23929E-03 
  48199.6670     0.23833E-03 
  48231.9292     0.23737E-03 
  48264.1914     0.23640E-03 
  48296.4535     0.23544E-03 
  48328.7157     0.23447E-03 
  48360.9778     0.23351E-03 
  48393.2400     0.23254E-03 
  48425.5022     0.23157E-03 
  48457.7643     0.23060E-03 
  48490.0265     0.22963E-03 
  48522.2886     0.22866E-03 
  48554.5508     0.22769E-03 
  48586.8130     0.22672E-03 
  48619.0751     0.22574E-03 
  48651.3373     0.22477E-03 
  48683.5994     0.22380E-03 
  48715.8616     0.22282E-03 
  48748.1238     0.22185E-03 
  48780.3859     0.22087E-03 
  48812.6481     0.21990E-03 
  48844.9102     0.21892E-03 
  48877.1724     0.21794E-03 
  48909.4346     0.21697E-03 
  48941.6967     0.21599E-03 
  48973.9589     0.21501E-03 
  49006.2210     0.21404E-03 
  49038.4832     0.21306E-03 
  49070.7454     0.21208E-03 
  49103.0075     0.21110E-03 
  49135.2697     0.21013E-03 
  49167.5318     0.20915E-03 
  49199.7940     0.20817E-03 
  49232.0562     0.20720E-03 
  49264.3183     0.20622E-03 
  49296.5805     0.20525E-03 
  49328.8426     0.20427E-03 
  49361.1048     0.20329E-03 
  49393.3670     0.20232E-03 
  49425.6291     0.20135E-03 
  49457.8913     0.20037E-03 
  49490.1534     0.19940E-03 
  49522.4156     0.19843E-03 
  49554.6778     0.19745E-03 
  49586.9399     0.19648E-03 
  49619.2021     0.19551E-03 
  49651.4642     0.19454E-03 
  49683.7264     0.19357E-03 
  49715.9886     0.19261E-03 
  49748.2507     0.19164E-03 
  49780.5129     0.19067E-03 
  49812.7750     0.18971E-03 
  49845.0372     0.18874E-03 
  49877.2994     0.18778E-03 
  49909.5615     0.18681E-03 
  49941.8237     0.18585E-03 
  49974.0858     0.18489E-03 
  50006.3480     0.18393E-03 
  50038.6102     0.18297E-03 
  50070.8723     0.18202E-03 
  50103.1345     0.18106E-03 
  50135.3966     0.18011E-03 
  50167.6588     0.17915E-03 
  50199.9210     0.17820E-03 
  50232.1831     0.17725E-03 
  50264.4453     0.17630E-03 
  50296.7074     0.17536E-03 
  50328.9696     0.17441E-03 
  50361.2318     0.17347E-03 
  50393.4939     0.17252E-03 
  50425.7561     0.17158E-03 
  50458.0182     0.17064E-03 
  50490.2804     0.16970E-03 
  50522.5426     0.16877E-03 
  50554.8047     0.16783E-03 
  50587.0669     0.16690E-03 
  50619.3290     0.16597E-03 
  50651.5912     0.16504E-03 
  50683.8534     0.16411E-03 
  50716.1155     0.16318E-03 
  50748.3777     0.16226E-03 
  50780.6398     0.16134E-03 
  50812.9020     0.16041E-03 
  50845.1642     0.15950E-03 
  50877.4263     0.15858E-03 
  50909.6885     0.15767E-03 
  50941.9506     0.15675E-03 
  50974.2128     0.15584E-03 
  51006.4750     0.15493E-03 
  51038.7371     0.15403E-03 
  51070.9993     0.15312E-03 
  51103.2614     0.15222E-03 
  51135.5236     0.15132E-03 
  51167.7858     0.15042E-03 
  51200.0479     0.14953E-03 
  51232.3101     0.14863E-03 
  51264.5722     0.14774E-03 
  51296.8344     0.14685E-03 
  51329.0966     0.14597E-03 
  51361.3587     0.14508E-03 
  51393.6209     0.14420E-03 
  51425.8830     0.14332E-03 
  51458.1452     0.14244E-03 
  51490.4074     0.14157E-03 
  51522.6695     0.14069E-03 
  51554.9317     0.13982E-03 
  51587.1938     0.13896E-03 
  51619.4560     0.13809E-03 
  51651.7182     0.13723E-03 
  51683.9803     0.13637E-03 
  51716.2425     0.13551E-03 
  51748.5046     0.13465E-03 
  51780.7668     0.13380E-03 
  51813.0290     0.13295E-03 
  51845.2911     0.13210E-03 
  51877.5533     0.13126E-03 
  51909.8154     0.13041E-03 
  51942.0776     0.12958E-03 
  51974.3398     0.12874E-03 
  52006.6019     0.12790E-03 
  52038.8641     0.12707E-03 
  52071.1262     0.12624E-03 
  52103.3884     0.12542E-03 
  52135.6506     0.12459E-03 
  52167.9127     0.12377E-03 
  52200.1749     0.12295E-03 
  52232.4370     0.12214E-03 
  52264.6992     0.12132E-03 
  52296.9614     0.12051E-03 
  52329.2235     0.11971E-03 
  52361.4857     0.11890E-03 
  52393.7478     0.11810E-03 
  52426.0100     0.11730E-03 
  52458.2722     0.11650E-03 
  52490.5343     0.11571E-03 
  52522.7965     0.11492E-03 
  52555.0586     0.11413E-03 
  52587.3208     0.11335E-03 
  52619.5830     0.11257E-03 
  52651.8451     0.11179E-03 
  52684.1073     0.11101E-03 
  52716.3694     0.11024E-03 
  52748.6316     0.10947E-03 
  52780.8938     0.10870E-03 
  52813.1559     0.10794E-03 
  52845.4181     0.10718E-03 
  52877.6802     0.10642E-03 
  52909.9424     0.10566E-03 
  52942.2046     0.10491E-03 
  52974.4667     0.10416E-03 
  53006.7289     0.10341E-03 
  53038.9910     0.10267E-03 
  53071.2532     0.10193E-03 
  53103.5154     0.10119E-03 
  53135.7775     0.10046E-03 
  53168.0397     0.99726E-04 
  53200.3018     0.98997E-04 
  53232.5640     0.98271E-04 
  53264.8262     0.97549E-04 
  53297.0883     0.96829E-04 
  53329.3505     0.96113E-04 
  53361.6126     0.95399E-04 
  53393.8748     0.94689E-04 
  53426.1370     0.93982E-04 
  53458.3991     0.93277E-04 
  53490.6613     0.92576E-04 
  53522.9234     0.91878E-04 
  53555.1856     0.91182E-04 
  53587.4478     0.90490E-04 
  53619.7099     0.89801E-04 
  53651.9721     0.89115E-04 
  53684.2342     0.88432E-04 
  53716.4964     0.87752E-04 
  53748.7586     0.87075E-04 
  53781.0207     0.86402E-04 
  53813.2829     0.85731E-04 
  53845.5450     0.85063E-04 
  53877.8072     0.84399E-04 
  53910.0694     0.83737E-04 
  53942.3315     0.83079E-04 
  53974.5937     0.82423E-04 
  54006.8558     0.81771E-04 
  54039.1180     0.81122E-04 
  54071.3802     0.80476E-04 
  54103.6423     0.79833E-04 
  54135.9045     0.79193E-04 
  54168.1666     0.78556E-04 
  54200.4288     0.77922E-04 
  54232.6910     0.77291E-04 
  54264.9531     0.76663E-04 
  54297.2153     0.76038E-04 
  54329.4774     0.75417E-04 
  54361.7396     0.74798E-04 
  54394.0018     0.74183E-04 
  54426.2639     0.73570E-04 
  54458.5261     0.72961E-04 
  54490.7882     0.72355E-04 
  54523.0504     0.71751E-04 
  54555.3126     0.71151E-04 
  54587.5747     0.70554E-04 
  54619.8369     0.69960E-04 
  54652.0990     0.69368E-04 
  54684.3612     0.68780E-04 
  54716.6234     0.68195E-04 
  54748.8855     0.67613E-04 
  54781.1477     0.67034E-04 
  54813.4098     0.66458E-04 
  54845.6720     0.65885E-04 
  54877.9342     0.65315E-04 
  54910.1963     0.64748E-04 
  54942.4585     0.64184E-04 
  54974.7206     0.63623E-04 
  55006.9828     0.63065E-04 
  55039.2450     0.62511E-04 
  55071.5071     0.61959E-04 
  55103.7693     0.61410E-04 
  55136.0314     0.60864E-04 
  55168.2936     0.60320E-04 
  55200.5558     0.59780E-04 
  55232.8179     0.59243E-04 
  55265.0801     0.58709E-04 
  55297.3422     0.58178E-04 
  55329.6044     0.57650E-04 
  55361.8666     0.57124E-04 
  55394.1287     0.56602E-04 
  55426.3909     0.56082E-04 
  55458.6530     0.55566E-04 
  55490.9152     0.55052E-04 
  55523.1774     0.54541E-04 
  55555.4395     0.54034E-04 
  55587.7017     0.53529E-04 
  55619.9638     0.53027E-04 
  55652.2260     0.52527E-04 
  55684.4882     0.52031E-04 
  55716.7503     0.51538E-04 
  55749.0125     0.51047E-04 
  55781.2746     0.50560E-04 
  55813.5368     0.50075E-04 
  55845.7990     0.49593E-04 
  55878.0611     0.49114E-04 
  55910.3233     0.48637E-04 
  55942.5854     0.48164E-04 
  55974.8476     0.47693E-04 
  56007.1098     0.47225E-04 
  56039.3719     0.46760E-04 
  56071.6341     0.46298E-04 
  56103.8962     0.45838E-04 
  56136.1584     0.45382E-04 
  56168.4206     0.44928E-04 
  56200.6827     0.44476E-04 
  56232.9449     0.44028E-04 
  56265.2070     0.43582E-04 
  56297.4692     0.43139E-04 
  56329.7314     0.42699E-04 
  56361.9935     0.42262E-04 
  56394.2557     0.41827E-04 
  56426.5178     0.41395E-04 
  56458.7800     0.40966E-04 
  56491.0422     0.40539E-04 
  56523.3043     0.40115E-04 
  56555.5665     0.39694E-04 
  56587.8286     0.39275E-04 
  56620.0908     0.38859E-04 
  56652.3530     0.38446E-04 
  56684.6151     0.38035E-04 
  56716.8773     0.37627E-04 
  56749.1394     0.37222E-04 
  56781.4016     0.36819E-04 
  56813.6638     0.36419E-04 
  56845.9259     0.36021E-04 
  56878.1881     0.35626E-04 
  56910.4502     0.35234E-04 
  56942.7124     0.34844E-04 
  56974.9746     0.34457E-04 
  57007.2367     0.34072E-04 
  57039.4989     0.33690E-04 
  57071.7610     0.33311E-04 
  57104.0232     0.32934E-04 
  57136.2854     0.32559E-04 
  57168.5475     0.32187E-04 
  57200.8097     0.31818E-04 
  57233.0718     0.31451E-04 
  57265.3340     0.31086E-04 
  57297.5962     0.30724E-04 
  57329.8583     0.30365E-04 
  57362.1205     0.30008E-04 
  57394.3826     0.29653E-04 
  57426.6448     0.29301E-04 
  57458.9070     0.28952E-04 
  57491.1691     0.28605E-04 
  57523.4313     0.28260E-04 
  57555.6934     0.27918E-04 
  57587.9556     0.27578E-04 
  57620.2178     0.27240E-04 
  57652.4799     0.26905E-04 
  57684.7421     0.26572E-04 
  57717.0042     0.26242E-04 
  57749.2664     0.25914E-04 
  57781.5286     0.25588E-04 
  57813.7907     0.25265E-04 
  57846.0529     0.24944E-04 
  57878.3150     0.24626E-04 
  57910.5772     0.24310E-04 
  57942.8394     0.23996E-04 
  57975.1015     0.23684E-04 
  58007.3637     0.23375E-04 
  58039.6258     0.23068E-04 
  58071.8880     0.22763E-04 
  58104.1502     0.22461E-04 
  58136.4123     0.22161E-04 
  58168.6745     0.21863E-04 
  58200.9366     0.21568E-04 
  58233.1988     0.21274E-04 
  58265.4610     0.20983E-04 
  58297.7231     0.20695E-04 
  58329.9853     0.20408E-04 
  58362.2474     0.20124E-04 
  58394.5096     0.19842E-04 
  58426.7718     0.19562E-04 
  58459.0339     0.19284E-04 
  58491.2961     0.19009E-04 
  58523.5582     0.18736E-04 
  58555.8204     0.18464E-04 
  58588.0826     0.18196E-04 
  58620.3447     0.17929E-04 
  58652.6069     0.17664E-04 
  58684.8690     0.17402E-04 
  58717.1312     0.17142E-04 
  58749.3934     0.16884E-04 
  58781.6555     0.16628E-04 
  58813.9177     0.16374E-04 
  58846.1798     0.16122E-04 
  58878.4420     0.15873E-04 
  58910.7042     0.15626E-04 
  58942.9663     0.15380E-04 
  58975.2285     0.15137E-04 
  59007.4906     0.14896E-04 
  59039.7528     0.14657E-04 
  59072.0150     0.14420E-04 
  59104.2771     0.14185E-04 
  59136.5393     0.13953E-04 
  59168.8014     0.13722E-04 
  59201.0636     0.13494E-04 
  59233.3258     0.13267E-04 
  59265.5879     0.13043E-04 
  59297.8501     0.12820E-04 
  59330.1122     0.12600E-04 
  59362.3744     0.12382E-04 
  59394.6366     0.12166E-04 
  59426.8987     0.11951E-04 
  59459.1609     0.11739E-04 
  59491.4230     0.11529E-04 
  59523.6852     0.11321E-04 
  59555.9474     0.11115E-04 
  59588.2095     0.10911E-04 
  59620.4717     0.10709E-04 
  59652.7338     0.10509E-04 
  59684.9960     0.10311E-04 
  59717.2582     0.10115E-04 
  59749.5203     0.99214E-05 
  59781.7825     0.97295E-05 
  59814.0446     0.95396E-05 
  59846.3068     0.93517E-05 
  59878.5690     0.91658E-05 
  59910.8311     0.89819E-05 
  59943.0933     0.88001E-05 
  59975.3554     0.86202E-05 
  60007.6176     0.84423E-05 
  60039.8798     0.82664E-05 
  60072.1419     0.80925E-05 
  60104.4041     0.79206E-05 
  60136.6662     0.77507E-05 
  60168.9284     0.75828E-05 
  60201.1906     0.74169E-05 
  60233.4527     0.72529E-05 
  60265.7149     0.70910E-05 
  60297.9770     0.69311E-05 
  60330.2392     0.67732E-05 
  60362.5014     0.66172E-05 
  60394.7635     0.64633E-05 
  60427.0257     0.63114E-05 
  60459.2878     0.61615E-05 
  60491.5500     0.60135E-05 
  60523.8122     0.58676E-05 
  60556.0743     0.57237E-05 
  60588.3365     0.55818E-05 
  60620.5986     0.54420E-05 
  60652.8608     0.53041E-05 
  60685.1230     0.51683E-05 
  60717.3851     0.50345E-05 
  60749.6473     0.49027E-05 
  60781.9094     0.47730E-05 
  60814.1716     0.46453E-05 
  60846.4338     0.45197E-05 
  60878.6959     0.43961E-05 
  60910.9581     0.42746E-05 
  60943.2202     0.41551E-05 
  60975.4824     0.40377E-05 
  61007.7446     0.39224E-05 
  61040.0067     0.38091E-05 
  61072.2689     0.36980E-05 
  61104.5310     0.35889E-05 
  61136.7932     0.34820E-05 
  61169.0554     0.33771E-05 
  61201.3175     0.32744E-05 
  61233.5797     0.31738E-05 
  61265.8418     0.30754E-05 
  61298.1040     0.29791E-05 
  61330.3662     0.28850E-05 
  61362.6283     0.27930E-05 
  61394.8905     0.27032E-05 
  61427.1526     0.26157E-05 
  61459.4148     0.25303E-05 
  61491.6770     0.24471E-05 
  61523.9391     0.23662E-05 
  61556.2013     0.22875E-05 
  61588.4634     0.22111E-05 
  61620.7256     0.21369E-05 
  61652.9878     0.20650E-05 
  61685.2499     0.19954E-05 
  61717.5121     0.19281E-05 
  61749.7742     0.18632E-05 
  61782.0364     0.18006E-05 
  61814.2986     0.17404E-05 
  61846.5607     0.16825E-05 
  61878.8229     0.16270E-05 
  61911.0850     0.15740E-05 
  61943.3472     0.15234E-05 
  61975.6094     0.14752E-05 
  62007.8715     0.14295E-05 
  62040.1337     0.13863E-05 
  62072.3958     0.13456E-05 
  62104.6580     0.13074E-05 
  62136.9202     0.12718E-05 
  62169.1823     0.12388E-05 
  62201.4445     0.12084E-05 
  62233.7066     0.11806E-05 
  62265.9688     0.11554E-05 
  62298.2310     0.11330E-05 
  62330.4931     0.11132E-05 
  62362.7553     0.10961E-05 
  62395.0174     0.10818E-05 
  62427.2796     0.10703E-05 
  62459.5418     0.10616E-05 
  62491.8039     0.10557E-05 
  62524.0661     0.10527E-05 
  62556.3282     0.10526E-05 
  62588.5904     0.10554E-05 
  62620.8526     0.10612E-05 
  62653.1147     0.10700E-05 
  62685.3769     0.10818E-05 
  62717.6390     0.10966E-05 
  62749.9012     0.11146E-05 
  62782.1634     0.11356E-05 
  62814.4255     0.11599E-05 
  62846.6877     0.11873E-05 
  62878.9498     0.12180E-05 
  62911.2120     0.12519E-05 
  62943.4742     0.12892E-05 
  62975.7363     0.13299E-05 
  63007.9985     0.13739E-05 
  63040.2606     0.14214E-05 
  63072.5228     0.14723E-05 
  63104.7850     0.15268E-05 
  63137.0471     0.15849E-05 
  63169.3093     0.16466E-05 
  63201.5714     0.17120E-05 
  63233.8336     0.17811E-05 
  63266.0958     0.18539E-05 
  63298.3579     0.19306E-05 
  63330.6201     0.20111E-05 
  63362.8822     0.20955E-05 
  63395.1444     0.21839E-05 
  63427.4066     0.22764E-05 
  63459.6687     0.23729E-05 
  63491.9309     0.24736E-05 
  63524.1930     0.25784E-05 
  63556.4552     0.26875E-05 
  63588.7174     0.28010E-05 
  63620.9795     0.29188E-05 
  63653.2417     0.30410E-05 
  63685.5038     0.31677E-05 
  63717.7660     0.32990E-05 
  63750.0282     0.34350E-05 
  63782.2903     0.35756E-05 
  63814.5525     0.37210E-05 
  63846.8146     0.38712E-05 
  63879.0768     0.40263E-05 
  63911.3390     0.41864E-05 
  63943.6011     0.43516E-05 
  63975.8633     0.45219E-05 
  64008.1254     0.46973E-05 
  64040.3876     0.48781E-05 
  64072.6498     0.50642E-05 
  64104.9119     0.52558E-05 
  64137.1741     0.54529E-05 
  64169.4362     0.56556E-05 
  64201.6984     0.58639E-05 
  64233.9606     0.60781E-05 
  64266.2227     0.62981E-05 
  64298.4849     0.65241E-05 
  64330.7470     0.67561E-05 
  64363.0092     0.69942E-05 
  64395.2714     0.72386E-05 
  64427.5335     0.74893E-05 
  64459.7957     0.77465E-05 
  64492.0578     0.80101E-05 
  64524.3200     0.82804E-05 
  64556.5822     0.85574E-05 
  64588.8443     0.88412E-05 
  64621.1065     0.91320E-05 
  64653.3686     0.94298E-05 
  64685.6308     0.97348E-05 
  64717.8930     0.10047E-04 
  64750.1551     0.10367E-04 
  64782.4173     0.10694E-04 
  64814.6794     0.11029E-04 
  64846.9416     0.11371E-04 
  64879.2038     0.11721E-04 
  64911.4659     0.12080E-04 
  64943.7281     0.12446E-04 
  64975.9902     0.12821E-04 
  65008.2524     0.13203E-04 
  65040.5146     0.13595E-04 
  65072.7767     0.13995E-04 
  65105.0389     0.14404E-04 
  65137.3010     0.14822E-04 
  65169.5632     0.15248E-04 
  65201.8254     0.15684E-04 
  65234.0875     0.16129E-04 
  65266.3497     0.16584E-04 
  65298.6118     0.17048E-04 
  65330.8740     0.17522E-04 
  65363.1362     0.18006E-04 
  65395.3983     0.18500E-04 
  65427.6605     0.19004E-04 
  65459.9226     0.19519E-04 
  65492.1848     0.20044E-04 
  65524.4470     0.20580E-04 
  65556.7091     0.21127E-04 
  65588.9713     0.21684E-04 
  65621.2334     0.22253E-04 
  65653.4956     0.22834E-04 
  65685.7578     0.23425E-04 
  65718.0199     0.24029E-04 
  65750.2821     0.24644E-04 
  65782.5442     0.25272E-04 
  65814.8064     0.25912E-04 
  65847.0686     0.26564E-04 
  65879.3307     0.27229E-04 
  65911.5929     0.27907E-04 
  65943.8550     0.28598E-04 
  65976.1172     0.29302E-04 
  66008.3794     0.30020E-04 
  66040.6415     0.30751E-04 
  66072.9037     0.31496E-04 
  66105.1658     0.32255E-04 
  66137.4280     0.33029E-04 
  66169.6902     0.33817E-04 
  66201.9523     0.34619E-04 
  66234.2145     0.35437E-04 
  66266.4766     0.36269E-04 
  66298.7388     0.37118E-04 
  66331.0010     0.37981E-04 
  66363.2631     0.38861E-04 
  66395.5253     0.39756E-04 
  66427.7874     0.40668E-04 
  66460.0496     0.41597E-04 
  66492.3118     0.42542E-04 
  66524.5739     0.43504E-04 
  66556.8361     0.44484E-04 
  66589.0982     0.45481E-04 
  66621.3604     0.46496E-04 
  66653.6226     0.47529E-04 
  66685.8847     0.48580E-04 
  66718.1469     0.49650E-04 
  66750.4090     0.50738E-04 
  66782.6712     0.51846E-04 
  66814.9334     0.52973E-04 
  66847.1955     0.54120E-04 
  66879.4577     0.55287E-04 
  66911.7198     0.56474E-04 
  66943.9820     0.57681E-04 
  66976.2442     0.58909E-04 
  67008.5063     0.60159E-04 
  67040.7685     0.61429E-04 
  67073.0306     0.62722E-04 
  67105.2928     0.64036E-04 
  67137.5550     0.65372E-04 
  67169.8171     0.66732E-04 
  67202.0793     0.68114E-04 
  67234.3414     0.69519E-04 
  67266.6036     0.70947E-04 
  67298.8658     0.72400E-04 
  67331.1279     0.73877E-04 
  67363.3901     0.75378E-04 
  67395.6522     0.76904E-04 
  67427.9144     0.78455E-04 
  67460.1766     0.80031E-04 
  67492.4387     0.81634E-04 
  67524.7009     0.83262E-04 
  67556.9630     0.84917E-04 
  67589.2252     0.86599E-04 
  67621.4874     0.88308E-04 
  67653.7495     0.90044E-04 
  67686.0117     0.91809E-04 
  67718.2738     0.93601E-04 
  67750.5360     0.95422E-04 
  67782.7982     0.97273E-04 
  67815.0603     0.99152E-04 
  67847.3225     0.10106E-03 
  67879.5846     0.10300E-03 
  67911.8468     0.10497E-03 
  67944.1090     0.10697E-03 
  67976.3711     0.10900E-03 
  68008.6333     0.11107E-03 
  68040.8954     0.11316E-03 
  68073.1576     0.11529E-03 
  68105.4198     0.11745E-03 
  68137.6819     0.11964E-03 
  68169.9441     0.12187E-03 
  68202.2062     0.12413E-03 
  68234.4684     0.12643E-03 
  68266.7306     0.12876E-03 
  68298.9927     0.13112E-03 
  68331.2549     0.13353E-03 
  68363.5170     0.13596E-03 
  68395.7792     0.13844E-03 
  68428.0414     0.14095E-03 
  68460.3035     0.14350E-03 
  68492.5657     0.14608E-03 
  68524.8278     0.14871E-03 
  68557.0900     0.15137E-03 
  68589.3522     0.15407E-03 
  68621.6143     0.15681E-03 
  68653.8765     0.15959E-03 
  68686.1386     0.16241E-03 
  68718.4008     0.16527E-03 
  68750.6630     0.16818E-03 
  68782.9251     0.17112E-03 
  68815.1873     0.17411E-03 
  68847.4494     0.17714E-03 
  68879.7116     0.18021E-03 
  68911.9738     0.18333E-03 
  68944.2359     0.18649E-03 
  68976.4981     0.18969E-03 
  69008.7602     0.19294E-03 
  69041.0224     0.19624E-03 
  69073.2846     0.19958E-03 
  69105.5467     0.20296E-03 
  69137.8089     0.20640E-03 
  69170.0710     0.20988E-03 
  69202.3332     0.21341E-03 
  69234.5954     0.21698E-03 
  69266.8575     0.22061E-03 
  69299.1197     0.22428E-03 
  69331.3818     0.22801E-03 
  69363.6440     0.23178E-03 
  69395.9062     0.23560E-03 
  69428.1683     0.23948E-03 
  69460.4305     0.24341E-03 
  69492.6926     0.24739E-03 
  69524.9548     0.25142E-03 
  69557.2170     0.25550E-03 
  69589.4791     0.25964E-03 
  69621.7413     0.26383E-03 
  69654.0034     0.26808E-03 
  69686.2656     0.27238E-03 
  69718.5278     0.27674E-03 
  69750.7899     0.28115E-03 
  69783.0521     0.28562E-03 
  69815.3142     0.29015E-03 
  69847.5764     0.29473E-03 
  69879.8386     0.29937E-03 
  69912.1007     0.30407E-03 
  69944.3629     0.30883E-03 
  69976.6250     0.31365E-03 
  70008.8872     0.31853E-03 
  70041.1494     0.32346E-03 
  70073.4115     0.32846E-03 
  70105.6737     0.33352E-03 
  70137.9358     0.33865E-03 
  70170.1980     0.34383E-03 
  70202.4602     0.34908E-03 
  70234.7223     0.35439E-03 
  70266.9845     0.35976E-03 
  70299.2466     0.36520E-03 
  70331.5088     0.37071E-03 
  70363.7710     0.37628E-03 
  70396.0331     0.38191E-03 
  70428.2953     0.38761E-03 
  70460.5574     0.39338E-03 
  70492.8196     0.39921E-03 
  70525.0818     0.40512E-03 
  70557.3439     0.41109E-03 
  70589.6061     0.41713E-03 
  70621.8682     0.42323E-03 
  70654.1304     0.42941E-03 
  70686.3926     0.43566E-03 
  70718.6547     0.44198E-03 
  70750.9169     0.44837E-03 
  70783.1790     0.45483E-03 
  70815.4412     0.46136E-03 
  70847.7034     0.46796E-03 
  70879.9655     0.47464E-03 
  70912.2277     0.48139E-03 
  70944.4898     0.48822E-03 
  70976.7520     0.49511E-03 
  71009.0142     0.50209E-03 
  71041.2763     0.50913E-03 
  71073.5385     0.51626E-03 
  71105.8006     0.52346E-03 
  71138.0628     0.53073E-03 
  71170.3250     0.53808E-03 
  71202.5871     0.54551E-03 
  71234.8493     0.55302E-03 
  71267.1114     0.56060E-03 
  71299.3736     0.56827E-03 
  71331.6358     0.57601E-03 
  71363.8979     0.58383E-03 
  71396.1601     0.59173E-03 
  71428.4222     0.59971E-03 
  71460.6844     0.60777E-03 
  71492.9466     0.61591E-03 
  71525.2087     0.62413E-03 
  71557.4709     0.63243E-03 
  71589.7330     0.64082E-03 
  71621.9952     0.64929E-03 
  71654.2574     0.65784E-03 
  71686.5195     0.66647E-03 
  71718.7817     0.67518E-03 
  71751.0438     0.68398E-03 
  71783.3060     0.69286E-03 
  71815.5682     0.70183E-03 
  71847.8303     0.71088E-03 
  71880.0925     0.72002E-03 
  71912.3546     0.72924E-03 
  71944.6168     0.73854E-03 
  71976.8790     0.74793E-03 
  72009.1411     0.75741E-03 
  72041.4033     0.76698E-03 
  72073.6654     0.77663E-03 
  72105.9276     0.78636E-03 
  72138.1898     0.79619E-03 
  72170.4519     0.80610E-03 
  72202.7141     0.81609E-03 
  72234.9762     0.82618E-03 
  72267.2384     0.83635E-03 
  72299.5006     0.84661E-03 
  72331.7627     0.85696E-03 
  72364.0249     0.86740E-03 
  72396.2870     0.87793E-03 
  72428.5492     0.88854E-03 
  72460.8114     0.89925E-03 
  72493.0735     0.91004E-03 
  72525.3357     0.92093E-03 
  72557.5978     0.93190E-03 
  72589.8600     0.94296E-03 
