  32262.1600     0.23074E+00 
  32294.4222     0.23334E+00 
  32326.6843     0.23596E+00 
  32358.9465     0.23860E+00 
  32391.2086     0.24126E+00 
  32423.4708     0.24393E+00 
  32455.7330     0.24663E+00 
  32487.9951     0.24934E+00 
  32520.2573     0.25207E+00 
  32552.5194     0.25482E+00 
  32584.7816     0.25759E+00 
  32617.0438     0.26037E+00 
  32649.3059     0.26318E+00 
  32681.5681     0.26600E+00 
  32713.8302     0.26885E+00 
  32746.0924     0.27171E+00 
  32778.3546     0.27459E+00 
  32810.6167     0.27748E+00 
  32842.8789     0.28040E+00 
  32875.1410     0.28334E+00 
  32907.4032     0.28629E+00 
  32939.6654     0.28926E+00 
  32971.9275     0.29225E+00 
  33004.1897     0.29526E+00 
  33036.4518     0.29828E+00 
  33068.7140     0.30132E+00 
  33100.9762     0.30439E+00 
  33133.2383     0.30747E+00 
  33165.5005     0.31056E+00 
  33197.7626     0.31368E+00 
  33230.0248     0.31681E+00 
  33262.2870     0.31996E+00 
  33294.5491     0.32313E+00 
  33326.8113     0.32631E+00 
  33359.0734     0.32952E+00 
  33391.3356     0.33274E+00 
  33423.5978     0.33597E+00 
  33455.8599     0.33923E+00 
  33488.1221     0.34250E+00 
  33520.3842     0.34579E+00 
  33552.6464     0.34909E+00 
  33584.9086     0.35241E+00 
  33617.1707     0.35575E+00 
  33649.4329     0.35910E+00 
  33681.6950     0.36248E+00 
  33713.9572     0.36586E+00 
  33746.2194     0.36927E+00 
  33778.4815     0.37269E+00 
  33810.7437     0.37612E+00 
  33843.0058     0.37958E+00 
  33875.2680     0.38304E+00 
  33907.5302     0.38653E+00 
  33939.7923     0.39003E+00 
  33972.0545     0.39354E+00 
  34004.3166     0.39707E+00 
  34036.5788     0.40061E+00 
  34068.8410     0.40417E+00 
  34101.1031     0.40775E+00 
  34133.3653     0.41134E+00 
  34165.6274     0.41494E+00 
  34197.8896     0.41856E+00 
  34230.1518     0.42219E+00 
  34262.4139     0.42584E+00 
  34294.6761     0.42950E+00 
  34326.9382     0.43318E+00 
  34359.2004     0.43687E+00 
  34391.4626     0.44057E+00 
  34423.7247     0.44428E+00 
  34455.9869     0.44801E+00 
  34488.2490     0.45176E+00 
  34520.5112     0.45551E+00 
  34552.7734     0.45928E+00 
  34585.0355     0.46306E+00 
  34617.2977     0.46685E+00 
  34649.5598     0.47066E+00 
  34681.8220     0.47447E+00 
  34714.0842     0.47830E+00 
  34746.3463     0.48215E+00 
  34778.6085     0.48600E+00 
  34810.8706     0.48986E+00 
  34843.1328     0.49374E+00 
  34875.3950     0.49762E+00 
  34907.6571     0.50152E+00 
  34939.9193     0.50543E+00 
  34972.1814     0.50935E+00 
  35004.4436     0.51327E+00 
  35036.7058     0.51721E+00 
  35068.9679     0.52116E+00 
  35101.2301     0.52512E+00 
  35133.4922     0.52909E+00 
  35165.7544     0.53306E+00 
  35198.0166     0.53705E+00 
  35230.2787     0.54104E+00 
  35262.5409     0.54505E+00 
  35294.8030     0.54906E+00 
  35327.0652     0.55308E+00 
  35359.3274     0.55711E+00 
  35391.5895     0.56114E+00 
  35423.8517     0.56519E+00 
  35456.1138     0.56924E+00 
  35488.3760     0.57329E+00 
  35520.6382     0.57736E+00 
  35552.9003     0.58143E+00 
  35585.1625     0.58551E+00 
  35617.4246     0.58959E+00 
  35649.6868     0.59368E+00 
  35681.9490     0.59778E+00 
  35714.2111     0.60188E+00 
  35746.4733     0.60598E+00 
  35778.7354     0.61010E+00 
  35810.9976     0.61421E+00 
  35843.2598     0.61833E+00 
  35875.5219     0.62246E+00 
  35907.7841     0.62659E+00 
  35940.0462     0.63072E+00 
  35972.3084     0.63486E+00 
  36004.5706     0.63900E+00 
  36036.8327     0.64314E+00 
  36069.0949     0.64729E+00 
  36101.3570     0.65144E+00 
  36133.6192     0.65559E+00 
  36165.8814     0.65974E+00 
  36198.1435     0.66390E+00 
  36230.4057     0.66805E+00 
  36262.6678     0.67221E+00 
  36294.9300     0.67637E+00 
  36327.1922     0.68053E+00 
  36359.4543     0.68469E+00 
  36391.7165     0.68886E+00 
  36423.9786     0.69302E+00 
  36456.2408     0.69718E+00 
  36488.5030     0.70134E+00 
  36520.7651     0.70550E+00 
  36553.0273     0.70966E+00 
  36585.2894     0.71382E+00 
  36617.5516     0.71797E+00 
  36649.8138     0.72213E+00 
  36682.0759     0.72628E+00 
  36714.3381     0.73043E+00 
  36746.6002     0.73458E+00 
  36778.8624     0.73873E+00 
  36811.1246     0.74287E+00 
  36843.3867     0.74701E+00 
  36875.6489     0.75115E+00 
  36907.9110     0.75528E+00 
  36940.1732     0.75941E+00 
  36972.4354     0.76353E+00 
  37004.6975     0.76765E+00 
  37036.9597     0.77176E+00 
  37069.2218     0.77587E+00 
  37101.4840     0.77997E+00 
  37133.7462     0.78407E+00 
  37166.0083     0.78816E+00 
  37198.2705     0.79225E+00 
  37230.5326     0.79633E+00 
  37262.7948     0.80040E+00 
  37295.0570     0.80447E+00 
  37327.3191     0.80852E+00 
  37359.5813     0.81257E+00 
  37391.8434     0.81662E+00 
  37424.1056     0.82065E+00 
  37456.3678     0.82468E+00 
  37488.6299     0.82870E+00 
  37520.8921     0.83270E+00 
  37553.1542     0.83670E+00 
  37585.4164     0.84069E+00 
  37617.6786     0.84467E+00 
  37649.9407     0.84864E+00 
  37682.2029     0.85260E+00 
  37714.4650     0.85655E+00 
  37746.7272     0.86049E+00 
  37778.9894     0.86442E+00 
  37811.2515     0.86834E+00 
  37843.5137     0.87224E+00 
  37875.7758     0.87614E+00 
  37908.0380     0.88002E+00 
  37940.3002     0.88388E+00 
  37972.5623     0.88774E+00 
  38004.8245     0.89158E+00 
  38037.0866     0.89541E+00 
  38069.3488     0.89923E+00 
  38101.6110     0.90304E+00 
  38133.8731     0.90682E+00 
  38166.1353     0.91060E+00 
  38198.3974     0.91436E+00 
  38230.6596     0.91811E+00 
  38262.9218     0.92184E+00 
  38295.1839     0.92555E+00 
  38327.4461     0.92926E+00 
  38359.7082     0.93294E+00 
  38391.9704     0.93661E+00 
  38424.2326     0.94026E+00 
  38456.4947     0.94390E+00 
  38488.7569     0.94752E+00 
  38521.0190     0.95112E+00 
  38553.2812     0.95471E+00 
  38585.5434     0.95828E+00 
  38617.8055     0.96183E+00 
  38650.0677     0.96536E+00 
  38682.3298     0.96888E+00 
  38714.5920     0.97238E+00 
  38746.8542     0.97586E+00 
  38779.1163     0.97932E+00 
  38811.3785     0.98276E+00 
  38843.6406     0.98618E+00 
  38875.9028     0.98958E+00 
  38908.1650     0.99296E+00 
  38940.4271     0.99633E+00 
  38972.6893     0.99967E+00 
  39004.9514     0.10030E+01 
  39037.2136     0.10063E+01 
  39069.4758     0.10096E+01 
  39101.7379     0.10128E+01 
  39134.0001     0.10161E+01 
  39166.2622     0.10193E+01 
  39198.5244     0.10225E+01 
  39230.7866     0.10257E+01 
  39263.0487     0.10288E+01 
  39295.3109     0.10319E+01 
  39327.5730     0.10350E+01 
  39359.8352     0.10381E+01 
  39392.0974     0.10412E+01 
  39424.3595     0.10442E+01 
  39456.6217     0.10472E+01 
  39488.8838     0.10502E+01 
  39521.1460     0.10532E+01 
  39553.4082     0.10562E+01 
  39585.6703     0.10591E+01 
  39617.9325     0.10620E+01 
  39650.1946     0.10648E+01 
  39682.4568     0.10677E+01 
  39714.7190     0.10705E+01 
  39746.9811     0.10733E+01 
  39779.2433     0.10761E+01 
  39811.5054     0.10788E+01 
  39843.7676     0.10815E+01 
  39876.0298     0.10842E+01 
  39908.2919     0.10869E+01 
  39940.5541     0.10896E+01 
  39972.8162     0.10922E+01 
  40005.0784     0.10948E+01 
  40037.3406     0.10973E+01 
  40069.6027     0.10999E+01 
  40101.8649     0.11024E+01 
  40134.1270     0.11049E+01 
  40166.3892     0.11073E+01 
  40198.6514     0.11098E+01 
  40230.9135     0.11122E+01 
  40263.1757     0.11145E+01 
  40295.4378     0.11169E+01 
  40327.7000     0.11192E+01 
  40359.9622     0.11215E+01 
  40392.2243     0.11238E+01 
  40424.4865     0.11260E+01 
  40456.7486     0.11282E+01 
  40489.0108     0.11304E+01 
  40521.2730     0.11326E+01 
  40553.5351     0.11347E+01 
  40585.7973     0.11368E+01 
  40618.0594     0.11388E+01 
  40650.3216     0.11409E+01 
  40682.5838     0.11429E+01 
  40714.8459     0.11449E+01 
  40747.1081     0.11468E+01 
  40779.3702     0.11487E+01 
  40811.6324     0.11506E+01 
  40843.8946     0.11525E+01 
  40876.1567     0.11543E+01 
  40908.4189     0.11561E+01 
  40940.6810     0.11579E+01 
  40972.9432     0.11596E+01 
  41005.2054     0.11613E+01 
  41037.4675     0.11630E+01 
  41069.7297     0.11647E+01 
  41101.9918     0.11663E+01 
  41134.2540     0.11679E+01 
  41166.5162     0.11694E+01 
  41198.7783     0.11710E+01 
  41231.0405     0.11725E+01 
  41263.3026     0.11739E+01 
  41295.5648     0.11754E+01 
  41327.8270     0.11768E+01 
  41360.0891     0.11782E+01 
  41392.3513     0.11795E+01 
  41424.6134     0.11808E+01 
  41456.8756     0.11821E+01 
  41489.1378     0.11833E+01 
  41521.3999     0.11846E+01 
  41553.6621     0.11858E+01 
  41585.9242     0.11869E+01 
  41618.1864     0.11880E+01 
  41650.4486     0.11891E+01 
  41682.7107     0.11902E+01 
  41714.9729     0.11912E+01 
  41747.2350     0.11922E+01 
  41779.4972     0.11932E+01 
  41811.7594     0.11942E+01 
  41844.0215     0.11951E+01 
  41876.2837     0.11959E+01 
  41908.5458     0.11968E+01 
  41940.8080     0.11976E+01 
  41973.0702     0.11984E+01 
  42005.3323     0.11991E+01 
  42037.5945     0.11999E+01 
  42069.8566     0.12005E+01 
  42102.1188     0.12012E+01 
  42134.3810     0.12018E+01 
  42166.6431     0.12024E+01 
  42198.9053     0.12030E+01 
  42231.1674     0.12035E+01 
  42263.4296     0.12040E+01 
  42295.6918     0.12045E+01 
  42327.9539     0.12049E+01 
  42360.2161     0.12053E+01 
  42392.4782     0.12057E+01 
  42424.7404     0.12060E+01 
  42457.0026     0.12064E+01 
  42489.2647     0.12066E+01 
  42521.5269     0.12069E+01 
  42553.7890     0.12071E+01 
  42586.0512     0.12073E+01 
  42618.3134     0.12074E+01 
  42650.5755     0.12076E+01 
  42682.8377     0.12077E+01 
  42715.0998     0.12077E+01 
  42747.3620     0.12078E+01 
  42779.6242     0.12078E+01 
  42811.8863     0.12077E+01 
  42844.1485     0.12077E+01 
  42876.4106     0.12076E+01 
  42908.6728     0.12075E+01 
  42940.9350     0.12073E+01 
  42973.1971     0.12071E+01 
  43005.4593     0.12069E+01 
  43037.7214     0.12067E+01 
  43069.9836     0.12064E+01 
  43102.2458     0.12061E+01 
  43134.5079     0.12058E+01 
  43166.7701     0.12054E+01 
  43199.0322     0.12050E+01 
  43231.2944     0.12046E+01 
  43263.5566     0.12041E+01 
  43295.8187     0.12036E+01 
  43328.0809     0.12031E+01 
  43360.3430     0.12026E+01 
  43392.6052     0.12020E+01 
  43424.8674     0.12014E+01 
  43457.1295     0.12008E+01 
  43489.3917     0.12001E+01 
  43521.6538     0.11994E+01 
  43553.9160     0.11987E+01 
  43586.1782     0.11979E+01 
  43618.4403     0.11972E+01 
  43650.7025     0.11964E+01 
  43682.9646     0.11955E+01 
  43715.2268     0.11947E+01 
  43747.4890     0.11938E+01 
  43779.7511     0.11929E+01 
  43812.0133     0.11919E+01 
  43844.2754     0.11909E+01 
  43876.5376     0.11899E+01 
  43908.7998     0.11889E+01 
  43941.0619     0.11878E+01 
  43973.3241     0.11867E+01 
  44005.5862     0.11856E+01 
  44037.8484     0.11845E+01 
  44070.1106     0.11833E+01 
  44102.3727     0.11821E+01 
  44134.6349     0.11809E+01 
  44166.8970     0.11797E+01 
  44199.1592     0.11784E+01 
  44231.4214     0.11771E+01 
  44263.6835     0.11757E+01 
  44295.9457     0.11744E+01 
  44328.2078     0.11730E+01 
  44360.4700     0.11716E+01 
  44392.7322     0.11702E+01 
  44424.9943     0.11687E+01 
  44457.2565     0.11672E+01 
  44489.5186     0.11657E+01 
  44521.7808     0.11642E+01 
  44554.0430     0.11626E+01 
  44586.3051     0.11610E+01 
  44618.5673     0.11594E+01 
  44650.8294     0.11578E+01 
  44683.0916     0.11561E+01 
  44715.3538     0.11544E+01 
  44747.6159     0.11527E+01 
  44779.8781     0.11510E+01 
  44812.1402     0.11492E+01 
  44844.4024     0.11474E+01 
  44876.6646     0.11456E+01 
  44908.9267     0.11438E+01 
  44941.1889     0.11420E+01 
  44973.4510     0.11401E+01 
  45005.7132     0.11382E+01 
  45037.9754     0.11363E+01 
  45070.2375     0.11343E+01 
  45102.4997     0.11324E+01 
  45134.7618     0.11304E+01 
  45167.0240     0.11284E+01 
  45199.2862     0.11263E+01 
  45231.5483     0.11243E+01 
  45263.8105     0.11222E+01 
  45296.0726     0.11201E+01 
  45328.3348     0.11180E+01 
  45360.5970     0.11158E+01 
  45392.8591     0.11137E+01 
  45425.1213     0.11115E+01 
  45457.3834     0.11093E+01 
  45489.6456     0.11071E+01 
  45521.9078     0.11048E+01 
  45554.1699     0.11026E+01 
  45586.4321     0.11003E+01 
  45618.6942     0.10980E+01 
  45650.9564     0.10957E+01 
  45683.2186     0.10933E+01 
  45715.4807     0.10910E+01 
  45747.7429     0.10886E+01 
  45780.0050     0.10862E+01 
  45812.2672     0.10838E+01 
  45844.5294     0.10813E+01 
  45876.7915     0.10789E+01 
  45909.0537     0.10764E+01 
  45941.3158     0.10739E+01 
  45973.5780     0.10714E+01 
  46005.8402     0.10689E+01 
  46038.1023     0.10663E+01 
  46070.3645     0.10638E+01 
  46102.6266     0.10612E+01 
  46134.8888     0.10586E+01 
  46167.1510     0.10560E+01 
  46199.4131     0.10534E+01 
  46231.6753     0.10507E+01 
  46263.9374     0.10481E+01 
  46296.1996     0.10454E+01 
  46328.4618     0.10427E+01 
  46360.7239     0.10400E+01 
  46392.9861     0.10373E+01 
  46425.2482     0.10345E+01 
  46457.5104     0.10318E+01 
  46489.7726     0.10290E+01 
  46522.0347     0.10262E+01 
  46554.2969     0.10234E+01 
  46586.5590     0.10206E+01 
  46618.8212     0.10178E+01 
  46651.0834     0.10150E+01 
  46683.3455     0.10121E+01 
  46715.6077     0.10093E+01 
  46747.8698     0.10064E+01 
  46780.1320     0.10035E+01 
  46812.3942     0.10006E+01 
  46844.6563     0.99766E+00 
  46876.9185     0.99473E+00 
  46909.1806     0.99179E+00 
  46941.4428     0.98883E+00 
  46973.7050     0.98587E+00 
  47005.9671     0.98289E+00 
  47038.2293     0.97990E+00 
  47070.4914     0.97690E+00 
  47102.7536     0.97388E+00 
  47135.0158     0.97086E+00 
  47167.2779     0.96783E+00 
  47199.5401     0.96478E+00 
  47231.8022     0.96172E+00 
  47264.0644     0.95866E+00 
  47296.3266     0.95558E+00 
  47328.5887     0.95249E+00 
  47360.8509     0.94940E+00 
  47393.1130     0.94629E+00 
  47425.3752     0.94318E+00 
  47457.6374     0.94005E+00 
  47489.8995     0.93692E+00 
  47522.1617     0.93378E+00 
  47554.4238     0.93062E+00 
  47586.6860     0.92746E+00 
  47618.9482     0.92430E+00 
  47651.2103     0.92112E+00 
  47683.4725     0.91793E+00 
  47715.7346     0.91474E+00 
  47747.9968     0.91154E+00 
  47780.2590     0.90833E+00 
  47812.5211     0.90512E+00 
  47844.7833     0.90190E+00 
  47877.0454     0.89867E+00 
  47909.3076     0.89543E+00 
  47941.5698     0.89219E+00 
  47973.8319     0.88894E+00 
  48006.0941     0.88568E+00 
  48038.3562     0.88242E+00 
  48070.6184     0.87916E+00 
  48102.8806     0.87588E+00 
  48135.1427     0.87260E+00 
  48167.4049     0.86932E+00 
  48199.6670     0.86603E+00 
  48231.9292     0.86274E+00 
  48264.1914     0.85944E+00 
  48296.4535     0.85613E+00 
  48328.7157     0.85282E+00 
  48360.9778     0.84951E+00 
  48393.2400     0.84619E+00 
  48425.5022     0.84287E+00 
  48457.7643     0.83955E+00 
  48490.0265     0.83622E+00 
  48522.2886     0.83288E+00 
  48554.5508     0.82955E+00 
  48586.8130     0.82621E+00 
  48619.0751     0.82287E+00 
  48651.3373     0.81952E+00 
  48683.5994     0.81617E+00 
  48715.8616     0.81282E+00 
  48748.1238     0.80947E+00 
  48780.3859     0.80611E+00 
  48812.6481     0.80275E+00 
  48844.9102     0.79939E+00 
  48877.1724     0.79603E+00 
  48909.4346     0.79266E+00 
  48941.6967     0.78930E+00 
  48973.9589     0.78593E+00 
  49006.2210     0.78256E+00 
  49038.4832     0.77919E+00 
  49070.7454     0.77582E+00 
  49103.0075     0.77245E+00 
  49135.2697     0.76908E+00 
  49167.5318     0.76571E+00 
  49199.7940     0.76233E+00 
  49232.0562     0.75896E+00 
  49264.3183     0.75559E+00 
  49296.5805     0.75221E+00 
  49328.8426     0.74884E+00 
  49361.1048     0.74546E+00 
  49393.3670     0.74209E+00 
  49425.6291     0.73872E+00 
  49457.8913     0.73535E+00 
  49490.1534     0.73198E+00 
  49522.4156     0.72861E+00 
  49554.6778     0.72524E+00 
  49586.9399     0.72187E+00 
  49619.2021     0.71850E+00 
  49651.4642     0.71514E+00 
  49683.7264     0.71178E+00 
  49715.9886     0.70841E+00 
  49748.2507     0.70505E+00 
  49780.5129     0.70170E+00 
  49812.7750     0.69834E+00 
  49845.0372     0.69499E+00 
  49877.2994     0.69164E+00 
  49909.5615     0.68829E+00 
  49941.8237     0.68494E+00 
  49974.0858     0.68160E+00 
  50006.3480     0.67826E+00 
  50038.6102     0.67492E+00 
  50070.8723     0.67159E+00 
  50103.1345     0.66825E+00 
  50135.3966     0.66493E+00 
  50167.6588     0.66160E+00 
  50199.9210     0.65828E+00 
  50232.1831     0.65496E+00 
  50264.4453     0.65165E+00 
  50296.7074     0.64834E+00 
  50328.9696     0.64503E+00 
  50361.2318     0.64173E+00 
  50393.4939     0.63843E+00 
  50425.7561     0.63514E+00 
  50458.0182     0.63185E+00 
  50490.2804     0.62857E+00 
  50522.5426     0.62529E+00 
  50554.8047     0.62201E+00 
  50587.0669     0.61874E+00 
  50619.3290     0.61548E+00 
  50651.5912     0.61222E+00 
  50683.8534     0.60896E+00 
  50716.1155     0.60571E+00 
  50748.3777     0.60246E+00 
  50780.6398     0.59922E+00 
  50812.9020     0.59599E+00 
  50845.1642     0.59276E+00 
  50877.4263     0.58954E+00 
  50909.6885     0.58632E+00 
  50941.9506     0.58311E+00 
  50974.2128     0.57991E+00 
  51006.4750     0.57671E+00 
  51038.7371     0.57351E+00 
  51070.9993     0.57033E+00 
  51103.2614     0.56714E+00 
  51135.5236     0.56397E+00 
  51167.7858     0.56080E+00 
  51200.0479     0.55764E+00 
  51232.3101     0.55448E+00 
  51264.5722     0.55134E+00 
  51296.8344     0.54819E+00 
  51329.0966     0.54506E+00 
  51361.3587     0.54193E+00 
  51393.6209     0.53881E+00 
  51425.8830     0.53570E+00 
  51458.1452     0.53259E+00 
  51490.4074     0.52949E+00 
  51522.6695     0.52640E+00 
  51554.9317     0.52331E+00 
  51587.1938     0.52024E+00 
  51619.4560     0.51717E+00 
  51651.7182     0.51410E+00 
  51683.9803     0.51105E+00 
  51716.2425     0.50800E+00 
  51748.5046     0.50496E+00 
  51780.7668     0.50193E+00 
  51813.0290     0.49891E+00 
  51845.2911     0.49589E+00 
  51877.5533     0.49288E+00 
  51909.8154     0.48988E+00 
  51942.0776     0.48689E+00 
  51974.3398     0.48391E+00 
  52006.6019     0.48093E+00 
  52038.8641     0.47796E+00 
  52071.1262     0.47500E+00 
  52103.3884     0.47205E+00 
  52135.6506     0.46911E+00 
  52167.9127     0.46618E+00 
  52200.1749     0.46325E+00 
  52232.4370     0.46034E+00 
  52264.6992     0.45743E+00 
  52296.9614     0.45453E+00 
  52329.2235     0.45164E+00 
  52361.4857     0.44876E+00 
  52393.7478     0.44589E+00 
  52426.0100     0.44302E+00 
  52458.2722     0.44017E+00 
  52490.5343     0.43732E+00 
  52522.7965     0.43448E+00 
  52555.0586     0.43166E+00 
  52587.3208     0.42884E+00 
  52619.5830     0.42603E+00 
  52651.8451     0.42323E+00 
  52684.1073     0.42044E+00 
  52716.3694     0.41765E+00 
  52748.6316     0.41488E+00 
  52780.8938     0.41212E+00 
  52813.1559     0.40936E+00 
  52845.4181     0.40662E+00 
  52877.6802     0.40388E+00 
  52909.9424     0.40116E+00 
  52942.2046     0.39844E+00 
  52974.4667     0.39573E+00 
  53006.7289     0.39304E+00 
  53038.9910     0.39035E+00 
  53071.2532     0.38767E+00 
  53103.5154     0.38500E+00 
  53135.7775     0.38234E+00 
  53168.0397     0.37969E+00 
  53200.3018     0.37705E+00 
  53232.5640     0.37443E+00 
  53264.8262     0.37181E+00 
  53297.0883     0.36920E+00 
  53329.3505     0.36659E+00 
  53361.6126     0.36400E+00 
  53393.8748     0.36142E+00 
  53426.1370     0.35885E+00 
  53458.3991     0.35629E+00 
  53490.6613     0.35374E+00 
  53522.9234     0.35120E+00 
  53555.1856     0.34867E+00 
  53587.4478     0.34615E+00 
  53619.7099     0.34364E+00 
  53651.9721     0.34114E+00 
  53684.2342     0.33864E+00 
  53716.4964     0.33616E+00 
  53748.7586     0.33369E+00 
  53781.0207     0.33123E+00 
  53813.2829     0.32878E+00 
  53845.5450     0.32634E+00 
  53877.8072     0.32391E+00 
  53910.0694     0.32149E+00 
  53942.3315     0.31908E+00 
  53974.5937     0.31668E+00 
  54006.8558     0.31429E+00 
  54039.1180     0.31191E+00 
  54071.3802     0.30954E+00 
  54103.6423     0.30718E+00 
  54135.9045     0.30483E+00 
  54168.1666     0.30249E+00 
  54200.4288     0.30016E+00 
  54232.6910     0.29784E+00 
  54264.9531     0.29553E+00 
  54297.2153     0.29323E+00 
  54329.4774     0.29094E+00 
  54361.7396     0.28866E+00 
  54394.0018     0.28639E+00 
  54426.2639     0.28413E+00 
  54458.5261     0.28189E+00 
  54490.7882     0.27965E+00 
  54523.0504     0.27742E+00 
  54555.3126     0.27520E+00 
  54587.5747     0.27300E+00 
  54619.8369     0.27080E+00 
  54652.0990     0.26861E+00 
  54684.3612     0.26644E+00 
  54716.6234     0.26427E+00 
  54748.8855     0.26211E+00 
  54781.1477     0.25997E+00 
  54813.4098     0.25783E+00 
  54845.6720     0.25570E+00 
  54877.9342     0.25359E+00 
  54910.1963     0.25148E+00 
  54942.4585     0.24939E+00 
  54974.7206     0.24730E+00 
  55006.9828     0.24523E+00 
  55039.2450     0.24316E+00 
  55071.5071     0.24111E+00 
  55103.7693     0.23906E+00 
  55136.0314     0.23703E+00 
  55168.2936     0.23500E+00 
  55200.5558     0.23299E+00 
  55232.8179     0.23098E+00 
  55265.0801     0.22899E+00 
  55297.3422     0.22700E+00 
  55329.6044     0.22503E+00 
  55361.8666     0.22306E+00 
  55394.1287     0.22111E+00 
  55426.3909     0.21916E+00 
  55458.6530     0.21723E+00 
  55490.9152     0.21531E+00 
  55523.1774     0.21339E+00 
  55555.4395     0.21149E+00 
  55587.7017     0.20959E+00 
  55619.9638     0.20771E+00 
  55652.2260     0.20583E+00 
  55684.4882     0.20397E+00 
  55716.7503     0.20211E+00 
  55749.0125     0.20027E+00 
  55781.2746     0.19843E+00 
  55813.5368     0.19660E+00 
  55845.7990     0.19479E+00 
  55878.0611     0.19298E+00 
  55910.3233     0.19119E+00 
  55942.5854     0.18940E+00 
  55974.8476     0.18762E+00 
  56007.1098     0.18586E+00 
  56039.3719     0.18410E+00 
  56071.6341     0.18235E+00 
  56103.8962     0.18061E+00 
  56136.1584     0.17888E+00 
  56168.4206     0.17716E+00 
  56200.6827     0.17545E+00 
  56232.9449     0.17376E+00 
  56265.2070     0.17207E+00 
  56297.4692     0.17038E+00 
  56329.7314     0.16871E+00 
  56361.9935     0.16705E+00 
  56394.2557     0.16540E+00 
  56426.5178     0.16376E+00 
  56458.7800     0.16212E+00 
  56491.0422     0.16050E+00 
  56523.3043     0.15889E+00 
  56555.5665     0.15728E+00 
  56587.8286     0.15569E+00 
  56620.0908     0.15410E+00 
  56652.3530     0.15252E+00 
  56684.6151     0.15095E+00 
  56716.8773     0.14940E+00 
  56749.1394     0.14785E+00 
  56781.4016     0.14631E+00 
  56813.6638     0.14478E+00 
  56845.9259     0.14326E+00 
  56878.1881     0.14174E+00 
  56910.4502     0.14024E+00 
  56942.7124     0.13875E+00 
  56974.9746     0.13726E+00 
  57007.2367     0.13579E+00 
  57039.4989     0.13432E+00 
  57071.7610     0.13286E+00 
  57104.0232     0.13141E+00 
  57136.2854     0.12997E+00 
  57168.5475     0.12854E+00 
  57200.8097     0.12712E+00 
  57233.0718     0.12571E+00 
  57265.3340     0.12430E+00 
  57297.5962     0.12291E+00 
  57329.8583     0.12152E+00 
  57362.1205     0.12014E+00 
  57394.3826     0.11878E+00 
  57426.6448     0.11742E+00 
  57458.9070     0.11607E+00 
  57491.1691     0.11472E+00 
  57523.4313     0.11339E+00 
  57555.6934     0.11206E+00 
  57587.9556     0.11075E+00 
  57620.2178     0.10944E+00 
  57652.4799     0.10814E+00 
  57684.7421     0.10685E+00 
  57717.0042     0.10557E+00 
  57749.2664     0.10430E+00 
  57781.5286     0.10303E+00 
  57813.7907     0.10178E+00 
  57846.0529     0.10053E+00 
  57878.3150     0.99290E-01 
  57910.5772     0.98060E-01 
  57942.8394     0.96838E-01 
  57975.1015     0.95624E-01 
  58007.3637     0.94419E-01 
  58039.6258     0.93222E-01 
  58071.8880     0.92033E-01 
  58104.1502     0.90853E-01 
  58136.4123     0.89681E-01 
  58168.6745     0.88518E-01 
  58200.9366     0.87362E-01 
  58233.1988     0.86215E-01 
  58265.4610     0.85076E-01 
  58297.7231     0.83946E-01 
  58329.9853     0.82823E-01 
  58362.2474     0.81709E-01 
  58394.5096     0.80603E-01 
  58426.7718     0.79505E-01 
  58459.0339     0.78415E-01 
  58491.2961     0.77334E-01 
  58523.5582     0.76260E-01 
  58555.8204     0.75195E-01 
  58588.0826     0.74137E-01 
  58620.3447     0.73088E-01 
  58652.6069     0.72046E-01 
  58684.8690     0.71013E-01 
  58717.1312     0.69987E-01 
  58749.3934     0.68970E-01 
  58781.6555     0.67960E-01 
  58813.9177     0.66959E-01 
  58846.1798     0.65965E-01 
  58878.4420     0.64980E-01 
  58910.7042     0.64002E-01 
  58942.9663     0.63032E-01 
  58975.2285     0.62070E-01 
  59007.4906     0.61116E-01 
  59039.7528     0.60169E-01 
  59072.0150     0.59231E-01 
  59104.2771     0.58300E-01 
  59136.5393     0.57377E-01 
  59168.8014     0.56462E-01 
  59201.0636     0.55555E-01 
  59233.3258     0.54655E-01 
  59265.5879     0.53763E-01 
  59297.8501     0.52879E-01 
  59330.1122     0.52003E-01 
  59362.3744     0.51135E-01 
  59394.6366     0.50274E-01 
  59426.8987     0.49421E-01 
  59459.1609     0.48576E-01 
  59491.4230     0.47738E-01 
  59523.6852     0.46908E-01 
  59555.9474     0.46086E-01 
  59588.2095     0.45271E-01 
  59620.4717     0.44465E-01 
  59652.7338     0.43666E-01 
  59684.9960     0.42874E-01 
  59717.2582     0.42090E-01 
  59749.5203     0.41314E-01 
  59781.7825     0.40546E-01 
  59814.0446     0.39785E-01 
  59846.3068     0.39032E-01 
  59878.5690     0.38287E-01 
  59910.8311     0.37550E-01 
  59943.0933     0.36820E-01 
  59975.3554     0.36097E-01 
  60007.6176     0.35383E-01 
  60039.8798     0.34676E-01 
  60072.1419     0.33977E-01 
  60104.4041     0.33286E-01 
  60136.6662     0.32602E-01 
  60168.9284     0.31926E-01 
  60201.1906     0.31258E-01 
  60233.4527     0.30598E-01 
  60265.7149     0.29945E-01 
  60297.9770     0.29300E-01 
  60330.2392     0.28663E-01 
  60362.5014     0.28034E-01 
  60394.7635     0.27412E-01 
  60427.0257     0.26799E-01 
  60459.2878     0.26193E-01 
  60491.5500     0.25595E-01 
  60523.8122     0.25005E-01 
  60556.0743     0.24423E-01 
  60588.3365     0.23848E-01 
  60620.5986     0.23282E-01 
  60652.8608     0.22724E-01 
  60685.1230     0.22174E-01 
  60717.3851     0.21631E-01 
  60749.6473     0.21097E-01 
  60781.9094     0.20571E-01 
  60814.1716     0.20053E-01 
  60846.4338     0.19543E-01 
  60878.6959     0.19041E-01 
  60910.9581     0.18547E-01 
  60943.2202     0.18062E-01 
  60975.4824     0.17585E-01 
  61007.7446     0.17116E-01 
  61040.0067     0.16655E-01 
  61072.2689     0.16203E-01 
  61104.5310     0.15759E-01 
  61136.7932     0.15324E-01 
  61169.0554     0.14897E-01 
  61201.3175     0.14479E-01 
  61233.5797     0.14069E-01 
  61265.8418     0.13668E-01 
  61298.1040     0.13276E-01 
  61330.3662     0.12892E-01 
  61362.6283     0.12517E-01 
  61394.8905     0.12151E-01 
  61427.1526     0.11794E-01 
  61459.4148     0.11446E-01 
  61491.6770     0.11106E-01 
  61523.9391     0.10776E-01 
  61556.2013     0.10455E-01 
  61588.4634     0.10143E-01 
  61620.7256     0.98409E-02 
  61652.9878     0.95477E-02 
  61685.2499     0.92639E-02 
  61717.5121     0.89896E-02 
  61749.7742     0.87248E-02 
  61782.0364     0.84696E-02 
  61814.2986     0.82242E-02 
  61846.5607     0.79885E-02 
  61878.8229     0.77627E-02 
  61911.0850     0.75468E-02 
  61943.3472     0.73410E-02 
  61975.6094     0.71453E-02 
  62007.8715     0.69599E-02 
  62040.1337     0.67847E-02 
  62072.3958     0.66200E-02 
  62104.6580     0.64657E-02 
  62136.9202     0.63221E-02 
  62169.1823     0.61892E-02 
  62201.4445     0.60671E-02 
  62233.7066     0.59560E-02 
  62265.9688     0.58559E-02 
  62298.2310     0.57669E-02 
  62330.4931     0.56892E-02 
  62362.7553     0.56229E-02 
  62395.0174     0.55681E-02 
  62427.2796     0.55250E-02 
  62459.5418     0.54936E-02 
  62491.8039     0.54741E-02 
  62524.0661     0.54667E-02 
  62556.3282     0.54714E-02 
  62588.5904     0.54884E-02 
  62620.8526     0.55179E-02 
  62653.1147     0.55600E-02 
  62685.3769     0.56149E-02 
  62717.6390     0.56826E-02 
  62749.9012     0.57634E-02 
  62782.1634     0.58575E-02 
  62814.4255     0.59649E-02 
  62846.6877     0.60859E-02 
  62878.9498     0.62206E-02 
  62911.2120     0.63691E-02 
  62943.4742     0.65318E-02 
  62975.7363     0.67087E-02 
  63007.9985     0.69001E-02 
  63040.2606     0.71061E-02 
  63072.5228     0.73269E-02 
  63104.7850     0.75627E-02 
  63137.0471     0.78137E-02 
  63169.3093     0.80802E-02 
  63201.5714     0.83623E-02 
  63233.8336     0.86603E-02 
  63266.0958     0.89743E-02 
  63298.3579     0.93046E-02 
  63330.6201     0.96514E-02 
  63362.8822     0.10015E-01 
  63395.1444     0.10396E-01 
  63427.4066     0.10793E-01 
  63459.6687     0.11209E-01 
  63491.9309     0.11641E-01 
  63524.1930     0.12092E-01 
  63556.4552     0.12562E-01 
  63588.7174     0.13049E-01 
  63620.9795     0.13556E-01 
  63653.2417     0.14081E-01 
  63685.5038     0.14626E-01 
  63717.7660     0.15190E-01 
  63750.0282     0.15774E-01 
  63782.2903     0.16379E-01 
  63814.5525     0.17003E-01 
  63846.8146     0.17649E-01 
  63879.0768     0.18316E-01 
  63911.3390     0.19004E-01 
  63943.6011     0.19714E-01 
  63975.8633     0.20446E-01 
  64008.1254     0.21200E-01 
  64040.3876     0.21977E-01 
  64072.6498     0.22777E-01 
  64104.9119     0.23601E-01 
  64137.1741     0.24448E-01 
  64169.4362     0.25320E-01 
  64201.6984     0.26216E-01 
  64233.9606     0.27136E-01 
  64266.2227     0.28083E-01 
  64298.4849     0.29054E-01 
  64330.7470     0.30052E-01 
  64363.0092     0.31077E-01 
  64395.2714     0.32128E-01 
  64427.5335     0.33206E-01 
  64459.7957     0.34313E-01 
  64492.0578     0.35447E-01 
  64524.3200     0.36610E-01 
  64556.5822     0.37802E-01 
  64588.8443     0.39023E-01 
  64621.1065     0.40275E-01 
  64653.3686     0.41556E-01 
  64685.6308     0.42869E-01 
  64717.8930     0.44213E-01 
  64750.1551     0.45589E-01 
  64782.4173     0.46997E-01 
  64814.6794     0.48438E-01 
  64846.9416     0.49912E-01 
  64879.2038     0.51420E-01 
  64911.4659     0.52963E-01 
  64943.7281     0.54540E-01 
  64975.9902     0.56153E-01 
  65008.2524     0.57802E-01 
  65040.5146     0.59487E-01 
  65072.7767     0.61210E-01 
  65105.0389     0.62970E-01 
  65137.3010     0.64769E-01 
  65169.5632     0.66606E-01 
  65201.8254     0.68483E-01 
  65234.0875     0.70401E-01 
  65266.3497     0.72358E-01 
  65298.6118     0.74357E-01 
  65330.8740     0.76399E-01 
  65363.1362     0.78482E-01 
  65395.3983     0.80609E-01 
  65427.6605     0.82780E-01 
  65459.9226     0.84996E-01 
  65492.1848     0.87257E-01 
  65524.4470     0.89563E-01 
  65556.7091     0.91917E-01 
  65588.9713     0.94318E-01 
  65621.2334     0.96767E-01 
  65653.4956     0.99265E-01 
  65685.7578     0.10181E+00 
  65718.0199     0.10441E+00 
  65750.2821     0.10706E+00 
  65782.5442     0.10976E+00 
  65814.8064     0.11251E+00 
  65847.0686     0.11532E+00 
  65879.3307     0.11818E+00 
  65911.5929     0.12110E+00 
  65943.8550     0.12407E+00 
  65976.1172     0.12710E+00 
  66008.3794     0.13018E+00 
  66040.6415     0.13333E+00 
  66072.9037     0.13653E+00 
  66105.1658     0.13979E+00 
  66137.4280     0.14312E+00 
  66169.6902     0.14650E+00 
  66201.9523     0.14995E+00 
  66234.2145     0.15347E+00 
  66266.4766     0.15704E+00 
  66298.7388     0.16069E+00 
  66331.0010     0.16440E+00 
  66363.2631     0.16817E+00 
  66395.5253     0.17202E+00 
  66427.7874     0.17593E+00 
  66460.0496     0.17992E+00 
  66492.3118     0.18397E+00 
  66524.5739     0.18810E+00 
  66556.8361     0.19230E+00 
  66589.0982     0.19658E+00 
  66621.3604     0.20093E+00 
  66653.6226     0.20536E+00 
  66685.8847     0.20986E+00 
  66718.1469     0.21445E+00 
  66750.4090     0.21911E+00 
  66782.6712     0.22385E+00 
  66814.9334     0.22868E+00 
  66847.1955     0.23359E+00 
  66879.4577     0.23858E+00 
  66911.7198     0.24366E+00 
  66943.9820     0.24882E+00 
  66976.2442     0.25408E+00 
  67008.5063     0.25942E+00 
  67040.7685     0.26485E+00 
  67073.0306     0.27037E+00 
  67105.2928     0.27599E+00 
  67137.5550     0.28169E+00 
  67169.8171     0.28750E+00 
  67202.0793     0.29339E+00 
  67234.3414     0.29939E+00 
  67266.6036     0.30548E+00 
  67298.8658     0.31168E+00 
  67331.1279     0.31797E+00 
  67363.3901     0.32437E+00 
  67395.6522     0.33087E+00 
  67427.9144     0.33748E+00 
  67460.1766     0.34419E+00 
  67492.4387     0.35101E+00 
  67524.7009     0.35794E+00 
  67556.9630     0.36498E+00 
  67589.2252     0.37213E+00 
  67621.4874     0.37939E+00 
  67653.7495     0.38677E+00 
  67686.0117     0.39426E+00 
  67718.2738     0.40187E+00 
  67750.5360     0.40960E+00 
  67782.7982     0.41745E+00 
  67815.0603     0.42542E+00 
  67847.3225     0.43351E+00 
  67879.5846     0.44173E+00 
  67911.8468     0.45007E+00 
  67944.1090     0.45854E+00 
  67976.3711     0.46714E+00 
  68008.6333     0.47587E+00 
  68040.8954     0.48473E+00 
  68073.1576     0.49373E+00 
  68105.4198     0.50286E+00 
  68137.6819     0.51212E+00 
  68169.9441     0.52153E+00 
  68202.2062     0.53107E+00 
  68234.4684     0.54075E+00 
  68266.7306     0.55058E+00 
  68298.9927     0.56055E+00 
  68331.2549     0.57066E+00 
  68363.5170     0.58093E+00 
  68395.7792     0.59134E+00 
  68428.0414     0.60190E+00 
  68460.3035     0.61261E+00 
  68492.5657     0.62348E+00 
  68524.8278     0.63450E+00 
  68557.0900     0.64568E+00 
  68589.3522     0.65702E+00 
  68621.6143     0.66851E+00 
  68653.8765     0.68017E+00 
  68686.1386     0.69199E+00 
  68718.4008     0.70398E+00 
  68750.6630     0.71614E+00 
  68782.9251     0.72846E+00 
  68815.1873     0.74095E+00 
  68847.4494     0.75361E+00 
  68879.7116     0.76645E+00 
  68911.9738     0.77946E+00 
  68944.2359     0.79265E+00 
  68976.4981     0.80602E+00 
  69008.7602     0.81956E+00 
  69041.0224     0.83329E+00 
  69073.2846     0.84720E+00 
  69105.5467     0.86130E+00 
  69137.8089     0.87558E+00 
  69170.0710     0.89006E+00 
  69202.3332     0.90472E+00 
  69234.5954     0.91957E+00 
  69266.8575     0.93462E+00 
  69299.1197     0.94986E+00 
  69331.3818     0.96531E+00 
  69363.6440     0.98094E+00 
  69395.9062     0.99678E+00 
  69428.1683     0.10128E+01 
  69460.4305     0.10291E+01 
  69492.6926     0.10455E+01 
  69524.9548     0.10622E+01 
  69557.2170     0.10791E+01 
  69589.4791     0.10961E+01 
  69621.7413     0.11134E+01 
  69654.0034     0.11309E+01 
  69686.2656     0.11487E+01 
  69718.5278     0.11666E+01 
  69750.7899     0.11847E+01 
  69783.0521     0.12031E+01 
  69815.3142     0.12217E+01 
  69847.5764     0.12406E+01 
  69879.8386     0.12596E+01 
  69912.1007     0.12789E+01 
  69944.3629     0.12984E+01 
  69976.6250     0.13181E+01 
  70008.8872     0.13381E+01 
  70041.1494     0.13583E+01 
  70073.4115     0.13788E+01 
  70105.6737     0.13995E+01 
  70137.9358     0.14204E+01 
  70170.1980     0.14415E+01 
  70202.4602     0.14629E+01 
  70234.7223     0.14846E+01 
  70266.9845     0.15065E+01 
  70299.2466     0.15286E+01 
  70331.5088     0.15510E+01 
  70363.7710     0.15737E+01 
  70396.0331     0.15966E+01 
  70428.2953     0.16197E+01 
  70460.5574     0.16431E+01 
  70492.8196     0.16668E+01 
  70525.0818     0.16907E+01 
  70557.3439     0.17149E+01 
  70589.6061     0.17393E+01 
  70621.8682     0.17640E+01 
  70654.1304     0.17890E+01 
  70686.3926     0.18142E+01 
  70718.6547     0.18397E+01 
  70750.9169     0.18655E+01 
  70783.1790     0.18916E+01 
  70815.4412     0.19179E+01 
  70847.7034     0.19445E+01 
  70879.9655     0.19713E+01 
  70912.2277     0.19985E+01 
  70944.4898     0.20259E+01 
  70976.7520     0.20536E+01 
  71009.0142     0.20815E+01 
  71041.2763     0.21098E+01 
  71073.5385     0.21383E+01 
  71105.8006     0.21672E+01 
  71138.0628     0.21963E+01 
  71170.3250     0.22256E+01 
  71202.5871     0.22553E+01 
  71234.8493     0.22853E+01 
  71267.1114     0.23155E+01 
  71299.3736     0.23461E+01 
  71331.6358     0.23769E+01 
  71363.8979     0.24081E+01 
  71396.1601     0.24395E+01 
  71428.4222     0.24712E+01 
  71460.6844     0.25032E+01 
  71492.9466     0.25355E+01 
  71525.2087     0.25682E+01 
  71557.4709     0.26011E+01 
  71589.7330     0.26343E+01 
  71621.9952     0.26678E+01 
  71654.2574     0.27016E+01 
  71686.5195     0.27357E+01 
  71718.7817     0.27701E+01 
  71751.0438     0.28049E+01 
  71783.3060     0.28399E+01 
  71815.5682     0.28752E+01 
  71847.8303     0.29109E+01 
  71880.0925     0.29468E+01 
  71912.3546     0.29831E+01 
  71944.6168     0.30197E+01 
  71976.8790     0.30565E+01 
  72009.1411     0.30937E+01 
  72041.4033     0.31312E+01 
  72073.6654     0.31690E+01 
  72105.9276     0.32071E+01 
  72138.1898     0.32456E+01 
  72170.4519     0.32843E+01 
  72202.7141     0.33234E+01 
  72234.9762     0.33627E+01 
  72267.2384     0.34024E+01 
  72299.5006     0.34424E+01 
  72331.7627     0.34827E+01 
  72364.0249     0.35233E+01 
  72396.2870     0.35643E+01 
  72428.5492     0.36055E+01 
  72460.8114     0.36471E+01 
  72493.0735     0.36890E+01 
  72525.3357     0.37311E+01 
  72557.5978     0.37737E+01 
  72589.8600     0.38165E+01 
