  32262.1600     0.65119E-04 
  32294.4222     0.65778E-04 
  32326.6843     0.66442E-04 
  32358.9465     0.67109E-04 
  32391.2086     0.67781E-04 
  32423.4708     0.68457E-04 
  32455.7330     0.69138E-04 
  32487.9951     0.69822E-04 
  32520.2573     0.70511E-04 
  32552.5194     0.71204E-04 
  32584.7816     0.71901E-04 
  32617.0438     0.72603E-04 
  32649.3059     0.73309E-04 
  32681.5681     0.74018E-04 
  32713.8302     0.74732E-04 
  32746.0924     0.75450E-04 
  32778.3546     0.76173E-04 
  32810.6167     0.76899E-04 
  32842.8789     0.77630E-04 
  32875.1410     0.78365E-04 
  32907.4032     0.79104E-04 
  32939.6654     0.79847E-04 
  32971.9275     0.80594E-04 
  33004.1897     0.81345E-04 
  33036.4518     0.82100E-04 
  33068.7140     0.82860E-04 
  33100.9762     0.83623E-04 
  33133.2383     0.84391E-04 
  33165.5005     0.85163E-04 
  33197.7626     0.85938E-04 
  33230.0248     0.86718E-04 
  33262.2870     0.87501E-04 
  33294.5491     0.88289E-04 
  33326.8113     0.89081E-04 
  33359.0734     0.89876E-04 
  33391.3356     0.90676E-04 
  33423.5978     0.91479E-04 
  33455.8599     0.92287E-04 
  33488.1221     0.93098E-04 
  33520.3842     0.93913E-04 
  33552.6464     0.94732E-04 
  33584.9086     0.95555E-04 
  33617.1707     0.96381E-04 
  33649.4329     0.97212E-04 
  33681.6950     0.98046E-04 
  33713.9572     0.98884E-04 
  33746.2194     0.99726E-04 
  33778.4815     0.10057E-03 
  33810.7437     0.10142E-03 
  33843.0058     0.10227E-03 
  33875.2680     0.10313E-03 
  33907.5302     0.10399E-03 
  33939.7923     0.10485E-03 
  33972.0545     0.10572E-03 
  34004.3166     0.10659E-03 
  34036.5788     0.10747E-03 
  34068.8410     0.10834E-03 
  34101.1031     0.10923E-03 
  34133.3653     0.11011E-03 
  34165.6274     0.11100E-03 
  34197.8896     0.11189E-03 
  34230.1518     0.11279E-03 
  34262.4139     0.11368E-03 
  34294.6761     0.11459E-03 
  34326.9382     0.11549E-03 
  34359.2004     0.11640E-03 
  34391.4626     0.11731E-03 
  34423.7247     0.11823E-03 
  34455.9869     0.11914E-03 
  34488.2490     0.12007E-03 
  34520.5112     0.12099E-03 
  34552.7734     0.12192E-03 
  34585.0355     0.12285E-03 
  34617.2977     0.12378E-03 
  34649.5598     0.12472E-03 
  34681.8220     0.12566E-03 
  34714.0842     0.12660E-03 
  34746.3463     0.12754E-03 
  34778.6085     0.12849E-03 
  34810.8706     0.12944E-03 
  34843.1328     0.13040E-03 
  34875.3950     0.13135E-03 
  34907.6571     0.13231E-03 
  34939.9193     0.13327E-03 
  34972.1814     0.13424E-03 
  35004.4436     0.13520E-03 
  35036.7058     0.13617E-03 
  35068.9679     0.13715E-03 
  35101.2301     0.13812E-03 
  35133.4922     0.13910E-03 
  35165.7544     0.14008E-03 
  35198.0166     0.14106E-03 
  35230.2787     0.14204E-03 
  35262.5409     0.14303E-03 
  35294.8030     0.14402E-03 
  35327.0652     0.14501E-03 
  35359.3274     0.14600E-03 
  35391.5895     0.14700E-03 
  35423.8517     0.14799E-03 
  35456.1138     0.14899E-03 
  35488.3760     0.15000E-03 
  35520.6382     0.15100E-03 
  35552.9003     0.15200E-03 
  35585.1625     0.15301E-03 
  35617.4246     0.15402E-03 
  35649.6868     0.15503E-03 
  35681.9490     0.15604E-03 
  35714.2111     0.15706E-03 
  35746.4733     0.15807E-03 
  35778.7354     0.15909E-03 
  35810.9976     0.16011E-03 
  35843.2598     0.16113E-03 
  35875.5219     0.16215E-03 
  35907.7841     0.16317E-03 
  35940.0462     0.16420E-03 
  35972.3084     0.16522E-03 
  36004.5706     0.16625E-03 
  36036.8327     0.16728E-03 
  36069.0949     0.16831E-03 
  36101.3570     0.16934E-03 
  36133.6192     0.17037E-03 
  36165.8814     0.17140E-03 
  36198.1435     0.17244E-03 
  36230.4057     0.17347E-03 
  36262.6678     0.17451E-03 
  36294.9300     0.17554E-03 
  36327.1922     0.17658E-03 
  36359.4543     0.17762E-03 
  36391.7165     0.17865E-03 
  36423.9786     0.17969E-03 
  36456.2408     0.18073E-03 
  36488.5030     0.18177E-03 
  36520.7651     0.18281E-03 
  36553.0273     0.18385E-03 
  36585.2894     0.18489E-03 
  36617.5516     0.18594E-03 
  36649.8138     0.18698E-03 
  36682.0759     0.18802E-03 
  36714.3381     0.18906E-03 
  36746.6002     0.19010E-03 
  36778.8624     0.19115E-03 
  36811.1246     0.19219E-03 
  36843.3867     0.19323E-03 
  36875.6489     0.19427E-03 
  36907.9110     0.19531E-03 
  36940.1732     0.19635E-03 
  36972.4354     0.19740E-03 
  37004.6975     0.19844E-03 
  37036.9597     0.19948E-03 
  37069.2218     0.20052E-03 
  37101.4840     0.20156E-03 
  37133.7462     0.20259E-03 
  37166.0083     0.20363E-03 
  37198.2705     0.20467E-03 
  37230.5326     0.20571E-03 
  37262.7948     0.20674E-03 
  37295.0570     0.20778E-03 
  37327.3191     0.20881E-03 
  37359.5813     0.20984E-03 
  37391.8434     0.21088E-03 
  37424.1056     0.21191E-03 
  37456.3678     0.21294E-03 
  37488.6299     0.21396E-03 
  37520.8921     0.21499E-03 
  37553.1542     0.21602E-03 
  37585.4164     0.21704E-03 
  37617.6786     0.21807E-03 
  37649.9407     0.21909E-03 
  37682.2029     0.22011E-03 
  37714.4650     0.22113E-03 
  37746.7272     0.22214E-03 
  37778.9894     0.22316E-03 
  37811.2515     0.22417E-03 
  37843.5137     0.22518E-03 
  37875.7758     0.22619E-03 
  37908.0380     0.22720E-03 
  37940.3002     0.22821E-03 
  37972.5623     0.22921E-03 
  38004.8245     0.23021E-03 
  38037.0866     0.23121E-03 
  38069.3488     0.23221E-03 
  38101.6110     0.23320E-03 
  38133.8731     0.23419E-03 
  38166.1353     0.23518E-03 
  38198.3974     0.23617E-03 
  38230.6596     0.23716E-03 
  38262.9218     0.23814E-03 
  38295.1839     0.23912E-03 
  38327.4461     0.24010E-03 
  38359.7082     0.24107E-03 
  38391.9704     0.24204E-03 
  38424.2326     0.24301E-03 
  38456.4947     0.24398E-03 
  38488.7569     0.24494E-03 
  38521.0190     0.24590E-03 
  38553.2812     0.24686E-03 
  38585.5434     0.24781E-03 
  38617.8055     0.24876E-03 
  38650.0677     0.24971E-03 
  38682.3298     0.25065E-03 
  38714.5920     0.25159E-03 
  38746.8542     0.25253E-03 
  38779.1163     0.25346E-03 
  38811.3785     0.25439E-03 
  38843.6406     0.25532E-03 
  38875.9028     0.25624E-03 
  38908.1650     0.25716E-03 
  38940.4271     0.25808E-03 
  38972.6893     0.25899E-03 
  39004.9514     0.25990E-03 
  39037.2136     0.26080E-03 
  39069.4758     0.26170E-03 
  39101.7379     0.26260E-03 
  39134.0001     0.26349E-03 
  39166.2622     0.26438E-03 
  39198.5244     0.26526E-03 
  39230.7866     0.26614E-03 
  39263.0487     0.26702E-03 
  39295.3109     0.26789E-03 
  39327.5730     0.26875E-03 
  39359.8352     0.26962E-03 
  39392.0974     0.27047E-03 
  39424.3595     0.27133E-03 
  39456.6217     0.27218E-03 
  39488.8838     0.27302E-03 
  39521.1460     0.27386E-03 
  39553.4082     0.27469E-03 
  39585.6703     0.27552E-03 
  39617.9325     0.27635E-03 
  39650.1946     0.27717E-03 
  39682.4568     0.27798E-03 
  39714.7190     0.27879E-03 
  39746.9811     0.27960E-03 
  39779.2433     0.28040E-03 
  39811.5054     0.28120E-03 
  39843.7676     0.28199E-03 
  39876.0298     0.28277E-03 
  39908.2919     0.28355E-03 
  39940.5541     0.28432E-03 
  39972.8162     0.28509E-03 
  40005.0784     0.28586E-03 
  40037.3406     0.28662E-03 
  40069.6027     0.28737E-03 
  40101.8649     0.28812E-03 
  40134.1270     0.28886E-03 
  40166.3892     0.28959E-03 
  40198.6514     0.29032E-03 
  40230.9135     0.29105E-03 
  40263.1757     0.29177E-03 
  40295.4378     0.29248E-03 
  40327.7000     0.29319E-03 
  40359.9622     0.29389E-03 
  40392.2243     0.29459E-03 
  40424.4865     0.29528E-03 
  40456.7486     0.29596E-03 
  40489.0108     0.29664E-03 
  40521.2730     0.29731E-03 
  40553.5351     0.29798E-03 
  40585.7973     0.29864E-03 
  40618.0594     0.29929E-03 
  40650.3216     0.29994E-03 
  40682.5838     0.30058E-03 
  40714.8459     0.30121E-03 
  40747.1081     0.30184E-03 
  40779.3702     0.30247E-03 
  40811.6324     0.30308E-03 
  40843.8946     0.30369E-03 
  40876.1567     0.30430E-03 
  40908.4189     0.30489E-03 
  40940.6810     0.30548E-03 
  40972.9432     0.30607E-03 
  41005.2054     0.30664E-03 
  41037.4675     0.30721E-03 
  41069.7297     0.30778E-03 
  41101.9918     0.30834E-03 
  41134.2540     0.30889E-03 
  41166.5162     0.30943E-03 
  41198.7783     0.30997E-03 
  41231.0405     0.31050E-03 
  41263.3026     0.31102E-03 
  41295.5648     0.31154E-03 
  41327.8270     0.31205E-03 
  41360.0891     0.31255E-03 
  41392.3513     0.31305E-03 
  41424.6134     0.31354E-03 
  41456.8756     0.31402E-03 
  41489.1378     0.31450E-03 
  41521.3999     0.31497E-03 
  41553.6621     0.31543E-03 
  41585.9242     0.31588E-03 
  41618.1864     0.31633E-03 
  41650.4486     0.31677E-03 
  41682.7107     0.31720E-03 
  41714.9729     0.31763E-03 
  41747.2350     0.31805E-03 
  41779.4972     0.31846E-03 
  41811.7594     0.31887E-03 
  41844.0215     0.31926E-03 
  41876.2837     0.31965E-03 
  41908.5458     0.32004E-03 
  41940.8080     0.32041E-03 
  41973.0702     0.32078E-03 
  42005.3323     0.32114E-03 
  42037.5945     0.32150E-03 
  42069.8566     0.32184E-03 
  42102.1188     0.32218E-03 
  42134.3810     0.32251E-03 
  42166.6431     0.32284E-03 
  42198.9053     0.32316E-03 
  42231.1674     0.32347E-03 
  42263.4296     0.32377E-03 
  42295.6918     0.32406E-03 
  42327.9539     0.32435E-03 
  42360.2161     0.32463E-03 
  42392.4782     0.32490E-03 
  42424.7404     0.32517E-03 
  42457.0026     0.32543E-03 
  42489.2647     0.32568E-03 
  42521.5269     0.32592E-03 
  42553.7890     0.32616E-03 
  42586.0512     0.32638E-03 
  42618.3134     0.32661E-03 
  42650.5755     0.32682E-03 
  42682.8377     0.32702E-03 
  42715.0998     0.32722E-03 
  42747.3620     0.32741E-03 
  42779.6242     0.32759E-03 
  42811.8863     0.32777E-03 
  42844.1485     0.32794E-03 
  42876.4106     0.32810E-03 
  42908.6728     0.32825E-03 
  42940.9350     0.32840E-03 
  42973.1971     0.32853E-03 
  43005.4593     0.32866E-03 
  43037.7214     0.32879E-03 
  43069.9836     0.32890E-03 
  43102.2458     0.32901E-03 
  43134.5079     0.32911E-03 
  43166.7701     0.32920E-03 
  43199.0322     0.32929E-03 
  43231.2944     0.32936E-03 
  43263.5566     0.32943E-03 
  43295.8187     0.32950E-03 
  43328.0809     0.32955E-03 
  43360.3430     0.32960E-03 
  43392.6052     0.32964E-03 
  43424.8674     0.32967E-03 
  43457.1295     0.32970E-03 
  43489.3917     0.32971E-03 
  43521.6538     0.32972E-03 
  43553.9160     0.32973E-03 
  43586.1782     0.32972E-03 
  43618.4403     0.32971E-03 
  43650.7025     0.32969E-03 
  43682.9646     0.32966E-03 
  43715.2268     0.32963E-03 
  43747.4890     0.32959E-03 
  43779.7511     0.32954E-03 
  43812.0133     0.32948E-03 
  43844.2754     0.32942E-03 
  43876.5376     0.32935E-03 
  43908.7998     0.32927E-03 
  43941.0619     0.32918E-03 
  43973.3241     0.32909E-03 
  44005.5862     0.32899E-03 
  44037.8484     0.32888E-03 
  44070.1106     0.32876E-03 
  44102.3727     0.32864E-03 
  44134.6349     0.32851E-03 
  44166.8970     0.32837E-03 
  44199.1592     0.32823E-03 
  44231.4214     0.32808E-03 
  44263.6835     0.32792E-03 
  44295.9457     0.32775E-03 
  44328.2078     0.32758E-03 
  44360.4700     0.32740E-03 
  44392.7322     0.32721E-03 
  44424.9943     0.32702E-03 
  44457.2565     0.32682E-03 
  44489.5186     0.32661E-03 
  44521.7808     0.32640E-03 
  44554.0430     0.32617E-03 
  44586.3051     0.32594E-03 
  44618.5673     0.32571E-03 
  44650.8294     0.32547E-03 
  44683.0916     0.32522E-03 
  44715.3538     0.32496E-03 
  44747.6159     0.32470E-03 
  44779.8781     0.32442E-03 
  44812.1402     0.32415E-03 
  44844.4024     0.32386E-03 
  44876.6646     0.32357E-03 
  44908.9267     0.32328E-03 
  44941.1889     0.32297E-03 
  44973.4510     0.32266E-03 
  45005.7132     0.32234E-03 
  45037.9754     0.32202E-03 
  45070.2375     0.32169E-03 
  45102.4997     0.32135E-03 
  45134.7618     0.32101E-03 
  45167.0240     0.32066E-03 
  45199.2862     0.32030E-03 
  45231.5483     0.31994E-03 
  45263.8105     0.31957E-03 
  45296.0726     0.31919E-03 
  45328.3348     0.31881E-03 
  45360.5970     0.31842E-03 
  45392.8591     0.31803E-03 
  45425.1213     0.31763E-03 
  45457.3834     0.31722E-03 
  45489.6456     0.31681E-03 
  45521.9078     0.31639E-03 
  45554.1699     0.31596E-03 
  45586.4321     0.31553E-03 
  45618.6942     0.31509E-03 
  45650.9564     0.31465E-03 
  45683.2186     0.31420E-03 
  45715.4807     0.31374E-03 
  45747.7429     0.31328E-03 
  45780.0050     0.31281E-03 
  45812.2672     0.31234E-03 
  45844.5294     0.31186E-03 
  45876.7915     0.31137E-03 
  45909.0537     0.31088E-03 
  45941.3158     0.31039E-03 
  45973.5780     0.30988E-03 
  46005.8402     0.30938E-03 
  46038.1023     0.30886E-03 
  46070.3645     0.30834E-03 
  46102.6266     0.30782E-03 
  46134.8888     0.30729E-03 
  46167.1510     0.30675E-03 
  46199.4131     0.30621E-03 
  46231.6753     0.30566E-03 
  46263.9374     0.30511E-03 
  46296.1996     0.30456E-03 
  46328.4618     0.30399E-03 
  46360.7239     0.30343E-03 
  46392.9861     0.30285E-03 
  46425.2482     0.30227E-03 
  46457.5104     0.30169E-03 
  46489.7726     0.30110E-03 
  46522.0347     0.30051E-03 
  46554.2969     0.29991E-03 
  46586.5590     0.29931E-03 
  46618.8212     0.29870E-03 
  46651.0834     0.29809E-03 
  46683.3455     0.29747E-03 
  46715.6077     0.29685E-03 
  46747.8698     0.29622E-03 
  46780.1320     0.29559E-03 
  46812.3942     0.29495E-03 
  46844.6563     0.29431E-03 
  46876.9185     0.29366E-03 
  46909.1806     0.29301E-03 
  46941.4428     0.29236E-03 
  46973.7050     0.29170E-03 
  47005.9671     0.29103E-03 
  47038.2293     0.29037E-03 
  47070.4914     0.28969E-03 
  47102.7536     0.28902E-03 
  47135.0158     0.28833E-03 
  47167.2779     0.28765E-03 
  47199.5401     0.28696E-03 
  47231.8022     0.28626E-03 
  47264.0644     0.28557E-03 
  47296.3266     0.28486E-03 
  47328.5887     0.28416E-03 
  47360.8509     0.28345E-03 
  47393.1130     0.28273E-03 
  47425.3752     0.28202E-03 
  47457.6374     0.28129E-03 
  47489.8995     0.28057E-03 
  47522.1617     0.27984E-03 
  47554.4238     0.27911E-03 
  47586.6860     0.27837E-03 
  47618.9482     0.27763E-03 
  47651.2103     0.27689E-03 
  47683.4725     0.27614E-03 
  47715.7346     0.27539E-03 
  47747.9968     0.27463E-03 
  47780.2590     0.27387E-03 
  47812.5211     0.27311E-03 
  47844.7833     0.27235E-03 
  47877.0454     0.27158E-03 
  47909.3076     0.27081E-03 
  47941.5698     0.27003E-03 
  47973.8319     0.26926E-03 
  48006.0941     0.26848E-03 
  48038.3562     0.26769E-03 
  48070.6184     0.26691E-03 
  48102.8806     0.26612E-03 
  48135.1427     0.26532E-03 
  48167.4049     0.26453E-03 
  48199.6670     0.26373E-03 
  48231.9292     0.26293E-03 
  48264.1914     0.26212E-03 
  48296.4535     0.26132E-03 
  48328.7157     0.26051E-03 
  48360.9778     0.25969E-03 
  48393.2400     0.25888E-03 
  48425.5022     0.25806E-03 
  48457.7643     0.25724E-03 
  48490.0265     0.25642E-03 
  48522.2886     0.25559E-03 
  48554.5508     0.25477E-03 
  48586.8130     0.25394E-03 
  48619.0751     0.25310E-03 
  48651.3373     0.25227E-03 
  48683.5994     0.25143E-03 
  48715.8616     0.25059E-03 
  48748.1238     0.24975E-03 
  48780.3859     0.24891E-03 
  48812.6481     0.24806E-03 
  48844.9102     0.24722E-03 
  48877.1724     0.24637E-03 
  48909.4346     0.24552E-03 
  48941.6967     0.24466E-03 
  48973.9589     0.24381E-03 
  49006.2210     0.24295E-03 
  49038.4832     0.24209E-03 
  49070.7454     0.24123E-03 
  49103.0075     0.24037E-03 
  49135.2697     0.23951E-03 
  49167.5318     0.23864E-03 
  49199.7940     0.23778E-03 
  49232.0562     0.23691E-03 
  49264.3183     0.23604E-03 
  49296.5805     0.23517E-03 
  49328.8426     0.23429E-03 
  49361.1048     0.23342E-03 
  49393.3670     0.23254E-03 
  49425.6291     0.23167E-03 
  49457.8913     0.23079E-03 
  49490.1534     0.22991E-03 
  49522.4156     0.22903E-03 
  49554.6778     0.22815E-03 
  49586.9399     0.22726E-03 
  49619.2021     0.22638E-03 
  49651.4642     0.22549E-03 
  49683.7264     0.22461E-03 
  49715.9886     0.22372E-03 
  49748.2507     0.22283E-03 
  49780.5129     0.22195E-03 
  49812.7750     0.22106E-03 
  49845.0372     0.22017E-03 
  49877.2994     0.21927E-03 
  49909.5615     0.21838E-03 
  49941.8237     0.21749E-03 
  49974.0858     0.21660E-03 
  50006.3480     0.21570E-03 
  50038.6102     0.21481E-03 
  50070.8723     0.21391E-03 
  50103.1345     0.21302E-03 
  50135.3966     0.21212E-03 
  50167.6588     0.21122E-03 
  50199.9210     0.21033E-03 
  50232.1831     0.20943E-03 
  50264.4453     0.20853E-03 
  50296.7074     0.20763E-03 
  50328.9696     0.20674E-03 
  50361.2318     0.20584E-03 
  50393.4939     0.20494E-03 
  50425.7561     0.20404E-03 
  50458.0182     0.20314E-03 
  50490.2804     0.20224E-03 
  50522.5426     0.20134E-03 
  50554.8047     0.20044E-03 
  50587.0669     0.19954E-03 
  50619.3290     0.19865E-03 
  50651.5912     0.19775E-03 
  50683.8534     0.19685E-03 
  50716.1155     0.19595E-03 
  50748.3777     0.19505E-03 
  50780.6398     0.19415E-03 
  50812.9020     0.19325E-03 
  50845.1642     0.19236E-03 
  50877.4263     0.19146E-03 
  50909.6885     0.19056E-03 
  50941.9506     0.18966E-03 
  50974.2128     0.18877E-03 
  51006.4750     0.18787E-03 
  51038.7371     0.18697E-03 
  51070.9993     0.18608E-03 
  51103.2614     0.18518E-03 
  51135.5236     0.18429E-03 
  51167.7858     0.18340E-03 
  51200.0479     0.18250E-03 
  51232.3101     0.18161E-03 
  51264.5722     0.18072E-03 
  51296.8344     0.17983E-03 
  51329.0966     0.17894E-03 
  51361.3587     0.17805E-03 
  51393.6209     0.17716E-03 
  51425.8830     0.17627E-03 
  51458.1452     0.17538E-03 
  51490.4074     0.17450E-03 
  51522.6695     0.17361E-03 
  51554.9317     0.17272E-03 
  51587.1938     0.17184E-03 
  51619.4560     0.17096E-03 
  51651.7182     0.17008E-03 
  51683.9803     0.16920E-03 
  51716.2425     0.16832E-03 
  51748.5046     0.16744E-03 
  51780.7668     0.16656E-03 
  51813.0290     0.16568E-03 
  51845.2911     0.16481E-03 
  51877.5533     0.16393E-03 
  51909.8154     0.16306E-03 
  51942.0776     0.16219E-03 
  51974.3398     0.16132E-03 
  52006.6019     0.16045E-03 
  52038.8641     0.15958E-03 
  52071.1262     0.15871E-03 
  52103.3884     0.15784E-03 
  52135.6506     0.15698E-03 
  52167.9127     0.15612E-03 
  52200.1749     0.15526E-03 
  52232.4370     0.15440E-03 
  52264.6992     0.15354E-03 
  52296.9614     0.15268E-03 
  52329.2235     0.15182E-03 
  52361.4857     0.15097E-03 
  52393.7478     0.15012E-03 
  52426.0100     0.14927E-03 
  52458.2722     0.14842E-03 
  52490.5343     0.14757E-03 
  52522.7965     0.14672E-03 
  52555.0586     0.14588E-03 
  52587.3208     0.14503E-03 
  52619.5830     0.14419E-03 
  52651.8451     0.14335E-03 
  52684.1073     0.14251E-03 
  52716.3694     0.14168E-03 
  52748.6316     0.14084E-03 
  52780.8938     0.14001E-03 
  52813.1559     0.13918E-03 
  52845.4181     0.13835E-03 
  52877.6802     0.13752E-03 
  52909.9424     0.13669E-03 
  52942.2046     0.13587E-03 
  52974.4667     0.13505E-03 
  53006.7289     0.13423E-03 
  53038.9910     0.13341E-03 
  53071.2532     0.13259E-03 
  53103.5154     0.13178E-03 
  53135.7775     0.13097E-03 
  53168.0397     0.13015E-03 
  53200.3018     0.12935E-03 
  53232.5640     0.12854E-03 
  53264.8262     0.12773E-03 
  53297.0883     0.12693E-03 
  53329.3505     0.12613E-03 
  53361.6126     0.12533E-03 
  53393.8748     0.12454E-03 
  53426.1370     0.12374E-03 
  53458.3991     0.12295E-03 
  53490.6613     0.12216E-03 
  53522.9234     0.12137E-03 
  53555.1856     0.12058E-03 
  53587.4478     0.11980E-03 
  53619.7099     0.11902E-03 
  53651.9721     0.11824E-03 
  53684.2342     0.11746E-03 
  53716.4964     0.11669E-03 
  53748.7586     0.11591E-03 
  53781.0207     0.11514E-03 
  53813.2829     0.11437E-03 
  53845.5450     0.11361E-03 
  53877.8072     0.11284E-03 
  53910.0694     0.11208E-03 
  53942.3315     0.11132E-03 
  53974.5937     0.11057E-03 
  54006.8558     0.10981E-03 
  54039.1180     0.10906E-03 
  54071.3802     0.10831E-03 
  54103.6423     0.10756E-03 
  54135.9045     0.10681E-03 
  54168.1666     0.10607E-03 
  54200.4288     0.10533E-03 
  54232.6910     0.10459E-03 
  54264.9531     0.10386E-03 
  54297.2153     0.10312E-03 
  54329.4774     0.10239E-03 
  54361.7396     0.10166E-03 
  54394.0018     0.10093E-03 
  54426.2639     0.10021E-03 
  54458.5261     0.99488E-04 
  54490.7882     0.98769E-04 
  54523.0504     0.98052E-04 
  54555.3126     0.97338E-04 
  54587.5747     0.96626E-04 
  54619.8369     0.95916E-04 
  54652.0990     0.95209E-04 
  54684.3612     0.94505E-04 
  54716.6234     0.93803E-04 
  54748.8855     0.93103E-04 
  54781.1477     0.92406E-04 
  54813.4098     0.91711E-04 
  54845.6720     0.91019E-04 
  54877.9342     0.90330E-04 
  54910.1963     0.89643E-04 
  54942.4585     0.88958E-04 
  54974.7206     0.88276E-04 
  55006.9828     0.87597E-04 
  55039.2450     0.86920E-04 
  55071.5071     0.86246E-04 
  55103.7693     0.85574E-04 
  55136.0314     0.84905E-04 
  55168.2936     0.84238E-04 
  55200.5558     0.83574E-04 
  55232.8179     0.82913E-04 
  55265.0801     0.82254E-04 
  55297.3422     0.81597E-04 
  55329.6044     0.80944E-04 
  55361.8666     0.80293E-04 
  55394.1287     0.79644E-04 
  55426.3909     0.78998E-04 
  55458.6530     0.78355E-04 
  55490.9152     0.77714E-04 
  55523.1774     0.77076E-04 
  55555.4395     0.76440E-04 
  55587.7017     0.75807E-04 
  55619.9638     0.75177E-04 
  55652.2260     0.74549E-04 
  55684.4882     0.73924E-04 
  55716.7503     0.73302E-04 
  55749.0125     0.72682E-04 
  55781.2746     0.72065E-04 
  55813.5368     0.71451E-04 
  55845.7990     0.70839E-04 
  55878.0611     0.70229E-04 
  55910.3233     0.69623E-04 
  55942.5854     0.69019E-04 
  55974.8476     0.68417E-04 
  56007.1098     0.67819E-04 
  56039.3719     0.67223E-04 
  56071.6341     0.66629E-04 
  56103.8962     0.66039E-04 
  56136.1584     0.65451E-04 
  56168.4206     0.64865E-04 
  56200.6827     0.64282E-04 
  56232.9449     0.63702E-04 
  56265.2070     0.63125E-04 
  56297.4692     0.62550E-04 
  56329.7314     0.61978E-04 
  56361.9935     0.61408E-04 
  56394.2557     0.60841E-04 
  56426.5178     0.60277E-04 
  56458.7800     0.59716E-04 
  56491.0422     0.59157E-04 
  56523.3043     0.58600E-04 
  56555.5665     0.58047E-04 
  56587.8286     0.57496E-04 
  56620.0908     0.56948E-04 
  56652.3530     0.56402E-04 
  56684.6151     0.55859E-04 
  56716.8773     0.55319E-04 
  56749.1394     0.54781E-04 
  56781.4016     0.54247E-04 
  56813.6638     0.53714E-04 
  56845.9259     0.53185E-04 
  56878.1881     0.52658E-04 
  56910.4502     0.52133E-04 
  56942.7124     0.51612E-04 
  56974.9746     0.51093E-04 
  57007.2367     0.50577E-04 
  57039.4989     0.50063E-04 
  57071.7610     0.49552E-04 
  57104.0232     0.49044E-04 
  57136.2854     0.48538E-04 
  57168.5475     0.48035E-04 
  57200.8097     0.47535E-04 
  57233.0718     0.47037E-04 
  57265.3340     0.46542E-04 
  57297.5962     0.46049E-04 
  57329.8583     0.45560E-04 
  57362.1205     0.45073E-04 
  57394.3826     0.44588E-04 
  57426.6448     0.44106E-04 
  57458.9070     0.43627E-04 
  57491.1691     0.43151E-04 
  57523.4313     0.42677E-04 
  57555.6934     0.42206E-04 
  57587.9556     0.41737E-04 
  57620.2178     0.41272E-04 
  57652.4799     0.40808E-04 
  57684.7421     0.40348E-04 
  57717.0042     0.39890E-04 
  57749.2664     0.39435E-04 
  57781.5286     0.38982E-04 
  57813.7907     0.38532E-04 
  57846.0529     0.38085E-04 
  57878.3150     0.37640E-04 
  57910.5772     0.37198E-04 
  57942.8394     0.36759E-04 
  57975.1015     0.36322E-04 
  58007.3637     0.35888E-04 
  58039.6258     0.35457E-04 
  58071.8880     0.35028E-04 
  58104.1502     0.34602E-04 
  58136.4123     0.34178E-04 
  58168.6745     0.33757E-04 
  58200.9366     0.33339E-04 
  58233.1988     0.32924E-04 
  58265.4610     0.32511E-04 
  58297.7231     0.32101E-04 
  58329.9853     0.31693E-04 
  58362.2474     0.31288E-04 
  58394.5096     0.30886E-04 
  58426.7718     0.30487E-04 
  58459.0339     0.30090E-04 
  58491.2961     0.29695E-04 
  58523.5582     0.29304E-04 
  58555.8204     0.28915E-04 
  58588.0826     0.28528E-04 
  58620.3447     0.28145E-04 
  58652.6069     0.27764E-04 
  58684.8690     0.27386E-04 
  58717.1312     0.27010E-04 
  58749.3934     0.26637E-04 
  58781.6555     0.26267E-04 
  58813.9177     0.25899E-04 
  58846.1798     0.25534E-04 
  58878.4420     0.25172E-04 
  58910.7042     0.24813E-04 
  58942.9663     0.24456E-04 
  58975.2285     0.24102E-04 
  59007.4906     0.23750E-04 
  59039.7528     0.23401E-04 
  59072.0150     0.23055E-04 
  59104.2771     0.22712E-04 
  59136.5393     0.22371E-04 
  59168.8014     0.22033E-04 
  59201.0636     0.21698E-04 
  59233.3258     0.21366E-04 
  59265.5879     0.21036E-04 
  59297.8501     0.20709E-04 
  59330.1122     0.20385E-04 
  59362.3744     0.20063E-04 
  59394.6366     0.19745E-04 
  59426.8987     0.19429E-04 
  59459.1609     0.19115E-04 
  59491.4230     0.18805E-04 
  59523.6852     0.18497E-04 
  59555.9474     0.18192E-04 
  59588.2095     0.17890E-04 
  59620.4717     0.17591E-04 
  59652.7338     0.17294E-04 
  59684.9960     0.17001E-04 
  59717.2582     0.16710E-04 
  59749.5203     0.16422E-04 
  59781.7825     0.16137E-04 
  59814.0446     0.15855E-04 
  59846.3068     0.15575E-04 
  59878.5690     0.15299E-04 
  59910.8311     0.15025E-04 
  59943.0933     0.14754E-04 
  59975.3554     0.14486E-04 
  60007.6176     0.14221E-04 
  60039.8798     0.13959E-04 
  60072.1419     0.13700E-04 
  60104.4041     0.13444E-04 
  60136.6662     0.13191E-04 
  60168.9284     0.12941E-04 
  60201.1906     0.12693E-04 
  60233.4527     0.12449E-04 
  60265.7149     0.12208E-04 
  60297.9770     0.11970E-04 
  60330.2392     0.11735E-04 
  60362.5014     0.11503E-04 
  60394.7635     0.11274E-04 
  60427.0257     0.11048E-04 
  60459.2878     0.10825E-04 
  60491.5500     0.10606E-04 
  60523.8122     0.10389E-04 
  60556.0743     0.10176E-04 
  60588.3365     0.99657E-05 
  60620.5986     0.97588E-05 
  60652.8608     0.95552E-05 
  60685.1230     0.93547E-05 
  60717.3851     0.91575E-05 
  60749.6473     0.89637E-05 
  60781.9094     0.87731E-05 
  60814.1716     0.85858E-05 
  60846.4338     0.84019E-05 
  60878.6959     0.82214E-05 
  60910.9581     0.80443E-05 
  60943.2202     0.78705E-05 
  60975.4824     0.77003E-05 
  61007.7446     0.75335E-05 
  61040.0067     0.73702E-05 
  61072.2689     0.72104E-05 
  61104.5310     0.70542E-05 
  61136.7932     0.69015E-05 
  61169.0554     0.67525E-05 
  61201.3175     0.66070E-05 
  61233.5797     0.64653E-05 
  61265.8418     0.63272E-05 
  61298.1040     0.61929E-05 
  61330.3662     0.60623E-05 
  61362.6283     0.59355E-05 
  61394.8905     0.58125E-05 
  61427.1526     0.56934E-05 
  61459.4148     0.55782E-05 
  61491.6770     0.54668E-05 
  61523.9391     0.53595E-05 
  61556.2013     0.52561E-05 
  61588.4634     0.51568E-05 
  61620.7256     0.50615E-05 
  61652.9878     0.49703E-05 
  61685.2499     0.48833E-05 
  61717.5121     0.48004E-05 
  61749.7742     0.47218E-05 
  61782.0364     0.46474E-05 
  61814.2986     0.45774E-05 
  61846.5607     0.45117E-05 
  61878.8229     0.44504E-05 
  61911.0850     0.43935E-05 
  61943.3472     0.43411E-05 
  61975.6094     0.42932E-05 
  62007.8715     0.42499E-05 
  62040.1337     0.42113E-05 
  62072.3958     0.41773E-05 
  62104.6580     0.41480E-05 
  62136.9202     0.41235E-05 
  62169.1823     0.41039E-05 
  62201.4445     0.40891E-05 
  62233.7066     0.40792E-05 
  62265.9688     0.40743E-05 
  62298.2310     0.40745E-05 
  62330.4931     0.40797E-05 
  62362.7553     0.40902E-05 
  62395.0174     0.41058E-05 
  62427.2796     0.41267E-05 
  62459.5418     0.41529E-05 
  62491.8039     0.41845E-05 
  62524.0661     0.42216E-05 
  62556.3282     0.42641E-05 
  62588.5904     0.43123E-05 
  62620.8526     0.43661E-05 
  62653.1147     0.44256E-05 
  62685.3769     0.44909E-05 
  62717.6390     0.45621E-05 
  62749.9012     0.46391E-05 
  62782.1634     0.47222E-05 
  62814.4255     0.48113E-05 
  62846.6877     0.49065E-05 
  62878.9498     0.50080E-05 
  62911.2120     0.51157E-05 
  62943.4742     0.52298E-05 
  62975.7363     0.53503E-05 
  63007.9985     0.54774E-05 
  63040.2606     0.56110E-05 
  63072.5228     0.57513E-05 
  63104.7850     0.58984E-05 
  63137.0471     0.60523E-05 
  63169.3093     0.62132E-05 
  63201.5714     0.63810E-05 
  63233.8336     0.65560E-05 
  63266.0958     0.67381E-05 
  63298.3579     0.69276E-05 
  63330.6201     0.71244E-05 
  63362.8822     0.73286E-05 
  63395.1444     0.75405E-05 
  63427.4066     0.77599E-05 
  63459.6687     0.79872E-05 
  63491.9309     0.82222E-05 
  63524.1930     0.84653E-05 
  63556.4552     0.87164E-05 
  63588.7174     0.89756E-05 
  63620.9795     0.92431E-05 
  63653.2417     0.95189E-05 
  63685.5038     0.98032E-05 
  63717.7660     0.10096E-04 
  63750.0282     0.10398E-04 
  63782.2903     0.10708E-04 
  63814.5525     0.11027E-04 
  63846.8146     0.11356E-04 
  63879.0768     0.11693E-04 
  63911.3390     0.12040E-04 
  63943.6011     0.12396E-04 
  63975.8633     0.12761E-04 
  64008.1254     0.13136E-04 
  64040.3876     0.13521E-04 
  64072.6498     0.13916E-04 
  64104.9119     0.14321E-04 
  64137.1741     0.14736E-04 
  64169.4362     0.15161E-04 
  64201.6984     0.15596E-04 
  64233.9606     0.16042E-04 
  64266.2227     0.16499E-04 
  64298.4849     0.16966E-04 
  64330.7470     0.17444E-04 
  64363.0092     0.17934E-04 
  64395.2714     0.18434E-04 
  64427.5335     0.18946E-04 
  64459.7957     0.19470E-04 
  64492.0578     0.20005E-04 
  64524.3200     0.20551E-04 
  64556.5822     0.21110E-04 
  64588.8443     0.21681E-04 
  64621.1065     0.22264E-04 
  64653.3686     0.22859E-04 
  64685.6308     0.23467E-04 
  64717.8930     0.24087E-04 
  64750.1551     0.24721E-04 
  64782.4173     0.25367E-04 
  64814.6794     0.26027E-04 
  64846.9416     0.26700E-04 
  64879.2038     0.27386E-04 
  64911.4659     0.28086E-04 
  64943.7281     0.28800E-04 
  64975.9902     0.29528E-04 
  65008.2524     0.30270E-04 
  65040.5146     0.31027E-04 
  65072.7767     0.31798E-04 
  65105.0389     0.32583E-04 
  65137.3010     0.33384E-04 
  65169.5632     0.34200E-04 
  65201.8254     0.35031E-04 
  65234.0875     0.35877E-04 
  65266.3497     0.36739E-04 
  65298.6118     0.37617E-04 
  65330.8740     0.38511E-04 
  65363.1362     0.39421E-04 
  65395.3983     0.40347E-04 
  65427.6605     0.41290E-04 
  65459.9226     0.42250E-04 
  65492.1848     0.43227E-04 
  65524.4470     0.44221E-04 
  65556.7091     0.45233E-04 
  65588.9713     0.46262E-04 
  65621.2334     0.47309E-04 
  65653.4956     0.48373E-04 
  65685.7578     0.49457E-04 
  65718.0199     0.50558E-04 
  65750.2821     0.51678E-04 
  65782.5442     0.52818E-04 
  65814.8064     0.53976E-04 
  65847.0686     0.55153E-04 
  65879.3307     0.56351E-04 
  65911.5929     0.57567E-04 
  65943.8550     0.58804E-04 
  65976.1172     0.60061E-04 
  66008.3794     0.61339E-04 
  66040.6415     0.62637E-04 
  66072.9037     0.63956E-04 
  66105.1658     0.65296E-04 
  66137.4280     0.66658E-04 
  66169.6902     0.68041E-04 
  66201.9523     0.69446E-04 
  66234.2145     0.70874E-04 
  66266.4766     0.72323E-04 
  66298.7388     0.73795E-04 
  66331.0010     0.75290E-04 
  66363.2631     0.76808E-04 
  66395.5253     0.78350E-04 
  66427.7874     0.79915E-04 
  66460.0496     0.81504E-04 
  66492.3118     0.83117E-04 
  66524.5739     0.84754E-04 
  66556.8361     0.86416E-04 
  66589.0982     0.88103E-04 
  66621.3604     0.89815E-04 
  66653.6226     0.91552E-04 
  66685.8847     0.93315E-04 
  66718.1469     0.95104E-04 
  66750.4090     0.96919E-04 
  66782.6712     0.98761E-04 
  66814.9334     0.10063E-03 
  66847.1955     0.10252E-03 
  66879.4577     0.10445E-03 
  66911.7198     0.10640E-03 
  66943.9820     0.10838E-03 
  66976.2442     0.11038E-03 
  67008.5063     0.11242E-03 
  67040.7685     0.11448E-03 
  67073.0306     0.11657E-03 
  67105.2928     0.11869E-03 
  67137.5550     0.12084E-03 
  67169.8171     0.12302E-03 
  67202.0793     0.12524E-03 
  67234.3414     0.12748E-03 
  67266.6036     0.12975E-03 
  67298.8658     0.13205E-03 
  67331.1279     0.13439E-03 
  67363.3901     0.13675E-03 
  67395.6522     0.13915E-03 
  67427.9144     0.14158E-03 
  67460.1766     0.14404E-03 
  67492.4387     0.14654E-03 
  67524.7009     0.14907E-03 
  67556.9630     0.15163E-03 
  67589.2252     0.15422E-03 
  67621.4874     0.15685E-03 
  67653.7495     0.15952E-03 
  67686.0117     0.16222E-03 
  67718.2738     0.16495E-03 
  67750.5360     0.16772E-03 
  67782.7982     0.17052E-03 
  67815.0603     0.17336E-03 
  67847.3225     0.17624E-03 
  67879.5846     0.17915E-03 
  67911.8468     0.18210E-03 
  67944.1090     0.18509E-03 
  67976.3711     0.18811E-03 
  68008.6333     0.19117E-03 
  68040.8954     0.19427E-03 
  68073.1576     0.19741E-03 
  68105.4198     0.20059E-03 
  68137.6819     0.20380E-03 
  68169.9441     0.20706E-03 
  68202.2062     0.21035E-03 
  68234.4684     0.21368E-03 
  68266.7306     0.21706E-03 
  68298.9927     0.22047E-03 
  68331.2549     0.22393E-03 
  68363.5170     0.22743E-03 
  68395.7792     0.23097E-03 
  68428.0414     0.23455E-03 
  68460.3035     0.23817E-03 
  68492.5657     0.24184E-03 
  68524.8278     0.24554E-03 
  68557.0900     0.24930E-03 
  68589.3522     0.25309E-03 
  68621.6143     0.25693E-03 
  68653.8765     0.26081E-03 
  68686.1386     0.26474E-03 
  68718.4008     0.26871E-03 
  68750.6630     0.27273E-03 
  68782.9251     0.27679E-03 
  68815.1873     0.28090E-03 
  68847.4494     0.28505E-03 
  68879.7116     0.28925E-03 
  68911.9738     0.29350E-03 
  68944.2359     0.29780E-03 
  68976.4981     0.30214E-03 
  69008.7602     0.30653E-03 
  69041.0224     0.31096E-03 
  69073.2846     0.31545E-03 
  69105.5467     0.31998E-03 
  69137.8089     0.32456E-03 
  69170.0710     0.32920E-03 
  69202.3332     0.33388E-03 
  69234.5954     0.33861E-03 
  69266.8575     0.34339E-03 
  69299.1197     0.34822E-03 
  69331.3818     0.35310E-03 
  69363.6440     0.35804E-03 
  69395.9062     0.36302E-03 
  69428.1683     0.36806E-03 
  69460.4305     0.37315E-03 
  69492.6926     0.37829E-03 
  69524.9548     0.38348E-03 
  69557.2170     0.38873E-03 
  69589.4791     0.39403E-03 
  69621.7413     0.39938E-03 
  69654.0034     0.40479E-03 
  69686.2656     0.41025E-03 
  69718.5278     0.41576E-03 
  69750.7899     0.42133E-03 
  69783.0521     0.42696E-03 
  69815.3142     0.43264E-03 
  69847.5764     0.43837E-03 
  69879.8386     0.44416E-03 
  69912.1007     0.45001E-03 
  69944.3629     0.45591E-03 
  69976.6250     0.46187E-03 
  70008.8872     0.46789E-03 
  70041.1494     0.47396E-03 
  70073.4115     0.48009E-03 
  70105.6737     0.48628E-03 
  70137.9358     0.49253E-03 
  70170.1980     0.49884E-03 
  70202.4602     0.50520E-03 
  70234.7223     0.51162E-03 
  70266.9845     0.51810E-03 
  70299.2466     0.52464E-03 
  70331.5088     0.53124E-03 
  70363.7710     0.53790E-03 
  70396.0331     0.54462E-03 
  70428.2953     0.55140E-03 
  70460.5574     0.55824E-03 
  70492.8196     0.56514E-03 
  70525.0818     0.57211E-03 
  70557.3439     0.57913E-03 
  70589.6061     0.58621E-03 
  70621.8682     0.59336E-03 
  70654.1304     0.60057E-03 
  70686.3926     0.60784E-03 
  70718.6547     0.61517E-03 
  70750.9169     0.62256E-03 
  70783.1790     0.63002E-03 
  70815.4412     0.63754E-03 
  70847.7034     0.64512E-03 
  70879.9655     0.65277E-03 
  70912.2277     0.66048E-03 
  70944.4898     0.66825E-03 
  70976.7520     0.67608E-03 
  71009.0142     0.68399E-03 
  71041.2763     0.69195E-03 
  71073.5385     0.69998E-03 
  71105.8006     0.70807E-03 
  71138.0628     0.71623E-03 
  71170.3250     0.72445E-03 
  71202.5871     0.73274E-03 
  71234.8493     0.74109E-03 
  71267.1114     0.74951E-03 
  71299.3736     0.75799E-03 
  71331.6358     0.76654E-03 
  71363.8979     0.77515E-03 
  71396.1601     0.78383E-03 
  71428.4222     0.79258E-03 
  71460.6844     0.80139E-03 
  71492.9466     0.81027E-03 
  71525.2087     0.81921E-03 
  71557.4709     0.82822E-03 
  71589.7330     0.83729E-03 
  71621.9952     0.84644E-03 
  71654.2574     0.85564E-03 
  71686.5195     0.86492E-03 
  71718.7817     0.87426E-03 
  71751.0438     0.88367E-03 
  71783.3060     0.89314E-03 
  71815.5682     0.90269E-03 
  71847.8303     0.91229E-03 
  71880.0925     0.92197E-03 
  71912.3546     0.93171E-03 
  71944.6168     0.94152E-03 
  71976.8790     0.95140E-03 
  72009.1411     0.96134E-03 
  72041.4033     0.97135E-03 
  72073.6654     0.98143E-03 
  72105.9276     0.99158E-03 
  72138.1898     0.10018E-02 
  72170.4519     0.10121E-02 
  72202.7141     0.10224E-02 
  72234.9762     0.10328E-02 
  72267.2384     0.10433E-02 
  72299.5006     0.10539E-02 
  72331.7627     0.10645E-02 
  72364.0249     0.10751E-02 
  72396.2870     0.10859E-02 
  72428.5492     0.10967E-02 
  72460.8114     0.11076E-02 
  72493.0735     0.11185E-02 
  72525.3357     0.11296E-02 
  72557.5978     0.11406E-02 
  72589.8600     0.11518E-02 
