  32262.1600     0.89578E-01 
  32294.4222     0.90226E-01 
  32326.6843     0.90877E-01 
  32358.9465     0.91530E-01 
  32391.2086     0.92187E-01 
  32423.4708     0.92846E-01 
  32455.7330     0.93507E-01 
  32487.9951     0.94172E-01 
  32520.2573     0.94840E-01 
  32552.5194     0.95510E-01 
  32584.7816     0.96183E-01 
  32617.0438     0.96858E-01 
  32649.3059     0.97537E-01 
  32681.5681     0.98218E-01 
  32713.8302     0.98902E-01 
  32746.0924     0.99589E-01 
  32778.3546     0.10028E+00 
  32810.6167     0.10097E+00 
  32842.8789     0.10167E+00 
  32875.1410     0.10236E+00 
  32907.4032     0.10306E+00 
  32939.6654     0.10377E+00 
  32971.9275     0.10447E+00 
  33004.1897     0.10518E+00 
  33036.4518     0.10589E+00 
  33068.7140     0.10661E+00 
  33100.9762     0.10732E+00 
  33133.2383     0.10804E+00 
  33165.5005     0.10876E+00 
  33197.7626     0.10949E+00 
  33230.0248     0.11021E+00 
  33262.2870     0.11094E+00 
  33294.5491     0.11168E+00 
  33326.8113     0.11241E+00 
  33359.0734     0.11315E+00 
  33391.3356     0.11389E+00 
  33423.5978     0.11463E+00 
  33455.8599     0.11538E+00 
  33488.1221     0.11612E+00 
  33520.3842     0.11687E+00 
  33552.6464     0.11763E+00 
  33584.9086     0.11838E+00 
  33617.1707     0.11914E+00 
  33649.4329     0.11990E+00 
  33681.6950     0.12066E+00 
  33713.9572     0.12143E+00 
  33746.2194     0.12220E+00 
  33778.4815     0.12297E+00 
  33810.7437     0.12374E+00 
  33843.0058     0.12451E+00 
  33875.2680     0.12529E+00 
  33907.5302     0.12607E+00 
  33939.7923     0.12685E+00 
  33972.0545     0.12764E+00 
  34004.3166     0.12843E+00 
  34036.5788     0.12922E+00 
  34068.8410     0.13001E+00 
  34101.1031     0.13080E+00 
  34133.3653     0.13160E+00 
  34165.6274     0.13240E+00 
  34197.8896     0.13320E+00 
  34230.1518     0.13400E+00 
  34262.4139     0.13481E+00 
  34294.6761     0.13561E+00 
  34326.9382     0.13643E+00 
  34359.2004     0.13724E+00 
  34391.4626     0.13805E+00 
  34423.7247     0.13887E+00 
  34455.9869     0.13969E+00 
  34488.2490     0.14051E+00 
  34520.5112     0.14133E+00 
  34552.7734     0.14216E+00 
  34585.0355     0.14298E+00 
  34617.2977     0.14381E+00 
  34649.5598     0.14465E+00 
  34681.8220     0.14548E+00 
  34714.0842     0.14632E+00 
  34746.3463     0.14715E+00 
  34778.6085     0.14799E+00 
  34810.8706     0.14883E+00 
  34843.1328     0.14968E+00 
  34875.3950     0.15052E+00 
  34907.6571     0.15137E+00 
  34939.9193     0.15222E+00 
  34972.1814     0.15307E+00 
  35004.4436     0.15393E+00 
  35036.7058     0.15478E+00 
  35068.9679     0.15564E+00 
  35101.2301     0.15650E+00 
  35133.4922     0.15736E+00 
  35165.7544     0.15822E+00 
  35198.0166     0.15909E+00 
  35230.2787     0.15995E+00 
  35262.5409     0.16082E+00 
  35294.8030     0.16169E+00 
  35327.0652     0.16256E+00 
  35359.3274     0.16344E+00 
  35391.5895     0.16431E+00 
  35423.8517     0.16519E+00 
  35456.1138     0.16607E+00 
  35488.3760     0.16694E+00 
  35520.6382     0.16783E+00 
  35552.9003     0.16871E+00 
  35585.1625     0.16959E+00 
  35617.4246     0.17048E+00 
  35649.6868     0.17137E+00 
  35681.9490     0.17226E+00 
  35714.2111     0.17315E+00 
  35746.4733     0.17404E+00 
  35778.7354     0.17493E+00 
  35810.9976     0.17583E+00 
  35843.2598     0.17672E+00 
  35875.5219     0.17762E+00 
  35907.7841     0.17852E+00 
  35940.0462     0.17942E+00 
  35972.3084     0.18032E+00 
  36004.5706     0.18122E+00 
  36036.8327     0.18213E+00 
  36069.0949     0.18303E+00 
  36101.3570     0.18394E+00 
  36133.6192     0.18485E+00 
  36165.8814     0.18576E+00 
  36198.1435     0.18667E+00 
  36230.4057     0.18758E+00 
  36262.6678     0.18849E+00 
  36294.9300     0.18940E+00 
  36327.1922     0.19032E+00 
  36359.4543     0.19123E+00 
  36391.7165     0.19215E+00 
  36423.9786     0.19306E+00 
  36456.2408     0.19398E+00 
  36488.5030     0.19490E+00 
  36520.7651     0.19582E+00 
  36553.0273     0.19674E+00 
  36585.2894     0.19766E+00 
  36617.5516     0.19859E+00 
  36649.8138     0.19951E+00 
  36682.0759     0.20043E+00 
  36714.3381     0.20136E+00 
  36746.6002     0.20228E+00 
  36778.8624     0.20321E+00 
  36811.1246     0.20414E+00 
  36843.3867     0.20507E+00 
  36875.6489     0.20599E+00 
  36907.9110     0.20692E+00 
  36940.1732     0.20785E+00 
  36972.4354     0.20878E+00 
  37004.6975     0.20971E+00 
  37036.9597     0.21064E+00 
  37069.2218     0.21157E+00 
  37101.4840     0.21251E+00 
  37133.7462     0.21344E+00 
  37166.0083     0.21437E+00 
  37198.2705     0.21530E+00 
  37230.5326     0.21624E+00 
  37262.7948     0.21717E+00 
  37295.0570     0.21811E+00 
  37327.3191     0.21904E+00 
  37359.5813     0.21997E+00 
  37391.8434     0.22091E+00 
  37424.1056     0.22184E+00 
  37456.3678     0.22278E+00 
  37488.6299     0.22371E+00 
  37520.8921     0.22465E+00 
  37553.1542     0.22558E+00 
  37585.4164     0.22652E+00 
  37617.6786     0.22745E+00 
  37649.9407     0.22839E+00 
  37682.2029     0.22932E+00 
  37714.4650     0.23026E+00 
  37746.7272     0.23119E+00 
  37778.9894     0.23213E+00 
  37811.2515     0.23306E+00 
  37843.5137     0.23400E+00 
  37875.7758     0.23493E+00 
  37908.0380     0.23587E+00 
  37940.3002     0.23680E+00 
  37972.5623     0.23773E+00 
  38004.8245     0.23867E+00 
  38037.0866     0.23960E+00 
  38069.3488     0.24053E+00 
  38101.6110     0.24146E+00 
  38133.8731     0.24240E+00 
  38166.1353     0.24333E+00 
  38198.3974     0.24426E+00 
  38230.6596     0.24519E+00 
  38262.9218     0.24612E+00 
  38295.1839     0.24705E+00 
  38327.4461     0.24797E+00 
  38359.7082     0.24890E+00 
  38391.9704     0.24983E+00 
  38424.2326     0.25075E+00 
  38456.4947     0.25168E+00 
  38488.7569     0.25260E+00 
  38521.0190     0.25353E+00 
  38553.2812     0.25445E+00 
  38585.5434     0.25537E+00 
  38617.8055     0.25630E+00 
  38650.0677     0.25722E+00 
  38682.3298     0.25814E+00 
  38714.5920     0.25905E+00 
  38746.8542     0.25997E+00 
  38779.1163     0.26089E+00 
  38811.3785     0.26180E+00 
  38843.6406     0.26272E+00 
  38875.9028     0.26363E+00 
  38908.1650     0.26454E+00 
  38940.4271     0.26545E+00 
  38972.6893     0.26636E+00 
  39004.9514     0.26727E+00 
  39037.2136     0.26818E+00 
  39069.4758     0.26908E+00 
  39101.7379     0.26999E+00 
  39134.0001     0.27089E+00 
  39166.2622     0.27179E+00 
  39198.5244     0.27269E+00 
  39230.7866     0.27359E+00 
  39263.0487     0.27449E+00 
  39295.3109     0.27539E+00 
  39327.5730     0.27628E+00 
  39359.8352     0.27717E+00 
  39392.0974     0.27806E+00 
  39424.3595     0.27895E+00 
  39456.6217     0.27984E+00 
  39488.8838     0.28073E+00 
  39521.1460     0.28161E+00 
  39553.4082     0.28249E+00 
  39585.6703     0.28338E+00 
  39617.9325     0.28425E+00 
  39650.1946     0.28513E+00 
  39682.4568     0.28601E+00 
  39714.7190     0.28688E+00 
  39746.9811     0.28775E+00 
  39779.2433     0.28862E+00 
  39811.5054     0.28949E+00 
  39843.7676     0.29036E+00 
  39876.0298     0.29122E+00 
  39908.2919     0.29208E+00 
  39940.5541     0.29294E+00 
  39972.8162     0.29380E+00 
  40005.0784     0.29465E+00 
  40037.3406     0.29551E+00 
  40069.6027     0.29636E+00 
  40101.8649     0.29720E+00 
  40134.1270     0.29805E+00 
  40166.3892     0.29889E+00 
  40198.6514     0.29974E+00 
  40230.9135     0.30058E+00 
  40263.1757     0.30141E+00 
  40295.4378     0.30225E+00 
  40327.7000     0.30308E+00 
  40359.9622     0.30391E+00 
  40392.2243     0.30473E+00 
  40424.4865     0.30556E+00 
  40456.7486     0.30638E+00 
  40489.0108     0.30720E+00 
  40521.2730     0.30802E+00 
  40553.5351     0.30883E+00 
  40585.7973     0.30964E+00 
  40618.0594     0.31045E+00 
  40650.3216     0.31126E+00 
  40682.5838     0.31206E+00 
  40714.8459     0.31286E+00 
  40747.1081     0.31366E+00 
  40779.3702     0.31445E+00 
  40811.6324     0.31524E+00 
  40843.8946     0.31603E+00 
  40876.1567     0.31682E+00 
  40908.4189     0.31760E+00 
  40940.6810     0.31838E+00 
  40972.9432     0.31916E+00 
  41005.2054     0.31993E+00 
  41037.4675     0.32070E+00 
  41069.7297     0.32147E+00 
  41101.9918     0.32224E+00 
  41134.2540     0.32300E+00 
  41166.5162     0.32375E+00 
  41198.7783     0.32451E+00 
  41231.0405     0.32526E+00 
  41263.3026     0.32601E+00 
  41295.5648     0.32676E+00 
  41327.8270     0.32750E+00 
  41360.0891     0.32824E+00 
  41392.3513     0.32897E+00 
  41424.6134     0.32970E+00 
  41456.8756     0.33043E+00 
  41489.1378     0.33116E+00 
  41521.3999     0.33188E+00 
  41553.6621     0.33260E+00 
  41585.9242     0.33331E+00 
  41618.1864     0.33402E+00 
  41650.4486     0.33473E+00 
  41682.7107     0.33543E+00 
  41714.9729     0.33613E+00 
  41747.2350     0.33683E+00 
  41779.4972     0.33752E+00 
  41811.7594     0.33821E+00 
  41844.0215     0.33890E+00 
  41876.2837     0.33958E+00 
  41908.5458     0.34026E+00 
  41940.8080     0.34093E+00 
  41973.0702     0.34160E+00 
  42005.3323     0.34227E+00 
  42037.5945     0.34293E+00 
  42069.8566     0.34359E+00 
  42102.1188     0.34425E+00 
  42134.3810     0.34490E+00 
  42166.6431     0.34554E+00 
  42198.9053     0.34619E+00 
  42231.1674     0.34683E+00 
  42263.4296     0.34746E+00 
  42295.6918     0.34809E+00 
  42327.9539     0.34872E+00 
  42360.2161     0.34934E+00 
  42392.4782     0.34996E+00 
  42424.7404     0.35058E+00 
  42457.0026     0.35119E+00 
  42489.2647     0.35179E+00 
  42521.5269     0.35239E+00 
  42553.7890     0.35299E+00 
  42586.0512     0.35359E+00 
  42618.3134     0.35418E+00 
  42650.5755     0.35476E+00 
  42682.8377     0.35534E+00 
  42715.0998     0.35592E+00 
  42747.3620     0.35649E+00 
  42779.6242     0.35706E+00 
  42811.8863     0.35762E+00 
  42844.1485     0.35818E+00 
  42876.4106     0.35873E+00 
  42908.6728     0.35928E+00 
  42940.9350     0.35983E+00 
  42973.1971     0.36037E+00 
  43005.4593     0.36091E+00 
  43037.7214     0.36144E+00 
  43069.9836     0.36197E+00 
  43102.2458     0.36249E+00 
  43134.5079     0.36301E+00 
  43166.7701     0.36352E+00 
  43199.0322     0.36403E+00 
  43231.2944     0.36454E+00 
  43263.5566     0.36504E+00 
  43295.8187     0.36553E+00 
  43328.0809     0.36602E+00 
  43360.3430     0.36651E+00 
  43392.6052     0.36699E+00 
  43424.8674     0.36747E+00 
  43457.1295     0.36794E+00 
  43489.3917     0.36840E+00 
  43521.6538     0.36887E+00 
  43553.9160     0.36932E+00 
  43586.1782     0.36978E+00 
  43618.4403     0.37022E+00 
  43650.7025     0.37067E+00 
  43682.9646     0.37110E+00 
  43715.2268     0.37154E+00 
  43747.4890     0.37197E+00 
  43779.7511     0.37239E+00 
  43812.0133     0.37281E+00 
  43844.2754     0.37322E+00 
  43876.5376     0.37363E+00 
  43908.7998     0.37403E+00 
  43941.0619     0.37443E+00 
  43973.3241     0.37482E+00 
  44005.5862     0.37521E+00 
  44037.8484     0.37559E+00 
  44070.1106     0.37597E+00 
  44102.3727     0.37635E+00 
  44134.6349     0.37671E+00 
  44166.8970     0.37708E+00 
  44199.1592     0.37744E+00 
  44231.4214     0.37779E+00 
  44263.6835     0.37814E+00 
  44295.9457     0.37848E+00 
  44328.2078     0.37882E+00 
  44360.4700     0.37915E+00 
  44392.7322     0.37948E+00 
  44424.9943     0.37980E+00 
  44457.2565     0.38011E+00 
  44489.5186     0.38043E+00 
  44521.7808     0.38073E+00 
  44554.0430     0.38103E+00 
  44586.3051     0.38133E+00 
  44618.5673     0.38162E+00 
  44650.8294     0.38191E+00 
  44683.0916     0.38219E+00 
  44715.3538     0.38246E+00 
  44747.6159     0.38273E+00 
  44779.8781     0.38300E+00 
  44812.1402     0.38325E+00 
  44844.4024     0.38351E+00 
  44876.6646     0.38376E+00 
  44908.9267     0.38400E+00 
  44941.1889     0.38424E+00 
  44973.4510     0.38447E+00 
  45005.7132     0.38470E+00 
  45037.9754     0.38492E+00 
  45070.2375     0.38514E+00 
  45102.4997     0.38535E+00 
  45134.7618     0.38555E+00 
  45167.0240     0.38575E+00 
  45199.2862     0.38595E+00 
  45231.5483     0.38614E+00 
  45263.8105     0.38632E+00 
  45296.0726     0.38650E+00 
  45328.3348     0.38667E+00 
  45360.5970     0.38684E+00 
  45392.8591     0.38701E+00 
  45425.1213     0.38716E+00 
  45457.3834     0.38731E+00 
  45489.6456     0.38746E+00 
  45521.9078     0.38760E+00 
  45554.1699     0.38774E+00 
  45586.4321     0.38787E+00 
  45618.6942     0.38799E+00 
  45650.9564     0.38811E+00 
  45683.2186     0.38822E+00 
  45715.4807     0.38833E+00 
  45747.7429     0.38844E+00 
  45780.0050     0.38853E+00 
  45812.2672     0.38862E+00 
  45844.5294     0.38871E+00 
  45876.7915     0.38879E+00 
  45909.0537     0.38887E+00 
  45941.3158     0.38894E+00 
  45973.5780     0.38900E+00 
  46005.8402     0.38906E+00 
  46038.1023     0.38911E+00 
  46070.3645     0.38916E+00 
  46102.6266     0.38921E+00 
  46134.8888     0.38924E+00 
  46167.1510     0.38927E+00 
  46199.4131     0.38930E+00 
  46231.6753     0.38932E+00 
  46263.9374     0.38934E+00 
  46296.1996     0.38935E+00 
  46328.4618     0.38935E+00 
  46360.7239     0.38935E+00 
  46392.9861     0.38934E+00 
  46425.2482     0.38933E+00 
  46457.5104     0.38931E+00 
  46489.7726     0.38929E+00 
  46522.0347     0.38926E+00 
  46554.2969     0.38923E+00 
  46586.5590     0.38919E+00 
  46618.8212     0.38914E+00 
  46651.0834     0.38909E+00 
  46683.3455     0.38904E+00 
  46715.6077     0.38898E+00 
  46747.8698     0.38891E+00 
  46780.1320     0.38884E+00 
  46812.3942     0.38876E+00 
  46844.6563     0.38868E+00 
  46876.9185     0.38859E+00 
  46909.1806     0.38849E+00 
  46941.4428     0.38839E+00 
  46973.7050     0.38829E+00 
  47005.9671     0.38818E+00 
  47038.2293     0.38806E+00 
  47070.4914     0.38794E+00 
  47102.7536     0.38782E+00 
  47135.0158     0.38768E+00 
  47167.2779     0.38755E+00 
  47199.5401     0.38741E+00 
  47231.8022     0.38726E+00 
  47264.0644     0.38710E+00 
  47296.3266     0.38695E+00 
  47328.5887     0.38678E+00 
  47360.8509     0.38661E+00 
  47393.1130     0.38644E+00 
  47425.3752     0.38626E+00 
  47457.6374     0.38607E+00 
  47489.8995     0.38588E+00 
  47522.1617     0.38569E+00 
  47554.4238     0.38549E+00 
  47586.6860     0.38528E+00 
  47618.9482     0.38507E+00 
  47651.2103     0.38485E+00 
  47683.4725     0.38463E+00 
  47715.7346     0.38440E+00 
  47747.9968     0.38417E+00 
  47780.2590     0.38393E+00 
  47812.5211     0.38369E+00 
  47844.7833     0.38344E+00 
  47877.0454     0.38318E+00 
  47909.3076     0.38293E+00 
  47941.5698     0.38266E+00 
  47973.8319     0.38239E+00 
  48006.0941     0.38212E+00 
  48038.3562     0.38184E+00 
  48070.6184     0.38155E+00 
  48102.8806     0.38126E+00 
  48135.1427     0.38097E+00 
  48167.4049     0.38067E+00 
  48199.6670     0.38036E+00 
  48231.9292     0.38005E+00 
  48264.1914     0.37974E+00 
  48296.4535     0.37942E+00 
  48328.7157     0.37909E+00 
  48360.9778     0.37876E+00 
  48393.2400     0.37843E+00 
  48425.5022     0.37809E+00 
  48457.7643     0.37774E+00 
  48490.0265     0.37739E+00 
  48522.2886     0.37704E+00 
  48554.5508     0.37668E+00 
  48586.8130     0.37631E+00 
  48619.0751     0.37594E+00 
  48651.3373     0.37556E+00 
  48683.5994     0.37518E+00 
  48715.8616     0.37480E+00 
  48748.1238     0.37441E+00 
  48780.3859     0.37402E+00 
  48812.6481     0.37362E+00 
  48844.9102     0.37321E+00 
  48877.1724     0.37280E+00 
  48909.4346     0.37239E+00 
  48941.6967     0.37197E+00 
  48973.9589     0.37155E+00 
  49006.2210     0.37112E+00 
  49038.4832     0.37069E+00 
  49070.7454     0.37025E+00 
  49103.0075     0.36981E+00 
  49135.2697     0.36936E+00 
  49167.5318     0.36891E+00 
  49199.7940     0.36845E+00 
  49232.0562     0.36799E+00 
  49264.3183     0.36752E+00 
  49296.5805     0.36705E+00 
  49328.8426     0.36658E+00 
  49361.1048     0.36610E+00 
  49393.3670     0.36562E+00 
  49425.6291     0.36513E+00 
  49457.8913     0.36464E+00 
  49490.1534     0.36414E+00 
  49522.4156     0.36364E+00 
  49554.6778     0.36313E+00 
  49586.9399     0.36262E+00 
  49619.2021     0.36210E+00 
  49651.4642     0.36159E+00 
  49683.7264     0.36106E+00 
  49715.9886     0.36053E+00 
  49748.2507     0.36000E+00 
  49780.5129     0.35946E+00 
  49812.7750     0.35892E+00 
  49845.0372     0.35838E+00 
  49877.2994     0.35783E+00 
  49909.5615     0.35727E+00 
  49941.8237     0.35672E+00 
  49974.0858     0.35615E+00 
  50006.3480     0.35559E+00 
  50038.6102     0.35502E+00 
  50070.8723     0.35444E+00 
  50103.1345     0.35386E+00 
  50135.3966     0.35328E+00 
  50167.6588     0.35269E+00 
  50199.9210     0.35210E+00 
  50232.1831     0.35151E+00 
  50264.4453     0.35091E+00 
  50296.7074     0.35030E+00 
  50328.9696     0.34970E+00 
  50361.2318     0.34908E+00 
  50393.4939     0.34847E+00 
  50425.7561     0.34785E+00 
  50458.0182     0.34723E+00 
  50490.2804     0.34660E+00 
  50522.5426     0.34597E+00 
  50554.8047     0.34534E+00 
  50587.0669     0.34470E+00 
  50619.3290     0.34406E+00 
  50651.5912     0.34341E+00 
  50683.8534     0.34276E+00 
  50716.1155     0.34211E+00 
  50748.3777     0.34145E+00 
  50780.6398     0.34079E+00 
  50812.9020     0.34013E+00 
  50845.1642     0.33946E+00 
  50877.4263     0.33879E+00 
  50909.6885     0.33811E+00 
  50941.9506     0.33744E+00 
  50974.2128     0.33675E+00 
  51006.4750     0.33607E+00 
  51038.7371     0.33538E+00 
  51070.9993     0.33469E+00 
  51103.2614     0.33399E+00 
  51135.5236     0.33329E+00 
  51167.7858     0.33259E+00 
  51200.0479     0.33189E+00 
  51232.3101     0.33118E+00 
  51264.5722     0.33046E+00 
  51296.8344     0.32975E+00 
  51329.0966     0.32903E+00 
  51361.3587     0.32831E+00 
  51393.6209     0.32758E+00 
  51425.8830     0.32686E+00 
  51458.1452     0.32612E+00 
  51490.4074     0.32539E+00 
  51522.6695     0.32465E+00 
  51554.9317     0.32391E+00 
  51587.1938     0.32317E+00 
  51619.4560     0.32242E+00 
  51651.7182     0.32167E+00 
  51683.9803     0.32092E+00 
  51716.2425     0.32016E+00 
  51748.5046     0.31941E+00 
  51780.7668     0.31864E+00 
  51813.0290     0.31788E+00 
  51845.2911     0.31711E+00 
  51877.5533     0.31634E+00 
  51909.8154     0.31557E+00 
  51942.0776     0.31480E+00 
  51974.3398     0.31402E+00 
  52006.6019     0.31324E+00 
  52038.8641     0.31246E+00 
  52071.1262     0.31167E+00 
  52103.3884     0.31088E+00 
  52135.6506     0.31009E+00 
  52167.9127     0.30930E+00 
  52200.1749     0.30850E+00 
  52232.4370     0.30770E+00 
  52264.6992     0.30690E+00 
  52296.9614     0.30610E+00 
  52329.2235     0.30529E+00 
  52361.4857     0.30449E+00 
  52393.7478     0.30368E+00 
  52426.0100     0.30286E+00 
  52458.2722     0.30205E+00 
  52490.5343     0.30123E+00 
  52522.7965     0.30041E+00 
  52555.0586     0.29959E+00 
  52587.3208     0.29877E+00 
  52619.5830     0.29794E+00 
  52651.8451     0.29711E+00 
  52684.1073     0.29628E+00 
  52716.3694     0.29545E+00 
  52748.6316     0.29462E+00 
  52780.8938     0.29378E+00 
  52813.1559     0.29294E+00 
  52845.4181     0.29210E+00 
  52877.6802     0.29126E+00 
  52909.9424     0.29042E+00 
  52942.2046     0.28957E+00 
  52974.4667     0.28873E+00 
  53006.7289     0.28788E+00 
  53038.9910     0.28703E+00 
  53071.2532     0.28618E+00 
  53103.5154     0.28532E+00 
  53135.7775     0.28447E+00 
  53168.0397     0.28361E+00 
  53200.3018     0.28275E+00 
  53232.5640     0.28189E+00 
  53264.8262     0.28103E+00 
  53297.0883     0.28017E+00 
  53329.3505     0.27930E+00 
  53361.6126     0.27844E+00 
  53393.8748     0.27757E+00 
  53426.1370     0.27670E+00 
  53458.3991     0.27583E+00 
  53490.6613     0.27496E+00 
  53522.9234     0.27409E+00 
  53555.1856     0.27321E+00 
  53587.4478     0.27234E+00 
  53619.7099     0.27146E+00 
  53651.9721     0.27059E+00 
  53684.2342     0.26971E+00 
  53716.4964     0.26883E+00 
  53748.7586     0.26795E+00 
  53781.0207     0.26707E+00 
  53813.2829     0.26619E+00 
  53845.5450     0.26531E+00 
  53877.8072     0.26442E+00 
  53910.0694     0.26354E+00 
  53942.3315     0.26265E+00 
  53974.5937     0.26177E+00 
  54006.8558     0.26088E+00 
  54039.1180     0.25999E+00 
  54071.3802     0.25910E+00 
  54103.6423     0.25822E+00 
  54135.9045     0.25733E+00 
  54168.1666     0.25644E+00 
  54200.4288     0.25555E+00 
  54232.6910     0.25466E+00 
  54264.9531     0.25377E+00 
  54297.2153     0.25287E+00 
  54329.4774     0.25198E+00 
  54361.7396     0.25109E+00 
  54394.0018     0.25020E+00 
  54426.2639     0.24931E+00 
  54458.5261     0.24841E+00 
  54490.7882     0.24752E+00 
  54523.0504     0.24663E+00 
  54555.3126     0.24573E+00 
  54587.5747     0.24484E+00 
  54619.8369     0.24395E+00 
  54652.0990     0.24306E+00 
  54684.3612     0.24216E+00 
  54716.6234     0.24127E+00 
  54748.8855     0.24038E+00 
  54781.1477     0.23948E+00 
  54813.4098     0.23859E+00 
  54845.6720     0.23770E+00 
  54877.9342     0.23681E+00 
  54910.1963     0.23592E+00 
  54942.4585     0.23502E+00 
  54974.7206     0.23413E+00 
  55006.9828     0.23324E+00 
  55039.2450     0.23235E+00 
  55071.5071     0.23146E+00 
  55103.7693     0.23058E+00 
  55136.0314     0.22969E+00 
  55168.2936     0.22880E+00 
  55200.5558     0.22791E+00 
  55232.8179     0.22703E+00 
  55265.0801     0.22614E+00 
  55297.3422     0.22526E+00 
  55329.6044     0.22438E+00 
  55361.8666     0.22349E+00 
  55394.1287     0.22261E+00 
  55426.3909     0.22173E+00 
  55458.6530     0.22085E+00 
  55490.9152     0.21997E+00 
  55523.1774     0.21910E+00 
  55555.4395     0.21822E+00 
  55587.7017     0.21735E+00 
  55619.9638     0.21647E+00 
  55652.2260     0.21560E+00 
  55684.4882     0.21473E+00 
  55716.7503     0.21386E+00 
  55749.0125     0.21299E+00 
  55781.2746     0.21212E+00 
  55813.5368     0.21126E+00 
  55845.7990     0.21040E+00 
  55878.0611     0.20953E+00 
  55910.3233     0.20867E+00 
  55942.5854     0.20781E+00 
  55974.8476     0.20696E+00 
  56007.1098     0.20610E+00 
  56039.3719     0.20525E+00 
  56071.6341     0.20440E+00 
  56103.8962     0.20355E+00 
  56136.1584     0.20270E+00 
  56168.4206     0.20186E+00 
  56200.6827     0.20101E+00 
  56232.9449     0.20017E+00 
  56265.2070     0.19933E+00 
  56297.4692     0.19850E+00 
  56329.7314     0.19766E+00 
  56361.9935     0.19683E+00 
  56394.2557     0.19600E+00 
  56426.5178     0.19517E+00 
  56458.7800     0.19435E+00 
  56491.0422     0.19353E+00 
  56523.3043     0.19271E+00 
  56555.5665     0.19189E+00 
  56587.8286     0.19107E+00 
  56620.0908     0.19026E+00 
  56652.3530     0.18945E+00 
  56684.6151     0.18865E+00 
  56716.8773     0.18784E+00 
  56749.1394     0.18704E+00 
  56781.4016     0.18625E+00 
  56813.6638     0.18545E+00 
  56845.9259     0.18466E+00 
  56878.1881     0.18387E+00 
  56910.4502     0.18309E+00 
  56942.7124     0.18231E+00 
  56974.9746     0.18153E+00 
  57007.2367     0.18075E+00 
  57039.4989     0.17998E+00 
  57071.7610     0.17921E+00 
  57104.0232     0.17845E+00 
  57136.2854     0.17769E+00 
  57168.5475     0.17693E+00 
  57200.8097     0.17618E+00 
  57233.0718     0.17543E+00 
  57265.3340     0.17468E+00 
  57297.5962     0.17394E+00 
  57329.8583     0.17320E+00 
  57362.1205     0.17247E+00 
  57394.3826     0.17174E+00 
  57426.6448     0.17101E+00 
  57458.9070     0.17029E+00 
  57491.1691     0.16957E+00 
  57523.4313     0.16886E+00 
  57555.6934     0.16815E+00 
  57587.9556     0.16744E+00 
  57620.2178     0.16674E+00 
  57652.4799     0.16605E+00 
  57684.7421     0.16536E+00 
  57717.0042     0.16467E+00 
  57749.2664     0.16399E+00 
  57781.5286     0.16331E+00 
  57813.7907     0.16264E+00 
  57846.0529     0.16197E+00 
  57878.3150     0.16131E+00 
  57910.5772     0.16065E+00 
  57942.8394     0.16000E+00 
  57975.1015     0.15935E+00 
  58007.3637     0.15871E+00 
  58039.6258     0.15807E+00 
  58071.8880     0.15744E+00 
  58104.1502     0.15681E+00 
  58136.4123     0.15619E+00 
  58168.6745     0.15558E+00 
  58200.9366     0.15497E+00 
  58233.1988     0.15436E+00 
  58265.4610     0.15377E+00 
  58297.7231     0.15317E+00 
  58329.9853     0.15259E+00 
  58362.2474     0.15201E+00 
  58394.5096     0.15143E+00 
  58426.7718     0.15086E+00 
  58459.0339     0.15030E+00 
  58491.2961     0.14974E+00 
  58523.5582     0.14919E+00 
  58555.8204     0.14865E+00 
  58588.0826     0.14811E+00 
  58620.3447     0.14758E+00 
  58652.6069     0.14706E+00 
  58684.8690     0.14654E+00 
  58717.1312     0.14603E+00 
  58749.3934     0.14552E+00 
  58781.6555     0.14503E+00 
  58813.9177     0.14454E+00 
  58846.1798     0.14405E+00 
  58878.4420     0.14358E+00 
  58910.7042     0.14311E+00 
  58942.9663     0.14265E+00 
  58975.2285     0.14219E+00 
  59007.4906     0.14174E+00 
  59039.7528     0.14130E+00 
  59072.0150     0.14087E+00 
  59104.2771     0.14045E+00 
  59136.5393     0.14003E+00 
  59168.8014     0.13962E+00 
  59201.0636     0.13922E+00 
  59233.3258     0.13882E+00 
  59265.5879     0.13844E+00 
  59297.8501     0.13806E+00 
  59330.1122     0.13769E+00 
  59362.3744     0.13733E+00 
  59394.6366     0.13698E+00 
  59426.8987     0.13663E+00 
  59459.1609     0.13630E+00 
  59491.4230     0.13597E+00 
  59523.6852     0.13565E+00 
  59555.9474     0.13534E+00 
  59588.2095     0.13504E+00 
  59620.4717     0.13475E+00 
  59652.7338     0.13446E+00 
  59684.9960     0.13419E+00 
  59717.2582     0.13392E+00 
  59749.5203     0.13367E+00 
  59781.7825     0.13342E+00 
  59814.0446     0.13318E+00 
  59846.3068     0.13296E+00 
  59878.5690     0.13274E+00 
  59910.8311     0.13253E+00 
  59943.0933     0.13233E+00 
  59975.3554     0.13214E+00 
  60007.6176     0.13196E+00 
  60039.8798     0.13179E+00 
  60072.1419     0.13163E+00 
  60104.4041     0.13148E+00 
  60136.6662     0.13135E+00 
  60168.9284     0.13122E+00 
  60201.1906     0.13110E+00 
  60233.4527     0.13099E+00 
  60265.7149     0.13090E+00 
  60297.9770     0.13081E+00 
  60330.2392     0.13074E+00 
  60362.5014     0.13067E+00 
  60394.7635     0.13062E+00 
  60427.0257     0.13058E+00 
  60459.2878     0.13055E+00 
  60491.5500     0.13053E+00 
  60523.8122     0.13052E+00 
  60556.0743     0.13052E+00 
  60588.3365     0.13054E+00 
  60620.5986     0.13057E+00 
  60652.8608     0.13061E+00 
  60685.1230     0.13066E+00 
  60717.3851     0.13072E+00 
  60749.6473     0.13079E+00 
  60781.9094     0.13088E+00 
  60814.1716     0.13098E+00 
  60846.4338     0.13109E+00 
  60878.6959     0.13122E+00 
  60910.9581     0.13135E+00 
  60943.2202     0.13150E+00 
  60975.4824     0.13167E+00 
  61007.7446     0.13184E+00 
  61040.0067     0.13203E+00 
  61072.2689     0.13223E+00 
  61104.5310     0.13245E+00 
  61136.7932     0.13267E+00 
  61169.0554     0.13291E+00 
  61201.3175     0.13317E+00 
  61233.5797     0.13344E+00 
  61265.8418     0.13372E+00 
  61298.1040     0.13402E+00 
  61330.3662     0.13433E+00 
  61362.6283     0.13465E+00 
  61394.8905     0.13499E+00 
  61427.1526     0.13534E+00 
  61459.4148     0.13571E+00 
  61491.6770     0.13609E+00 
  61523.9391     0.13649E+00 
  61556.2013     0.13690E+00 
  61588.4634     0.13732E+00 
  61620.7256     0.13777E+00 
  61652.9878     0.13822E+00 
  61685.2499     0.13869E+00 
  61717.5121     0.13918E+00 
  61749.7742     0.13968E+00 
  61782.0364     0.14020E+00 
  61814.2986     0.14073E+00 
  61846.5607     0.14128E+00 
  61878.8229     0.14184E+00 
  61911.0850     0.14242E+00 
  61943.3472     0.14302E+00 
  61975.6094     0.14363E+00 
  62007.8715     0.14426E+00 
  62040.1337     0.14491E+00 
  62072.3958     0.14557E+00 
  62104.6580     0.14625E+00 
  62136.9202     0.14694E+00 
  62169.1823     0.14766E+00 
  62201.4445     0.14839E+00 
  62233.7066     0.14913E+00 
  62265.9688     0.14990E+00 
  62298.2310     0.15068E+00 
  62330.4931     0.15148E+00 
  62362.7553     0.15229E+00 
  62395.0174     0.15313E+00 
  62427.2796     0.15398E+00 
  62459.5418     0.15485E+00 
  62491.8039     0.15574E+00 
  62524.0661     0.15664E+00 
  62556.3282     0.15757E+00 
  62588.5904     0.15851E+00 
  62620.8526     0.15947E+00 
  62653.1147     0.16045E+00 
  62685.3769     0.16145E+00 
  62717.6390     0.16247E+00 
  62749.9012     0.16351E+00 
  62782.1634     0.16457E+00 
  62814.4255     0.16564E+00 
  62846.6877     0.16674E+00 
  62878.9498     0.16785E+00 
  62911.2120     0.16899E+00 
  62943.4742     0.17014E+00 
  62975.7363     0.17132E+00 
  63007.9985     0.17251E+00 
  63040.2606     0.17372E+00 
  63072.5228     0.17496E+00 
  63104.7850     0.17622E+00 
  63137.0471     0.17749E+00 
  63169.3093     0.17879E+00 
  63201.5714     0.18011E+00 
  63233.8336     0.18145E+00 
  63266.0958     0.18281E+00 
  63298.3579     0.18419E+00 
  63330.6201     0.18559E+00 
  63362.8822     0.18701E+00 
  63395.1444     0.18846E+00 
  63427.4066     0.18993E+00 
  63459.6687     0.19142E+00 
  63491.9309     0.19293E+00 
  63524.1930     0.19446E+00 
  63556.4552     0.19602E+00 
  63588.7174     0.19760E+00 
  63620.9795     0.19920E+00 
  63653.2417     0.20082E+00 
  63685.5038     0.20247E+00 
  63717.7660     0.20414E+00 
  63750.0282     0.20583E+00 
  63782.2903     0.20754E+00 
  63814.5525     0.20928E+00 
  63846.8146     0.21105E+00 
  63879.0768     0.21283E+00 
  63911.3390     0.21464E+00 
  63943.6011     0.21648E+00 
  63975.8633     0.21833E+00 
  64008.1254     0.22022E+00 
  64040.3876     0.22212E+00 
  64072.6498     0.22405E+00 
  64104.9119     0.22601E+00 
  64137.1741     0.22799E+00 
  64169.4362     0.22999E+00 
  64201.6984     0.23202E+00 
  64233.9606     0.23408E+00 
  64266.2227     0.23616E+00 
  64298.4849     0.23826E+00 
  64330.7470     0.24039E+00 
  64363.0092     0.24255E+00 
  64395.2714     0.24473E+00 
  64427.5335     0.24694E+00 
  64459.7957     0.24917E+00 
  64492.0578     0.25143E+00 
  64524.3200     0.25372E+00 
  64556.5822     0.25603E+00 
  64588.8443     0.25837E+00 
  64621.1065     0.26074E+00 
  64653.3686     0.26313E+00 
  64685.6308     0.26555E+00 
  64717.8930     0.26799E+00 
  64750.1551     0.27047E+00 
  64782.4173     0.27297E+00 
  64814.6794     0.27550E+00 
  64846.9416     0.27805E+00 
  64879.2038     0.28064E+00 
  64911.4659     0.28325E+00 
  64943.7281     0.28589E+00 
  64975.9902     0.28856E+00 
  65008.2524     0.29125E+00 
  65040.5146     0.29398E+00 
  65072.7767     0.29673E+00 
  65105.0389     0.29951E+00 
  65137.3010     0.30233E+00 
  65169.5632     0.30516E+00 
  65201.8254     0.30803E+00 
  65234.0875     0.31093E+00 
  65266.3497     0.31386E+00 
  65298.6118     0.31682E+00 
  65330.8740     0.31980E+00 
  65363.1362     0.32282E+00 
  65395.3983     0.32586E+00 
  65427.6605     0.32894E+00 
  65459.9226     0.33204E+00 
  65492.1848     0.33518E+00 
  65524.4470     0.33835E+00 
  65556.7091     0.34154E+00 
  65588.9713     0.34477E+00 
  65621.2334     0.34803E+00 
  65653.4956     0.35132E+00 
  65685.7578     0.35464E+00 
  65718.0199     0.35799E+00 
  65750.2821     0.36137E+00 
  65782.5442     0.36479E+00 
  65814.8064     0.36823E+00 
  65847.0686     0.37171E+00 
  65879.3307     0.37522E+00 
  65911.5929     0.37876E+00 
  65943.8550     0.38233E+00 
  65976.1172     0.38594E+00 
  66008.3794     0.38957E+00 
  66040.6415     0.39324E+00 
  66072.9037     0.39694E+00 
  66105.1658     0.40068E+00 
  66137.4280     0.40445E+00 
  66169.6902     0.40825E+00 
  66201.9523     0.41208E+00 
  66234.2145     0.41594E+00 
  66266.4766     0.41984E+00 
  66298.7388     0.42378E+00 
  66331.0010     0.42774E+00 
  66363.2631     0.43174E+00 
  66395.5253     0.43577E+00 
  66427.7874     0.43984E+00 
  66460.0496     0.44394E+00 
  66492.3118     0.44808E+00 
  66524.5739     0.45225E+00 
  66556.8361     0.45645E+00 
  66589.0982     0.46069E+00 
  66621.3604     0.46496E+00 
  66653.6226     0.46927E+00 
  66685.8847     0.47361E+00 
  66718.1469     0.47798E+00 
  66750.4090     0.48239E+00 
  66782.6712     0.48684E+00 
  66814.9334     0.49132E+00 
  66847.1955     0.49584E+00 
  66879.4577     0.50039E+00 
  66911.7198     0.50498E+00 
  66943.9820     0.50960E+00 
  66976.2442     0.51426E+00 
  67008.5063     0.51895E+00 
  67040.7685     0.52368E+00 
  67073.0306     0.52845E+00 
  67105.2928     0.53325E+00 
  67137.5550     0.53809E+00 
  67169.8171     0.54296E+00 
  67202.0793     0.54787E+00 
  67234.3414     0.55282E+00 
  67266.6036     0.55780E+00 
  67298.8658     0.56283E+00 
  67331.1279     0.56788E+00 
  67363.3901     0.57298E+00 
  67395.6522     0.57811E+00 
  67427.9144     0.58327E+00 
  67460.1766     0.58848E+00 
  67492.4387     0.59372E+00 
  67524.7009     0.59900E+00 
  67556.9630     0.60432E+00 
  67589.2252     0.60967E+00 
  67621.4874     0.61506E+00 
  67653.7495     0.62049E+00 
  67686.0117     0.62596E+00 
  67718.2738     0.63147E+00 
  67750.5360     0.63701E+00 
  67782.7982     0.64259E+00 
  67815.0603     0.64821E+00 
  67847.3225     0.65386E+00 
  67879.5846     0.65956E+00 
  67911.8468     0.66529E+00 
  67944.1090     0.67106E+00 
  67976.3711     0.67687E+00 
  68008.6333     0.68272E+00 
  68040.8954     0.68861E+00 
  68073.1576     0.69453E+00 
  68105.4198     0.70050E+00 
  68137.6819     0.70650E+00 
  68169.9441     0.71254E+00 
  68202.2062     0.71862E+00 
  68234.4684     0.72474E+00 
  68266.7306     0.73090E+00 
  68298.9927     0.73710E+00 
  68331.2549     0.74333E+00 
  68363.5170     0.74961E+00 
  68395.7792     0.75593E+00 
  68428.0414     0.76228E+00 
  68460.3035     0.76867E+00 
  68492.5657     0.77511E+00 
  68524.8278     0.78158E+00 
  68557.0900     0.78809E+00 
  68589.3522     0.79464E+00 
  68621.6143     0.80123E+00 
  68653.8765     0.80786E+00 
  68686.1386     0.81453E+00 
  68718.4008     0.82124E+00 
  68750.6630     0.82799E+00 
  68782.9251     0.83478E+00 
  68815.1873     0.84161E+00 
  68847.4494     0.84848E+00 
  68879.7116     0.85539E+00 
  68911.9738     0.86234E+00 
  68944.2359     0.86933E+00 
  68976.4981     0.87636E+00 
  69008.7602     0.88342E+00 
  69041.0224     0.89053E+00 
  69073.2846     0.89768E+00 
  69105.5467     0.90487E+00 
  69137.8089     0.91210E+00 
  69170.0710     0.91937E+00 
  69202.3332     0.92668E+00 
  69234.5954     0.93403E+00 
  69266.8575     0.94142E+00 
  69299.1197     0.94885E+00 
  69331.3818     0.95632E+00 
  69363.6440     0.96383E+00 
  69395.9062     0.97138E+00 
  69428.1683     0.97897E+00 
  69460.4305     0.98660E+00 
  69492.6926     0.99427E+00 
  69524.9548     0.10020E+01 
  69557.2170     0.10097E+01 
  69589.4791     0.10175E+01 
  69621.7413     0.10254E+01 
  69654.0034     0.10332E+01 
  69686.2656     0.10411E+01 
  69718.5278     0.10491E+01 
  69750.7899     0.10571E+01 
  69783.0521     0.10651E+01 
  69815.3142     0.10732E+01 
  69847.5764     0.10813E+01 
  69879.8386     0.10895E+01 
  69912.1007     0.10977E+01 
  69944.3629     0.11059E+01 
  69976.6250     0.11142E+01 
  70008.8872     0.11225E+01 
  70041.1494     0.11308E+01 
  70073.4115     0.11392E+01 
  70105.6737     0.11477E+01 
  70137.9358     0.11561E+01 
  70170.1980     0.11647E+01 
  70202.4602     0.11732E+01 
  70234.7223     0.11818E+01 
  70266.9845     0.11904E+01 
  70299.2466     0.11991E+01 
  70331.5088     0.12078E+01 
  70363.7710     0.12166E+01 
  70396.0331     0.12254E+01 
  70428.2953     0.12342E+01 
  70460.5574     0.12431E+01 
  70492.8196     0.12520E+01 
  70525.0818     0.12609E+01 
  70557.3439     0.12699E+01 
  70589.6061     0.12789E+01 
  70621.8682     0.12880E+01 
  70654.1304     0.12971E+01 
  70686.3926     0.13063E+01 
  70718.6547     0.13155E+01 
  70750.9169     0.13247E+01 
  70783.1790     0.13339E+01 
  70815.4412     0.13432E+01 
  70847.7034     0.13526E+01 
  70879.9655     0.13620E+01 
  70912.2277     0.13714E+01 
  70944.4898     0.13808E+01 
  70976.7520     0.13903E+01 
  71009.0142     0.13999E+01 
  71041.2763     0.14094E+01 
  71073.5385     0.14190E+01 
  71105.8006     0.14287E+01 
  71138.0628     0.14384E+01 
  71170.3250     0.14481E+01 
  71202.5871     0.14579E+01 
  71234.8493     0.14677E+01 
  71267.1114     0.14775E+01 
  71299.3736     0.14874E+01 
  71331.6358     0.14973E+01 
  71363.8979     0.15072E+01 
  71396.1601     0.15172E+01 
  71428.4222     0.15272E+01 
  71460.6844     0.15373E+01 
  71492.9466     0.15474E+01 
  71525.2087     0.15575E+01 
  71557.4709     0.15677E+01 
  71589.7330     0.15779E+01 
  71621.9952     0.15881E+01 
  71654.2574     0.15984E+01 
  71686.5195     0.16087E+01 
  71718.7817     0.16191E+01 
  71751.0438     0.16295E+01 
  71783.3060     0.16399E+01 
  71815.5682     0.16503E+01 
  71847.8303     0.16608E+01 
  71880.0925     0.16714E+01 
  71912.3546     0.16819E+01 
  71944.6168     0.16925E+01 
  71976.8790     0.17032E+01 
  72009.1411     0.17138E+01 
  72041.4033     0.17245E+01 
  72073.6654     0.17353E+01 
  72105.9276     0.17460E+01 
  72138.1898     0.17568E+01 
  72170.4519     0.17677E+01 
  72202.7141     0.17785E+01 
  72234.9762     0.17894E+01 
  72267.2384     0.18004E+01 
  72299.5006     0.18114E+01 
  72331.7627     0.18224E+01 
  72364.0249     0.18334E+01 
  72396.2870     0.18445E+01 
  72428.5492     0.18556E+01 
  72460.8114     0.18667E+01 
  72493.0735     0.18779E+01 
  72525.3357     0.18891E+01 
  72557.5978     0.19003E+01 
  72589.8600     0.19115E+01 
