  32262.1600     0.70694E-06 
  32294.4222     0.71656E-06 
  32326.6843     0.72628E-06 
  32358.9465     0.73609E-06 
  32391.2086     0.74599E-06 
  32423.4708     0.75598E-06 
  32455.7330     0.76606E-06 
  32487.9951     0.77624E-06 
  32520.2573     0.78651E-06 
  32552.5194     0.79688E-06 
  32584.7816     0.80733E-06 
  32617.0438     0.81788E-06 
  32649.3059     0.82853E-06 
  32681.5681     0.83927E-06 
  32713.8302     0.85010E-06 
  32746.0924     0.86102E-06 
  32778.3546     0.87204E-06 
  32810.6167     0.88316E-06 
  32842.8789     0.89437E-06 
  32875.1410     0.90567E-06 
  32907.4032     0.91706E-06 
  32939.6654     0.92855E-06 
  32971.9275     0.94014E-06 
  33004.1897     0.95181E-06 
  33036.4518     0.96359E-06 
  33068.7140     0.97545E-06 
  33100.9762     0.98741E-06 
  33133.2383     0.99946E-06 
  33165.5005     0.10116E-05 
  33197.7626     0.10238E-05 
  33230.0248     0.10362E-05 
  33262.2870     0.10486E-05 
  33294.5491     0.10611E-05 
  33326.8113     0.10737E-05 
  33359.0734     0.10864E-05 
  33391.3356     0.10992E-05 
  33423.5978     0.11121E-05 
  33455.8599     0.11251E-05 
  33488.1221     0.11382E-05 
  33520.3842     0.11514E-05 
  33552.6464     0.11646E-05 
  33584.9086     0.11780E-05 
  33617.1707     0.11914E-05 
  33649.4329     0.12049E-05 
  33681.6950     0.12185E-05 
  33713.9572     0.12322E-05 
  33746.2194     0.12460E-05 
  33778.4815     0.12599E-05 
  33810.7437     0.12739E-05 
  33843.0058     0.12880E-05 
  33875.2680     0.13021E-05 
  33907.5302     0.13164E-05 
  33939.7923     0.13307E-05 
  33972.0545     0.13451E-05 
  34004.3166     0.13596E-05 
  34036.5788     0.13742E-05 
  34068.8410     0.13888E-05 
  34101.1031     0.14036E-05 
  34133.3653     0.14184E-05 
  34165.6274     0.14333E-05 
  34197.8896     0.14483E-05 
  34230.1518     0.14634E-05 
  34262.4139     0.14786E-05 
  34294.6761     0.14938E-05 
  34326.9382     0.15091E-05 
  34359.2004     0.15245E-05 
  34391.4626     0.15400E-05 
  34423.7247     0.15556E-05 
  34455.9869     0.15712E-05 
  34488.2490     0.15869E-05 
  34520.5112     0.16027E-05 
  34552.7734     0.16186E-05 
  34585.0355     0.16345E-05 
  34617.2977     0.16505E-05 
  34649.5598     0.16666E-05 
  34681.8220     0.16828E-05 
  34714.0842     0.16990E-05 
  34746.3463     0.17153E-05 
  34778.6085     0.17316E-05 
  34810.8706     0.17481E-05 
  34843.1328     0.17646E-05 
  34875.3950     0.17811E-05 
  34907.6571     0.17978E-05 
  34939.9193     0.18145E-05 
  34972.1814     0.18312E-05 
  35004.4436     0.18481E-05 
  35036.7058     0.18649E-05 
  35068.9679     0.18819E-05 
  35101.2301     0.18989E-05 
  35133.4922     0.19160E-05 
  35165.7544     0.19331E-05 
  35198.0166     0.19503E-05 
  35230.2787     0.19675E-05 
  35262.5409     0.19848E-05 
  35294.8030     0.20021E-05 
  35327.0652     0.20195E-05 
  35359.3274     0.20370E-05 
  35391.5895     0.20545E-05 
  35423.8517     0.20720E-05 
  35456.1138     0.20896E-05 
  35488.3760     0.21073E-05 
  35520.6382     0.21249E-05 
  35552.9003     0.21427E-05 
  35585.1625     0.21605E-05 
  35617.4246     0.21783E-05 
  35649.6868     0.21961E-05 
  35681.9490     0.22140E-05 
  35714.2111     0.22320E-05 
  35746.4733     0.22499E-05 
  35778.7354     0.22679E-05 
  35810.9976     0.22860E-05 
  35843.2598     0.23040E-05 
  35875.5219     0.23222E-05 
  35907.7841     0.23403E-05 
  35940.0462     0.23585E-05 
  35972.3084     0.23767E-05 
  36004.5706     0.23949E-05 
  36036.8327     0.24131E-05 
  36069.0949     0.24314E-05 
  36101.3570     0.24497E-05 
  36133.6192     0.24680E-05 
  36165.8814     0.24863E-05 
  36198.1435     0.25047E-05 
  36230.4057     0.25230E-05 
  36262.6678     0.25414E-05 
  36294.9300     0.25598E-05 
  36327.1922     0.25782E-05 
  36359.4543     0.25966E-05 
  36391.7165     0.26151E-05 
  36423.9786     0.26335E-05 
  36456.2408     0.26520E-05 
  36488.5030     0.26704E-05 
  36520.7651     0.26889E-05 
  36553.0273     0.27073E-05 
  36585.2894     0.27258E-05 
  36617.5516     0.27442E-05 
  36649.8138     0.27627E-05 
  36682.0759     0.27811E-05 
  36714.3381     0.27996E-05 
  36746.6002     0.28180E-05 
  36778.8624     0.28365E-05 
  36811.1246     0.28549E-05 
  36843.3867     0.28733E-05 
  36875.6489     0.28917E-05 
  36907.9110     0.29101E-05 
  36940.1732     0.29284E-05 
  36972.4354     0.29468E-05 
  37004.6975     0.29651E-05 
  37036.9597     0.29834E-05 
  37069.2218     0.30017E-05 
  37101.4840     0.30200E-05 
  37133.7462     0.30382E-05 
  37166.0083     0.30564E-05 
  37198.2705     0.30746E-05 
  37230.5326     0.30928E-05 
  37262.7948     0.31109E-05 
  37295.0570     0.31290E-05 
  37327.3191     0.31471E-05 
  37359.5813     0.31651E-05 
  37391.8434     0.31831E-05 
  37424.1056     0.32010E-05 
  37456.3678     0.32189E-05 
  37488.6299     0.32368E-05 
  37520.8921     0.32546E-05 
  37553.1542     0.32724E-05 
  37585.4164     0.32901E-05 
  37617.6786     0.33078E-05 
  37649.9407     0.33255E-05 
  37682.2029     0.33430E-05 
  37714.4650     0.33606E-05 
  37746.7272     0.33780E-05 
  37778.9894     0.33955E-05 
  37811.2515     0.34128E-05 
  37843.5137     0.34301E-05 
  37875.7758     0.34474E-05 
  37908.0380     0.34646E-05 
  37940.3002     0.34817E-05 
  37972.5623     0.34987E-05 
  38004.8245     0.35157E-05 
  38037.0866     0.35326E-05 
  38069.3488     0.35495E-05 
  38101.6110     0.35663E-05 
  38133.8731     0.35830E-05 
  38166.1353     0.35996E-05 
  38198.3974     0.36162E-05 
  38230.6596     0.36327E-05 
  38262.9218     0.36491E-05 
  38295.1839     0.36654E-05 
  38327.4461     0.36816E-05 
  38359.7082     0.36978E-05 
  38391.9704     0.37139E-05 
  38424.2326     0.37299E-05 
  38456.4947     0.37458E-05 
  38488.7569     0.37616E-05 
  38521.0190     0.37774E-05 
  38553.2812     0.37930E-05 
  38585.5434     0.38086E-05 
  38617.8055     0.38240E-05 
  38650.0677     0.38394E-05 
  38682.3298     0.38546E-05 
  38714.5920     0.38698E-05 
  38746.8542     0.38849E-05 
  38779.1163     0.38999E-05 
  38811.3785     0.39147E-05 
  38843.6406     0.39295E-05 
  38875.9028     0.39442E-05 
  38908.1650     0.39587E-05 
  38940.4271     0.39732E-05 
  38972.6893     0.39875E-05 
  39004.9514     0.40018E-05 
  39037.2136     0.40159E-05 
  39069.4758     0.40299E-05 
  39101.7379     0.40438E-05 
  39134.0001     0.40576E-05 
  39166.2622     0.40713E-05 
  39198.5244     0.40849E-05 
  39230.7866     0.40983E-05 
  39263.0487     0.41117E-05 
  39295.3109     0.41249E-05 
  39327.5730     0.41380E-05 
  39359.8352     0.41509E-05 
  39392.0974     0.41638E-05 
  39424.3595     0.41765E-05 
  39456.6217     0.41891E-05 
  39488.8838     0.42016E-05 
  39521.1460     0.42139E-05 
  39553.4082     0.42262E-05 
  39585.6703     0.42383E-05 
  39617.9325     0.42502E-05 
  39650.1946     0.42621E-05 
  39682.4568     0.42738E-05 
  39714.7190     0.42854E-05 
  39746.9811     0.42968E-05 
  39779.2433     0.43081E-05 
  39811.5054     0.43193E-05 
  39843.7676     0.43303E-05 
  39876.0298     0.43412E-05 
  39908.2919     0.43520E-05 
  39940.5541     0.43626E-05 
  39972.8162     0.43731E-05 
  40005.0784     0.43834E-05 
  40037.3406     0.43936E-05 
  40069.6027     0.44037E-05 
  40101.8649     0.44136E-05 
  40134.1270     0.44234E-05 
  40166.3892     0.44331E-05 
  40198.6514     0.44426E-05 
  40230.9135     0.44519E-05 
  40263.1757     0.44611E-05 
  40295.4378     0.44702E-05 
  40327.7000     0.44791E-05 
  40359.9622     0.44879E-05 
  40392.2243     0.44965E-05 
  40424.4865     0.45049E-05 
  40456.7486     0.45133E-05 
  40489.0108     0.45214E-05 
  40521.2730     0.45295E-05 
  40553.5351     0.45373E-05 
  40585.7973     0.45451E-05 
  40618.0594     0.45526E-05 
  40650.3216     0.45601E-05 
  40682.5838     0.45673E-05 
  40714.8459     0.45744E-05 
  40747.1081     0.45814E-05 
  40779.3702     0.45882E-05 
  40811.6324     0.45949E-05 
  40843.8946     0.46014E-05 
  40876.1567     0.46077E-05 
  40908.4189     0.46139E-05 
  40940.6810     0.46199E-05 
  40972.9432     0.46258E-05 
  41005.2054     0.46315E-05 
  41037.4675     0.46371E-05 
  41069.7297     0.46425E-05 
  41101.9918     0.46478E-05 
  41134.2540     0.46529E-05 
  41166.5162     0.46578E-05 
  41198.7783     0.46626E-05 
  41231.0405     0.46673E-05 
  41263.3026     0.46717E-05 
  41295.5648     0.46760E-05 
  41327.8270     0.46802E-05 
  41360.0891     0.46842E-05 
  41392.3513     0.46880E-05 
  41424.6134     0.46917E-05 
  41456.8756     0.46953E-05 
  41489.1378     0.46986E-05 
  41521.3999     0.47019E-05 
  41553.6621     0.47049E-05 
  41585.9242     0.47078E-05 
  41618.1864     0.47105E-05 
  41650.4486     0.47131E-05 
  41682.7107     0.47156E-05 
  41714.9729     0.47178E-05 
  41747.2350     0.47199E-05 
  41779.4972     0.47219E-05 
  41811.7594     0.47237E-05 
  41844.0215     0.47253E-05 
  41876.2837     0.47268E-05 
  41908.5458     0.47281E-05 
  41940.8080     0.47293E-05 
  41973.0702     0.47303E-05 
  42005.3323     0.47312E-05 
  42037.5945     0.47319E-05 
  42069.8566     0.47324E-05 
  42102.1188     0.47328E-05 
  42134.3810     0.47331E-05 
  42166.6431     0.47332E-05 
  42198.9053     0.47331E-05 
  42231.1674     0.47329E-05 
  42263.4296     0.47325E-05 
  42295.6918     0.47320E-05 
  42327.9539     0.47313E-05 
  42360.2161     0.47305E-05 
  42392.4782     0.47295E-05 
  42424.7404     0.47283E-05 
  42457.0026     0.47270E-05 
  42489.2647     0.47256E-05 
  42521.5269     0.47240E-05 
  42553.7890     0.47223E-05 
  42586.0512     0.47204E-05 
  42618.3134     0.47184E-05 
  42650.5755     0.47162E-05 
  42682.8377     0.47138E-05 
  42715.0998     0.47114E-05 
  42747.3620     0.47087E-05 
  42779.6242     0.47060E-05 
  42811.8863     0.47030E-05 
  42844.1485     0.47000E-05 
  42876.4106     0.46968E-05 
  42908.6728     0.46934E-05 
  42940.9350     0.46899E-05 
  42973.1971     0.46863E-05 
  43005.4593     0.46825E-05 
  43037.7214     0.46786E-05 
  43069.9836     0.46745E-05 
  43102.2458     0.46703E-05 
  43134.5079     0.46660E-05 
  43166.7701     0.46615E-05 
  43199.0322     0.46569E-05 
  43231.2944     0.46521E-05 
  43263.5566     0.46472E-05 
  43295.8187     0.46422E-05 
  43328.0809     0.46371E-05 
  43360.3430     0.46318E-05 
  43392.6052     0.46263E-05 
  43424.8674     0.46208E-05 
  43457.1295     0.46151E-05 
  43489.3917     0.46093E-05 
  43521.6538     0.46033E-05 
  43553.9160     0.45972E-05 
  43586.1782     0.45910E-05 
  43618.4403     0.45847E-05 
  43650.7025     0.45782E-05 
  43682.9646     0.45716E-05 
  43715.2268     0.45649E-05 
  43747.4890     0.45581E-05 
  43779.7511     0.45511E-05 
  43812.0133     0.45440E-05 
  43844.2754     0.45368E-05 
  43876.5376     0.45295E-05 
  43908.7998     0.45220E-05 
  43941.0619     0.45145E-05 
  43973.3241     0.45068E-05 
  44005.5862     0.44990E-05 
  44037.8484     0.44911E-05 
  44070.1106     0.44830E-05 
  44102.3727     0.44749E-05 
  44134.6349     0.44666E-05 
  44166.8970     0.44582E-05 
  44199.1592     0.44497E-05 
  44231.4214     0.44411E-05 
  44263.6835     0.44324E-05 
  44295.9457     0.44236E-05 
  44328.2078     0.44147E-05 
  44360.4700     0.44057E-05 
  44392.7322     0.43965E-05 
  44424.9943     0.43873E-05 
  44457.2565     0.43779E-05 
  44489.5186     0.43685E-05 
  44521.7808     0.43589E-05 
  44554.0430     0.43493E-05 
  44586.3051     0.43395E-05 
  44618.5673     0.43297E-05 
  44650.8294     0.43197E-05 
  44683.0916     0.43097E-05 
  44715.3538     0.42995E-05 
  44747.6159     0.42893E-05 
  44779.8781     0.42790E-05 
  44812.1402     0.42686E-05 
  44844.4024     0.42580E-05 
  44876.6646     0.42474E-05 
  44908.9267     0.42367E-05 
  44941.1889     0.42260E-05 
  44973.4510     0.42151E-05 
  45005.7132     0.42041E-05 
  45037.9754     0.41931E-05 
  45070.2375     0.41820E-05 
  45102.4997     0.41708E-05 
  45134.7618     0.41595E-05 
  45167.0240     0.41481E-05 
  45199.2862     0.41366E-05 
  45231.5483     0.41251E-05 
  45263.8105     0.41135E-05 
  45296.0726     0.41018E-05 
  45328.3348     0.40901E-05 
  45360.5970     0.40782E-05 
  45392.8591     0.40663E-05 
  45425.1213     0.40543E-05 
  45457.3834     0.40423E-05 
  45489.6456     0.40301E-05 
  45521.9078     0.40179E-05 
  45554.1699     0.40057E-05 
  45586.4321     0.39933E-05 
  45618.6942     0.39809E-05 
  45650.9564     0.39685E-05 
  45683.2186     0.39560E-05 
  45715.4807     0.39434E-05 
  45747.7429     0.39307E-05 
  45780.0050     0.39180E-05 
  45812.2672     0.39052E-05 
  45844.5294     0.38924E-05 
  45876.7915     0.38795E-05 
  45909.0537     0.38665E-05 
  45941.3158     0.38535E-05 
  45973.5780     0.38405E-05 
  46005.8402     0.38274E-05 
  46038.1023     0.38142E-05 
  46070.3645     0.38010E-05 
  46102.6266     0.37877E-05 
  46134.8888     0.37744E-05 
  46167.1510     0.37610E-05 
  46199.4131     0.37476E-05 
  46231.6753     0.37342E-05 
  46263.9374     0.37207E-05 
  46296.1996     0.37071E-05 
  46328.4618     0.36935E-05 
  46360.7239     0.36799E-05 
  46392.9861     0.36662E-05 
  46425.2482     0.36525E-05 
  46457.5104     0.36387E-05 
  46489.7726     0.36249E-05 
  46522.0347     0.36111E-05 
  46554.2969     0.35972E-05 
  46586.5590     0.35833E-05 
  46618.8212     0.35694E-05 
  46651.0834     0.35554E-05 
  46683.3455     0.35414E-05 
  46715.6077     0.35273E-05 
  46747.8698     0.35133E-05 
  46780.1320     0.34992E-05 
  46812.3942     0.34850E-05 
  46844.6563     0.34709E-05 
  46876.9185     0.34567E-05 
  46909.1806     0.34425E-05 
  46941.4428     0.34283E-05 
  46973.7050     0.34140E-05 
  47005.9671     0.33997E-05 
  47038.2293     0.33854E-05 
  47070.4914     0.33711E-05 
  47102.7536     0.33568E-05 
  47135.0158     0.33424E-05 
  47167.2779     0.33280E-05 
  47199.5401     0.33136E-05 
  47231.8022     0.32992E-05 
  47264.0644     0.32848E-05 
  47296.3266     0.32703E-05 
  47328.5887     0.32559E-05 
  47360.8509     0.32414E-05 
  47393.1130     0.32269E-05 
  47425.3752     0.32124E-05 
  47457.6374     0.31979E-05 
  47489.8995     0.31834E-05 
  47522.1617     0.31689E-05 
  47554.4238     0.31543E-05 
  47586.6860     0.31398E-05 
  47618.9482     0.31252E-05 
  47651.2103     0.31107E-05 
  47683.4725     0.30961E-05 
  47715.7346     0.30816E-05 
  47747.9968     0.30670E-05 
  47780.2590     0.30524E-05 
  47812.5211     0.30379E-05 
  47844.7833     0.30233E-05 
  47877.0454     0.30087E-05 
  47909.3076     0.29942E-05 
  47941.5698     0.29796E-05 
  47973.8319     0.29650E-05 
  48006.0941     0.29505E-05 
  48038.3562     0.29359E-05 
  48070.6184     0.29214E-05 
  48102.8806     0.29068E-05 
  48135.1427     0.28923E-05 
  48167.4049     0.28778E-05 
  48199.6670     0.28632E-05 
  48231.9292     0.28487E-05 
  48264.1914     0.28342E-05 
  48296.4535     0.28197E-05 
  48328.7157     0.28052E-05 
  48360.9778     0.27908E-05 
  48393.2400     0.27763E-05 
  48425.5022     0.27618E-05 
  48457.7643     0.27474E-05 
  48490.0265     0.27330E-05 
  48522.2886     0.27186E-05 
  48554.5508     0.27042E-05 
  48586.8130     0.26898E-05 
  48619.0751     0.26754E-05 
  48651.3373     0.26611E-05 
  48683.5994     0.26468E-05 
  48715.8616     0.26325E-05 
  48748.1238     0.26182E-05 
  48780.3859     0.26039E-05 
  48812.6481     0.25897E-05 
  48844.9102     0.25754E-05 
  48877.1724     0.25612E-05 
  48909.4346     0.25470E-05 
  48941.6967     0.25329E-05 
  48973.9589     0.25187E-05 
  49006.2210     0.25046E-05 
  49038.4832     0.24905E-05 
  49070.7454     0.24765E-05 
  49103.0075     0.24624E-05 
  49135.2697     0.24484E-05 
  49167.5318     0.24344E-05 
  49199.7940     0.24205E-05 
  49232.0562     0.24065E-05 
  49264.3183     0.23926E-05 
  49296.5805     0.23788E-05 
  49328.8426     0.23649E-05 
  49361.1048     0.23511E-05 
  49393.3670     0.23373E-05 
  49425.6291     0.23235E-05 
  49457.8913     0.23098E-05 
  49490.1534     0.22961E-05 
  49522.4156     0.22825E-05 
  49554.6778     0.22688E-05 
  49586.9399     0.22552E-05 
  49619.2021     0.22417E-05 
  49651.4642     0.22281E-05 
  49683.7264     0.22146E-05 
  49715.9886     0.22012E-05 
  49748.2507     0.21877E-05 
  49780.5129     0.21743E-05 
  49812.7750     0.21610E-05 
  49845.0372     0.21477E-05 
  49877.2994     0.21344E-05 
  49909.5615     0.21211E-05 
  49941.8237     0.21079E-05 
  49974.0858     0.20947E-05 
  50006.3480     0.20816E-05 
  50038.6102     0.20685E-05 
  50070.8723     0.20554E-05 
  50103.1345     0.20424E-05 
  50135.3966     0.20294E-05 
  50167.6588     0.20165E-05 
  50199.9210     0.20036E-05 
  50232.1831     0.19907E-05 
  50264.4453     0.19779E-05 
  50296.7074     0.19651E-05 
  50328.9696     0.19524E-05 
  50361.2318     0.19397E-05 
  50393.4939     0.19270E-05 
  50425.7561     0.19144E-05 
  50458.0182     0.19018E-05 
  50490.2804     0.18893E-05 
  50522.5426     0.18768E-05 
  50554.8047     0.18644E-05 
  50587.0669     0.18520E-05 
  50619.3290     0.18396E-05 
  50651.5912     0.18273E-05 
  50683.8534     0.18150E-05 
  50716.1155     0.18028E-05 
  50748.3777     0.17906E-05 
  50780.6398     0.17785E-05 
  50812.9020     0.17664E-05 
  50845.1642     0.17543E-05 
  50877.4263     0.17423E-05 
  50909.6885     0.17304E-05 
  50941.9506     0.17185E-05 
  50974.2128     0.17066E-05 
  51006.4750     0.16948E-05 
  51038.7371     0.16830E-05 
  51070.9993     0.16713E-05 
  51103.2614     0.16596E-05 
  51135.5236     0.16480E-05 
  51167.7858     0.16364E-05 
  51200.0479     0.16248E-05 
  51232.3101     0.16133E-05 
  51264.5722     0.16019E-05 
  51296.8344     0.15905E-05 
  51329.0966     0.15792E-05 
  51361.3587     0.15679E-05 
  51393.6209     0.15566E-05 
  51425.8830     0.15454E-05 
  51458.1452     0.15342E-05 
  51490.4074     0.15231E-05 
  51522.6695     0.15121E-05 
  51554.9317     0.15011E-05 
  51587.1938     0.14901E-05 
  51619.4560     0.14792E-05 
  51651.7182     0.14683E-05 
  51683.9803     0.14575E-05 
  51716.2425     0.14467E-05 
  51748.5046     0.14360E-05 
  51780.7668     0.14253E-05 
  51813.0290     0.14147E-05 
  51845.2911     0.14042E-05 
  51877.5533     0.13936E-05 
  51909.8154     0.13832E-05 
  51942.0776     0.13727E-05 
  51974.3398     0.13624E-05 
  52006.6019     0.13520E-05 
  52038.8641     0.13418E-05 
  52071.1262     0.13315E-05 
  52103.3884     0.13214E-05 
  52135.6506     0.13112E-05 
  52167.9127     0.13011E-05 
  52200.1749     0.12911E-05 
  52232.4370     0.12811E-05 
  52264.6992     0.12712E-05 
  52296.9614     0.12613E-05 
  52329.2235     0.12515E-05 
  52361.4857     0.12417E-05 
  52393.7478     0.12320E-05 
  52426.0100     0.12223E-05 
  52458.2722     0.12127E-05 
  52490.5343     0.12031E-05 
  52522.7965     0.11936E-05 
  52555.0586     0.11841E-05 
  52587.3208     0.11746E-05 
  52619.5830     0.11653E-05 
  52651.8451     0.11559E-05 
  52684.1073     0.11466E-05 
  52716.3694     0.11374E-05 
  52748.6316     0.11282E-05 
  52780.8938     0.11191E-05 
  52813.1559     0.11100E-05 
  52845.4181     0.11010E-05 
  52877.6802     0.10920E-05 
  52909.9424     0.10830E-05 
  52942.2046     0.10741E-05 
  52974.4667     0.10653E-05 
  53006.7289     0.10565E-05 
  53038.9910     0.10478E-05 
  53071.2532     0.10391E-05 
  53103.5154     0.10304E-05 
  53135.7775     0.10218E-05 
  53168.0397     0.10133E-05 
  53200.3018     0.10048E-05 
  53232.5640     0.99631E-06 
  53264.8262     0.98790E-06 
  53297.0883     0.97955E-06 
  53329.3505     0.97124E-06 
  53361.6126     0.96298E-06 
  53393.8748     0.95476E-06 
  53426.1370     0.94660E-06 
  53458.3991     0.93848E-06 
  53490.6613     0.93041E-06 
  53522.9234     0.92239E-06 
  53555.1856     0.91441E-06 
  53587.4478     0.90649E-06 
  53619.7099     0.89861E-06 
  53651.9721     0.89077E-06 
  53684.2342     0.88299E-06 
  53716.4964     0.87525E-06 
  53748.7586     0.86755E-06 
  53781.0207     0.85991E-06 
  53813.2829     0.85231E-06 
  53845.5450     0.84476E-06 
  53877.8072     0.83725E-06 
  53910.0694     0.82979E-06 
  53942.3315     0.82237E-06 
  53974.5937     0.81501E-06 
  54006.8558     0.80768E-06 
  54039.1180     0.80041E-06 
  54071.3802     0.79317E-06 
  54103.6423     0.78599E-06 
  54135.9045     0.77885E-06 
  54168.1666     0.77175E-06 
  54200.4288     0.76470E-06 
  54232.6910     0.75769E-06 
  54264.9531     0.75073E-06 
  54297.2153     0.74381E-06 
  54329.4774     0.73694E-06 
  54361.7396     0.73011E-06 
  54394.0018     0.72333E-06 
  54426.2639     0.71659E-06 
  54458.5261     0.70989E-06 
  54490.7882     0.70324E-06 
  54523.0504     0.69663E-06 
  54555.3126     0.69006E-06 
  54587.5747     0.68354E-06 
  54619.8369     0.67706E-06 
  54652.0990     0.67062E-06 
  54684.3612     0.66423E-06 
  54716.6234     0.65787E-06 
  54748.8855     0.65156E-06 
  54781.1477     0.64530E-06 
  54813.4098     0.63907E-06 
  54845.6720     0.63289E-06 
  54877.9342     0.62675E-06 
  54910.1963     0.62065E-06 
  54942.4585     0.61459E-06 
  54974.7206     0.60857E-06 
  55006.9828     0.60259E-06 
  55039.2450     0.59666E-06 
  55071.5071     0.59076E-06 
  55103.7693     0.58491E-06 
  55136.0314     0.57909E-06 
  55168.2936     0.57332E-06 
  55200.5558     0.56759E-06 
  55232.8179     0.56189E-06 
  55265.0801     0.55624E-06 
  55297.3422     0.55063E-06 
  55329.6044     0.54505E-06 
  55361.8666     0.53951E-06 
  55394.1287     0.53402E-06 
  55426.3909     0.52856E-06 
  55458.6530     0.52314E-06 
  55490.9152     0.51776E-06 
  55523.1774     0.51242E-06 
  55555.4395     0.50711E-06 
  55587.7017     0.50185E-06 
  55619.9638     0.49662E-06 
  55652.2260     0.49143E-06 
  55684.4882     0.48628E-06 
  55716.7503     0.48116E-06 
  55749.0125     0.47608E-06 
  55781.2746     0.47104E-06 
  55813.5368     0.46604E-06 
  55845.7990     0.46107E-06 
  55878.0611     0.45613E-06 
  55910.3233     0.45124E-06 
  55942.5854     0.44638E-06 
  55974.8476     0.44156E-06 
  56007.1098     0.43677E-06 
  56039.3719     0.43202E-06 
  56071.6341     0.42730E-06 
  56103.8962     0.42262E-06 
  56136.1584     0.41797E-06 
  56168.4206     0.41336E-06 
  56200.6827     0.40878E-06 
  56232.9449     0.40424E-06 
  56265.2070     0.39973E-06 
  56297.4692     0.39526E-06 
  56329.7314     0.39082E-06 
  56361.9935     0.38641E-06 
  56394.2557     0.38204E-06 
  56426.5178     0.37770E-06 
  56458.7800     0.37339E-06 
  56491.0422     0.36912E-06 
  56523.3043     0.36488E-06 
  56555.5665     0.36067E-06 
  56587.8286     0.35650E-06 
  56620.0908     0.35235E-06 
  56652.3530     0.34824E-06 
  56684.6151     0.34417E-06 
  56716.8773     0.34012E-06 
  56749.1394     0.33611E-06 
  56781.4016     0.33212E-06 
  56813.6638     0.32817E-06 
  56845.9259     0.32425E-06 
  56878.1881     0.32036E-06 
  56910.4502     0.31651E-06 
  56942.7124     0.31268E-06 
  56974.9746     0.30888E-06 
  57007.2367     0.30512E-06 
  57039.4989     0.30138E-06 
  57071.7610     0.29767E-06 
  57104.0232     0.29400E-06 
  57136.2854     0.29035E-06 
  57168.5475     0.28673E-06 
  57200.8097     0.28315E-06 
  57233.0718     0.27959E-06 
  57265.3340     0.27606E-06 
  57297.5962     0.27256E-06 
  57329.8583     0.26909E-06 
  57362.1205     0.26565E-06 
  57394.3826     0.26223E-06 
  57426.6448     0.25885E-06 
  57458.9070     0.25549E-06 
  57491.1691     0.25216E-06 
  57523.4313     0.24886E-06 
  57555.6934     0.24558E-06 
  57587.9556     0.24234E-06 
  57620.2178     0.23912E-06 
  57652.4799     0.23592E-06 
  57684.7421     0.23276E-06 
  57717.0042     0.22962E-06 
  57749.2664     0.22651E-06 
  57781.5286     0.22342E-06 
  57813.7907     0.22037E-06 
  57846.0529     0.21733E-06 
  57878.3150     0.21433E-06 
  57910.5772     0.21135E-06 
  57942.8394     0.20840E-06 
  57975.1015     0.20547E-06 
  58007.3637     0.20257E-06 
  58039.6258     0.19969E-06 
  58071.8880     0.19684E-06 
  58104.1502     0.19401E-06 
  58136.4123     0.19121E-06 
  58168.6745     0.18843E-06 
  58200.9366     0.18568E-06 
  58233.1988     0.18295E-06 
  58265.4610     0.18025E-06 
  58297.7231     0.17757E-06 
  58329.9853     0.17492E-06 
  58362.2474     0.17229E-06 
  58394.5096     0.16968E-06 
  58426.7718     0.16710E-06 
  58459.0339     0.16454E-06 
  58491.2961     0.16201E-06 
  58523.5582     0.15950E-06 
  58555.8204     0.15701E-06 
  58588.0826     0.15455E-06 
  58620.3447     0.15210E-06 
  58652.6069     0.14969E-06 
  58684.8690     0.14729E-06 
  58717.1312     0.14492E-06 
  58749.3934     0.14257E-06 
  58781.6555     0.14024E-06 
  58813.9177     0.13793E-06 
  58846.1798     0.13565E-06 
  58878.4420     0.13339E-06 
  58910.7042     0.13115E-06 
  58942.9663     0.12893E-06 
  58975.2285     0.12674E-06 
  59007.4906     0.12456E-06 
  59039.7528     0.12241E-06 
  59072.0150     0.12028E-06 
  59104.2771     0.11817E-06 
  59136.5393     0.11609E-06 
  59168.8014     0.11402E-06 
  59201.0636     0.11198E-06 
  59233.3258     0.10995E-06 
  59265.5879     0.10795E-06 
  59297.8501     0.10597E-06 
  59330.1122     0.10400E-06 
  59362.3744     0.10206E-06 
  59394.6366     0.10014E-06 
  59426.8987     0.98242E-07 
  59459.1609     0.96363E-07 
  59491.4230     0.94503E-07 
  59523.6852     0.92664E-07 
  59555.9474     0.90845E-07 
  59588.2095     0.89046E-07 
  59620.4717     0.87267E-07 
  59652.7338     0.85508E-07 
  59684.9960     0.83769E-07 
  59717.2582     0.82049E-07 
  59749.5203     0.80349E-07 
  59781.7825     0.78668E-07 
  59814.0446     0.77008E-07 
  59846.3068     0.75366E-07 
  59878.5690     0.73744E-07 
  59910.8311     0.72141E-07 
  59943.0933     0.70558E-07 
  59975.3554     0.68993E-07 
  60007.6176     0.67448E-07 
  60039.8798     0.65922E-07 
  60072.1419     0.64415E-07 
  60104.4041     0.62926E-07 
  60136.6662     0.61457E-07 
  60168.9284     0.60007E-07 
  60201.1906     0.58575E-07 
  60233.4527     0.57162E-07 
  60265.7149     0.55768E-07 
  60297.9770     0.54392E-07 
  60330.2392     0.53035E-07 
  60362.5014     0.51697E-07 
  60394.7635     0.50377E-07 
  60427.0257     0.49075E-07 
  60459.2878     0.47793E-07 
  60491.5500     0.46528E-07 
  60523.8122     0.45282E-07 
  60556.0743     0.44054E-07 
  60588.3365     0.42845E-07 
  60620.5986     0.41654E-07 
  60652.8608     0.40481E-07 
  60685.1230     0.39327E-07 
  60717.3851     0.38191E-07 
  60749.6473     0.37073E-07 
  60781.9094     0.35973E-07 
  60814.1716     0.34892E-07 
  60846.4338     0.33828E-07 
  60878.6959     0.32783E-07 
  60910.9581     0.31757E-07 
  60943.2202     0.30748E-07 
  60975.4824     0.29758E-07 
  61007.7446     0.28786E-07 
  61040.0067     0.27832E-07 
  61072.2689     0.26896E-07 
  61104.5310     0.25979E-07 
  61136.7932     0.25080E-07 
  61169.0554     0.24199E-07 
  61201.3175     0.23336E-07 
  61233.5797     0.22492E-07 
  61265.8418     0.21666E-07 
  61298.1040     0.20859E-07 
  61330.3662     0.20069E-07 
  61362.6283     0.19299E-07 
  61394.8905     0.18547E-07 
  61427.1526     0.17813E-07 
  61459.4148     0.17098E-07 
  61491.6770     0.16402E-07 
  61523.9391     0.15724E-07 
  61556.2013     0.15065E-07 
  61588.4634     0.14424E-07 
  61620.7256     0.13803E-07 
  61652.9878     0.13200E-07 
  61685.2499     0.12617E-07 
  61717.5121     0.12052E-07 
  61749.7742     0.11507E-07 
  61782.0364     0.10980E-07 
  61814.2986     0.10473E-07 
  61846.5607     0.99856E-08 
  61878.8229     0.95173E-08 
  61911.0850     0.90686E-08 
  61943.3472     0.86394E-08 
  61975.6094     0.82300E-08 
  62007.8715     0.78404E-08 
  62040.1337     0.74707E-08 
  62072.3958     0.71211E-08 
  62104.6580     0.67916E-08 
  62136.9202     0.64824E-08 
  62169.1823     0.61936E-08 
  62201.4445     0.59253E-08 
  62233.7066     0.56777E-08 
  62265.9688     0.54509E-08 
  62298.2310     0.52450E-08 
  62330.4931     0.50602E-08 
  62362.7553     0.48967E-08 
  62395.0174     0.47545E-08 
  62427.2796     0.46339E-08 
  62459.5418     0.45350E-08 
  62491.8039     0.44581E-08 
  62524.0661     0.44032E-08 
  62556.3282     0.43705E-08 
  62588.5904     0.43603E-08 
  62620.8526     0.43727E-08 
  62653.1147     0.44080E-08 
  62685.3769     0.44663E-08 
  62717.6390     0.45479E-08 
  62749.9012     0.46529E-08 
  62782.1634     0.47816E-08 
  62814.4255     0.49343E-08 
  62846.6877     0.51111E-08 
  62878.9498     0.53123E-08 
  62911.2120     0.55382E-08 
  62943.4742     0.57889E-08 
  62975.7363     0.60649E-08 
  63007.9985     0.63662E-08 
  63040.2606     0.66933E-08 
  63072.5228     0.70464E-08 
  63104.7850     0.74257E-08 
  63137.0471     0.78316E-08 
  63169.3093     0.82645E-08 
  63201.5714     0.87245E-08 
  63233.8336     0.92120E-08 
  63266.0958     0.97274E-08 
  63298.3579     0.10271E-07 
  63330.6201     0.10843E-07 
  63362.8822     0.11444E-07 
  63395.1444     0.12074E-07 
  63427.4066     0.12734E-07 
  63459.6687     0.13424E-07 
  63491.9309     0.14144E-07 
  63524.1930     0.14895E-07 
  63556.4552     0.15678E-07 
  63588.7174     0.16491E-07 
  63620.9795     0.17337E-07 
  63653.2417     0.18216E-07 
  63685.5038     0.19127E-07 
  63717.7660     0.20072E-07 
  63750.0282     0.21050E-07 
  63782.2903     0.22063E-07 
  63814.5525     0.23111E-07 
  63846.8146     0.24194E-07 
  63879.0768     0.25313E-07 
  63911.3390     0.26468E-07 
  63943.6011     0.27660E-07 
  63975.8633     0.28890E-07 
  64008.1254     0.30158E-07 
  64040.3876     0.31464E-07 
  64072.6498     0.32809E-07 
  64104.9119     0.34194E-07 
  64137.1741     0.35620E-07 
  64169.4362     0.37087E-07 
  64201.6984     0.38595E-07 
  64233.9606     0.40145E-07 
  64266.2227     0.41739E-07 
  64298.4849     0.43376E-07 
  64330.7470     0.45058E-07 
  64363.0092     0.46785E-07 
  64395.2714     0.48557E-07 
  64427.5335     0.50376E-07 
  64459.7957     0.52242E-07 
  64492.0578     0.54157E-07 
  64524.3200     0.56120E-07 
  64556.5822     0.58133E-07 
  64588.8443     0.60196E-07 
  64621.1065     0.62311E-07 
  64653.3686     0.64478E-07 
  64685.6308     0.66698E-07 
  64717.8930     0.68973E-07 
  64750.1551     0.71302E-07 
  64782.4173     0.73686E-07 
  64814.6794     0.76128E-07 
  64846.9416     0.78628E-07 
  64879.2038     0.81186E-07 
  64911.4659     0.83804E-07 
  64943.7281     0.86483E-07 
  64975.9902     0.89223E-07 
  65008.2524     0.92027E-07 
  65040.5146     0.94895E-07 
  65072.7767     0.97827E-07 
  65105.0389     0.10083E-06 
  65137.3010     0.10389E-06 
  65169.5632     0.10703E-06 
  65201.8254     0.11023E-06 
  65234.0875     0.11351E-06 
  65266.3497     0.11686E-06 
  65298.6118     0.12028E-06 
  65330.8740     0.12378E-06 
  65363.1362     0.12735E-06 
  65395.3983     0.13100E-06 
  65427.6605     0.13473E-06 
  65459.9226     0.13854E-06 
  65492.1848     0.14244E-06 
  65524.4470     0.14641E-06 
  65556.7091     0.15048E-06 
  65588.9713     0.15462E-06 
  65621.2334     0.15886E-06 
  65653.4956     0.16318E-06 
  65685.7578     0.16760E-06 
  65718.0199     0.17211E-06 
  65750.2821     0.17671E-06 
  65782.5442     0.18141E-06 
  65814.8064     0.18621E-06 
  65847.0686     0.19111E-06 
  65879.3307     0.19611E-06 
  65911.5929     0.20121E-06 
  65943.8550     0.20642E-06 
  65976.1172     0.21173E-06 
  66008.3794     0.21716E-06 
  66040.6415     0.22269E-06 
  66072.9037     0.22834E-06 
  66105.1658     0.23410E-06 
  66137.4280     0.23998E-06 
  66169.6902     0.24598E-06 
  66201.9523     0.25211E-06 
  66234.2145     0.25835E-06 
  66266.4766     0.26472E-06 
  66298.7388     0.27122E-06 
  66331.0010     0.27785E-06 
  66363.2631     0.28462E-06 
  66395.5253     0.29151E-06 
  66427.7874     0.29855E-06 
  66460.0496     0.30573E-06 
  66492.3118     0.31304E-06 
  66524.5739     0.32051E-06 
  66556.8361     0.32812E-06 
  66589.0982     0.33588E-06 
  66621.3604     0.34380E-06 
  66653.6226     0.35187E-06 
  66685.8847     0.36010E-06 
  66718.1469     0.36850E-06 
  66750.4090     0.37705E-06 
  66782.6712     0.38578E-06 
  66814.9334     0.39467E-06 
  66847.1955     0.40374E-06 
  66879.4577     0.41299E-06 
  66911.7198     0.42241E-06 
  66943.9820     0.43202E-06 
  66976.2442     0.44181E-06 
  67008.5063     0.45179E-06 
  67040.7685     0.46197E-06 
  67073.0306     0.47234E-06 
  67105.2928     0.48291E-06 
  67137.5550     0.49368E-06 
  67169.8171     0.50466E-06 
  67202.0793     0.51585E-06 
  67234.3414     0.52726E-06 
  67266.6036     0.53888E-06 
  67298.8658     0.55072E-06 
  67331.1279     0.56279E-06 
  67363.3901     0.57508E-06 
  67395.6522     0.58761E-06 
  67427.9144     0.60038E-06 
  67460.1766     0.61338E-06 
  67492.4387     0.62663E-06 
  67524.7009     0.64013E-06 
  67556.9630     0.65389E-06 
  67589.2252     0.66790E-06 
  67621.4874     0.68217E-06 
  67653.7495     0.69671E-06 
  67686.0117     0.71152E-06 
  67718.2738     0.72660E-06 
  67750.5360     0.74197E-06 
  67782.7982     0.75761E-06 
  67815.0603     0.77355E-06 
  67847.3225     0.78978E-06 
  67879.5846     0.80631E-06 
  67911.8468     0.82315E-06 
  67944.1090     0.84029E-06 
  67976.3711     0.85774E-06 
  68008.6333     0.87552E-06 
  68040.8954     0.89362E-06 
  68073.1576     0.91204E-06 
  68105.4198     0.93081E-06 
  68137.6819     0.94991E-06 
  68169.9441     0.96935E-06 
  68202.2062     0.98915E-06 
  68234.4684     0.10093E-05 
  68266.7306     0.10298E-05 
  68298.9927     0.10507E-05 
  68331.2549     0.10720E-05 
  68363.5170     0.10936E-05 
  68395.7792     0.11156E-05 
  68428.0414     0.11380E-05 
  68460.3035     0.11608E-05 
  68492.5657     0.11840E-05 
  68524.8278     0.12076E-05 
  68557.0900     0.12317E-05 
  68589.3522     0.12561E-05 
  68621.6143     0.12810E-05 
  68653.8765     0.13063E-05 
  68686.1386     0.13321E-05 
  68718.4008     0.13583E-05 
  68750.6630     0.13850E-05 
  68782.9251     0.14121E-05 
  68815.1873     0.14397E-05 
  68847.4494     0.14677E-05 
  68879.7116     0.14963E-05 
  68911.9738     0.15253E-05 
  68944.2359     0.15548E-05 
  68976.4981     0.15849E-05 
  69008.7602     0.16154E-05 
  69041.0224     0.16464E-05 
  69073.2846     0.16780E-05 
  69105.5467     0.17101E-05 
  69137.8089     0.17428E-05 
  69170.0710     0.17760E-05 
  69202.3332     0.18097E-05 
  69234.5954     0.18440E-05 
  69266.8575     0.18789E-05 
  69299.1197     0.19144E-05 
  69331.3818     0.19504E-05 
  69363.6440     0.19871E-05 
  69395.9062     0.20243E-05 
  69428.1683     0.20621E-05 
  69460.4305     0.21006E-05 
  69492.6926     0.21397E-05 
  69524.9548     0.21794E-05 
  69557.2170     0.22198E-05 
  69589.4791     0.22608E-05 
  69621.7413     0.23025E-05 
  69654.0034     0.23448E-05 
  69686.2656     0.23878E-05 
  69718.5278     0.24315E-05 
  69750.7899     0.24759E-05 
  69783.0521     0.25210E-05 
  69815.3142     0.25668E-05 
  69847.5764     0.26133E-05 
  69879.8386     0.26605E-05 
  69912.1007     0.27085E-05 
  69944.3629     0.27572E-05 
  69976.6250     0.28067E-05 
  70008.8872     0.28570E-05 
  70041.1494     0.29080E-05 
  70073.4115     0.29598E-05 
  70105.6737     0.30124E-05 
  70137.9358     0.30657E-05 
  70170.1980     0.31199E-05 
  70202.4602     0.31749E-05 
  70234.7223     0.32308E-05 
  70266.9845     0.32875E-05 
  70299.2466     0.33450E-05 
  70331.5088     0.34034E-05 
  70363.7710     0.34626E-05 
  70396.0331     0.35227E-05 
  70428.2953     0.35837E-05 
  70460.5574     0.36456E-05 
  70492.8196     0.37084E-05 
  70525.0818     0.37721E-05 
  70557.3439     0.38368E-05 
  70589.6061     0.39023E-05 
  70621.8682     0.39688E-05 
  70654.1304     0.40363E-05 
  70686.3926     0.41047E-05 
  70718.6547     0.41741E-05 
  70750.9169     0.42445E-05 
  70783.1790     0.43158E-05 
  70815.4412     0.43882E-05 
  70847.7034     0.44616E-05 
  70879.9655     0.45359E-05 
  70912.2277     0.46114E-05 
  70944.4898     0.46878E-05 
  70976.7520     0.47653E-05 
  71009.0142     0.48439E-05 
  71041.2763     0.49235E-05 
  71073.5385     0.50042E-05 
  71105.8006     0.50860E-05 
  71138.0628     0.51689E-05 
  71170.3250     0.52529E-05 
  71202.5871     0.53380E-05 
  71234.8493     0.54243E-05 
  71267.1114     0.55116E-05 
  71299.3736     0.56002E-05 
  71331.6358     0.56899E-05 
  71363.8979     0.57807E-05 
  71396.1601     0.58727E-05 
  71428.4222     0.59659E-05 
  71460.6844     0.60603E-05 
  71492.9466     0.61559E-05 
  71525.2087     0.62527E-05 
  71557.4709     0.63507E-05 
  71589.7330     0.64500E-05 
  71621.9952     0.65505E-05 
  71654.2574     0.66523E-05 
  71686.5195     0.67553E-05 
  71718.7817     0.68595E-05 
  71751.0438     0.69651E-05 
  71783.3060     0.70719E-05 
  71815.5682     0.71801E-05 
  71847.8303     0.72895E-05 
  71880.0925     0.74002E-05 
  71912.3546     0.75123E-05 
  71944.6168     0.76257E-05 
  71976.8790     0.77404E-05 
  72009.1411     0.78565E-05 
  72041.4033     0.79739E-05 
  72073.6654     0.80927E-05 
  72105.9276     0.82129E-05 
  72138.1898     0.83344E-05 
  72170.4519     0.84573E-05 
  72202.7141     0.85817E-05 
  72234.9762     0.87074E-05 
  72267.2384     0.88345E-05 
  72299.5006     0.89631E-05 
  72331.7627     0.90930E-05 
  72364.0249     0.92245E-05 
  72396.2870     0.93573E-05 
  72428.5492     0.94916E-05 
  72460.8114     0.96273E-05 
  72493.0735     0.97645E-05 
  72525.3357     0.99032E-05 
  72557.5978     0.10043E-04 
  72589.8600     0.10185E-04 
