  32262.1600     0.23263E-02 
  32294.4222     0.23555E-02 
  32326.6843     0.23848E-02 
  32358.9465     0.24145E-02 
  32391.2086     0.24444E-02 
  32423.4708     0.24745E-02 
  32455.7330     0.25049E-02 
  32487.9951     0.25355E-02 
  32520.2573     0.25664E-02 
  32552.5194     0.25976E-02 
  32584.7816     0.26290E-02 
  32617.0438     0.26607E-02 
  32649.3059     0.26926E-02 
  32681.5681     0.27248E-02 
  32713.8302     0.27572E-02 
  32746.0924     0.27899E-02 
  32778.3546     0.28228E-02 
  32810.6167     0.28560E-02 
  32842.8789     0.28894E-02 
  32875.1410     0.29231E-02 
  32907.4032     0.29571E-02 
  32939.6654     0.29913E-02 
  32971.9275     0.30258E-02 
  33004.1897     0.30605E-02 
  33036.4518     0.30955E-02 
  33068.7140     0.31307E-02 
  33100.9762     0.31662E-02 
  33133.2383     0.32019E-02 
  33165.5005     0.32379E-02 
  33197.7626     0.32741E-02 
  33230.0248     0.33106E-02 
  33262.2870     0.33474E-02 
  33294.5491     0.33844E-02 
  33326.8113     0.34216E-02 
  33359.0734     0.34591E-02 
  33391.3356     0.34969E-02 
  33423.5978     0.35349E-02 
  33455.8599     0.35731E-02 
  33488.1221     0.36116E-02 
  33520.3842     0.36504E-02 
  33552.6464     0.36893E-02 
  33584.9086     0.37286E-02 
  33617.1707     0.37680E-02 
  33649.4329     0.38078E-02 
  33681.6950     0.38477E-02 
  33713.9572     0.38879E-02 
  33746.2194     0.39284E-02 
  33778.4815     0.39691E-02 
  33810.7437     0.40100E-02 
  33843.0058     0.40512E-02 
  33875.2680     0.40926E-02 
  33907.5302     0.41342E-02 
  33939.7923     0.41761E-02 
  33972.0545     0.42182E-02 
  34004.3166     0.42605E-02 
  34036.5788     0.43031E-02 
  34068.8410     0.43459E-02 
  34101.1031     0.43889E-02 
  34133.3653     0.44321E-02 
  34165.6274     0.44756E-02 
  34197.8896     0.45193E-02 
  34230.1518     0.45632E-02 
  34262.4139     0.46074E-02 
  34294.6761     0.46517E-02 
  34326.9382     0.46963E-02 
  34359.2004     0.47411E-02 
  34391.4626     0.47861E-02 
  34423.7247     0.48313E-02 
  34455.9869     0.48767E-02 
  34488.2490     0.49224E-02 
  34520.5112     0.49682E-02 
  34552.7734     0.50143E-02 
  34585.0355     0.50605E-02 
  34617.2977     0.51070E-02 
  34649.5598     0.51536E-02 
  34681.8220     0.52005E-02 
  34714.0842     0.52475E-02 
  34746.3463     0.52947E-02 
  34778.6085     0.53421E-02 
  34810.8706     0.53898E-02 
  34843.1328     0.54376E-02 
  34875.3950     0.54855E-02 
  34907.6571     0.55337E-02 
  34939.9193     0.55820E-02 
  34972.1814     0.56306E-02 
  35004.4436     0.56792E-02 
  35036.7058     0.57281E-02 
  35068.9679     0.57771E-02 
  35101.2301     0.58263E-02 
  35133.4922     0.58757E-02 
  35165.7544     0.59252E-02 
  35198.0166     0.59749E-02 
  35230.2787     0.60247E-02 
  35262.5409     0.60747E-02 
  35294.8030     0.61249E-02 
  35327.0652     0.61752E-02 
  35359.3274     0.62256E-02 
  35391.5895     0.62762E-02 
  35423.8517     0.63269E-02 
  35456.1138     0.63778E-02 
  35488.3760     0.64288E-02 
  35520.6382     0.64799E-02 
  35552.9003     0.65311E-02 
  35585.1625     0.65825E-02 
  35617.4246     0.66340E-02 
  35649.6868     0.66856E-02 
  35681.9490     0.67374E-02 
  35714.2111     0.67892E-02 
  35746.4733     0.68412E-02 
  35778.7354     0.68932E-02 
  35810.9976     0.69454E-02 
  35843.2598     0.69977E-02 
  35875.5219     0.70500E-02 
  35907.7841     0.71025E-02 
  35940.0462     0.71550E-02 
  35972.3084     0.72077E-02 
  36004.5706     0.72604E-02 
  36036.8327     0.73132E-02 
  36069.0949     0.73661E-02 
  36101.3570     0.74190E-02 
  36133.6192     0.74720E-02 
  36165.8814     0.75251E-02 
  36198.1435     0.75783E-02 
  36230.4057     0.76315E-02 
  36262.6678     0.76847E-02 
  36294.9300     0.77380E-02 
  36327.1922     0.77914E-02 
  36359.4543     0.78448E-02 
  36391.7165     0.78983E-02 
  36423.9786     0.79518E-02 
  36456.2408     0.80053E-02 
  36488.5030     0.80588E-02 
  36520.7651     0.81124E-02 
  36553.0273     0.81660E-02 
  36585.2894     0.82196E-02 
  36617.5516     0.82733E-02 
  36649.8138     0.83269E-02 
  36682.0759     0.83806E-02 
  36714.3381     0.84343E-02 
  36746.6002     0.84879E-02 
  36778.8624     0.85416E-02 
  36811.1246     0.85952E-02 
  36843.3867     0.86489E-02 
  36875.6489     0.87025E-02 
  36907.9110     0.87561E-02 
  36940.1732     0.88097E-02 
  36972.4354     0.88633E-02 
  37004.6975     0.89168E-02 
  37036.9597     0.89703E-02 
  37069.2218     0.90237E-02 
  37101.4840     0.90772E-02 
  37133.7462     0.91305E-02 
  37166.0083     0.91839E-02 
  37198.2705     0.92371E-02 
  37230.5326     0.92903E-02 
  37262.7948     0.93435E-02 
  37295.0570     0.93965E-02 
  37327.3191     0.94495E-02 
  37359.5813     0.95025E-02 
  37391.8434     0.95553E-02 
  37424.1056     0.96081E-02 
  37456.3678     0.96608E-02 
  37488.6299     0.97134E-02 
  37520.8921     0.97659E-02 
  37553.1542     0.98183E-02 
  37585.4164     0.98706E-02 
  37617.6786     0.99228E-02 
  37649.9407     0.99749E-02 
  37682.2029     0.10027E-01 
  37714.4650     0.10079E-01 
  37746.7272     0.10130E-01 
  37778.9894     0.10182E-01 
  37811.2515     0.10234E-01 
  37843.5137     0.10285E-01 
  37875.7758     0.10336E-01 
  37908.0380     0.10387E-01 
  37940.3002     0.10438E-01 
  37972.5623     0.10489E-01 
  38004.8245     0.10539E-01 
  38037.0866     0.10590E-01 
  38069.3488     0.10640E-01 
  38101.6110     0.10690E-01 
  38133.8731     0.10740E-01 
  38166.1353     0.10790E-01 
  38198.3974     0.10840E-01 
  38230.6596     0.10889E-01 
  38262.9218     0.10938E-01 
  38295.1839     0.10987E-01 
  38327.4461     0.11036E-01 
  38359.7082     0.11085E-01 
  38391.9704     0.11133E-01 
  38424.2326     0.11182E-01 
  38456.4947     0.11230E-01 
  38488.7569     0.11277E-01 
  38521.0190     0.11325E-01 
  38553.2812     0.11373E-01 
  38585.5434     0.11420E-01 
  38617.8055     0.11467E-01 
  38650.0677     0.11513E-01 
  38682.3298     0.11560E-01 
  38714.5920     0.11606E-01 
  38746.8542     0.11652E-01 
  38779.1163     0.11698E-01 
  38811.3785     0.11743E-01 
  38843.6406     0.11789E-01 
  38875.9028     0.11834E-01 
  38908.1650     0.11878E-01 
  38940.4271     0.11923E-01 
  38972.6893     0.11967E-01 
  39004.9514     0.12011E-01 
  39037.2136     0.12055E-01 
  39069.4758     0.12098E-01 
  39101.7379     0.12141E-01 
  39134.0001     0.12184E-01 
  39166.2622     0.12227E-01 
  39198.5244     0.12269E-01 
  39230.7866     0.12311E-01 
  39263.0487     0.12352E-01 
  39295.3109     0.12394E-01 
  39327.5730     0.12435E-01 
  39359.8352     0.12476E-01 
  39392.0974     0.12516E-01 
  39424.3595     0.12556E-01 
  39456.6217     0.12596E-01 
  39488.8838     0.12636E-01 
  39521.1460     0.12675E-01 
  39553.4082     0.12714E-01 
  39585.6703     0.12752E-01 
  39617.9325     0.12790E-01 
  39650.1946     0.12828E-01 
  39682.4568     0.12866E-01 
  39714.7190     0.12903E-01 
  39746.9811     0.12940E-01 
  39779.2433     0.12976E-01 
  39811.5054     0.13012E-01 
  39843.7676     0.13048E-01 
  39876.0298     0.13084E-01 
  39908.2919     0.13119E-01 
  39940.5541     0.13153E-01 
  39972.8162     0.13188E-01 
  40005.0784     0.13222E-01 
  40037.3406     0.13255E-01 
  40069.6027     0.13289E-01 
  40101.8649     0.13322E-01 
  40134.1270     0.13354E-01 
  40166.3892     0.13386E-01 
  40198.6514     0.13418E-01 
  40230.9135     0.13450E-01 
  40263.1757     0.13481E-01 
  40295.4378     0.13511E-01 
  40327.7000     0.13541E-01 
  40359.9622     0.13571E-01 
  40392.2243     0.13601E-01 
  40424.4865     0.13630E-01 
  40456.7486     0.13659E-01 
  40489.0108     0.13687E-01 
  40521.2730     0.13715E-01 
  40553.5351     0.13742E-01 
  40585.7973     0.13769E-01 
  40618.0594     0.13796E-01 
  40650.3216     0.13822E-01 
  40682.5838     0.13848E-01 
  40714.8459     0.13874E-01 
  40747.1081     0.13899E-01 
  40779.3702     0.13923E-01 
  40811.6324     0.13947E-01 
  40843.8946     0.13971E-01 
  40876.1567     0.13995E-01 
  40908.4189     0.14018E-01 
  40940.6810     0.14040E-01 
  40972.9432     0.14062E-01 
  41005.2054     0.14084E-01 
  41037.4675     0.14105E-01 
  41069.7297     0.14126E-01 
  41101.9918     0.14147E-01 
  41134.2540     0.14167E-01 
  41166.5162     0.14186E-01 
  41198.7783     0.14205E-01 
  41231.0405     0.14224E-01 
  41263.3026     0.14242E-01 
  41295.5648     0.14260E-01 
  41327.8270     0.14278E-01 
  41360.0891     0.14295E-01 
  41392.3513     0.14311E-01 
  41424.6134     0.14327E-01 
  41456.8756     0.14343E-01 
  41489.1378     0.14358E-01 
  41521.3999     0.14373E-01 
  41553.6621     0.14388E-01 
  41585.9242     0.14402E-01 
  41618.1864     0.14415E-01 
  41650.4486     0.14428E-01 
  41682.7107     0.14441E-01 
  41714.9729     0.14453E-01 
  41747.2350     0.14465E-01 
  41779.4972     0.14476E-01 
  41811.7594     0.14487E-01 
  41844.0215     0.14497E-01 
  41876.2837     0.14507E-01 
  41908.5458     0.14517E-01 
  41940.8080     0.14526E-01 
  41973.0702     0.14535E-01 
  42005.3323     0.14543E-01 
  42037.5945     0.14551E-01 
  42069.8566     0.14558E-01 
  42102.1188     0.14565E-01 
  42134.3810     0.14571E-01 
  42166.6431     0.14577E-01 
  42198.9053     0.14583E-01 
  42231.1674     0.14588E-01 
  42263.4296     0.14593E-01 
  42295.6918     0.14597E-01 
  42327.9539     0.14601E-01 
  42360.2161     0.14604E-01 
  42392.4782     0.14607E-01 
  42424.7404     0.14610E-01 
  42457.0026     0.14612E-01 
  42489.2647     0.14613E-01 
  42521.5269     0.14614E-01 
  42553.7890     0.14615E-01 
  42586.0512     0.14616E-01 
  42618.3134     0.14615E-01 
  42650.5755     0.14615E-01 
  42682.8377     0.14614E-01 
  42715.0998     0.14612E-01 
  42747.3620     0.14611E-01 
  42779.6242     0.14608E-01 
  42811.8863     0.14606E-01 
  42844.1485     0.14603E-01 
  42876.4106     0.14599E-01 
  42908.6728     0.14595E-01 
  42940.9350     0.14591E-01 
  42973.1971     0.14586E-01 
  43005.4593     0.14581E-01 
  43037.7214     0.14575E-01 
  43069.9836     0.14569E-01 
  43102.2458     0.14562E-01 
  43134.5079     0.14555E-01 
  43166.7701     0.14548E-01 
  43199.0322     0.14540E-01 
  43231.2944     0.14532E-01 
  43263.5566     0.14523E-01 
  43295.8187     0.14514E-01 
  43328.0809     0.14505E-01 
  43360.3430     0.14495E-01 
  43392.6052     0.14485E-01 
  43424.8674     0.14474E-01 
  43457.1295     0.14463E-01 
  43489.3917     0.14452E-01 
  43521.6538     0.14440E-01 
  43553.9160     0.14428E-01 
  43586.1782     0.14415E-01 
  43618.4403     0.14402E-01 
  43650.7025     0.14389E-01 
  43682.9646     0.14375E-01 
  43715.2268     0.14361E-01 
  43747.4890     0.14346E-01 
  43779.7511     0.14331E-01 
  43812.0133     0.14316E-01 
  43844.2754     0.14300E-01 
  43876.5376     0.14284E-01 
  43908.7998     0.14268E-01 
  43941.0619     0.14251E-01 
  43973.3241     0.14234E-01 
  44005.5862     0.14216E-01 
  44037.8484     0.14198E-01 
  44070.1106     0.14180E-01 
  44102.3727     0.14161E-01 
  44134.6349     0.14142E-01 
  44166.8970     0.14123E-01 
  44199.1592     0.14103E-01 
  44231.4214     0.14083E-01 
  44263.6835     0.14062E-01 
  44295.9457     0.14041E-01 
  44328.2078     0.14020E-01 
  44360.4700     0.13999E-01 
  44392.7322     0.13977E-01 
  44424.9943     0.13955E-01 
  44457.2565     0.13932E-01 
  44489.5186     0.13909E-01 
  44521.7808     0.13886E-01 
  44554.0430     0.13863E-01 
  44586.3051     0.13839E-01 
  44618.5673     0.13814E-01 
  44650.8294     0.13790E-01 
  44683.0916     0.13765E-01 
  44715.3538     0.13740E-01 
  44747.6159     0.13714E-01 
  44779.8781     0.13689E-01 
  44812.1402     0.13662E-01 
  44844.4024     0.13636E-01 
  44876.6646     0.13609E-01 
  44908.9267     0.13582E-01 
  44941.1889     0.13555E-01 
  44973.4510     0.13527E-01 
  45005.7132     0.13499E-01 
  45037.9754     0.13471E-01 
  45070.2375     0.13443E-01 
  45102.4997     0.13414E-01 
  45134.7618     0.13385E-01 
  45167.0240     0.13355E-01 
  45199.2862     0.13326E-01 
  45231.5483     0.13296E-01 
  45263.8105     0.13265E-01 
  45296.0726     0.13235E-01 
  45328.3348     0.13204E-01 
  45360.5970     0.13173E-01 
  45392.8591     0.13142E-01 
  45425.1213     0.13110E-01 
  45457.3834     0.13079E-01 
  45489.6456     0.13047E-01 
  45521.9078     0.13014E-01 
  45554.1699     0.12982E-01 
  45586.4321     0.12949E-01 
  45618.6942     0.12916E-01 
  45650.9564     0.12883E-01 
  45683.2186     0.12849E-01 
  45715.4807     0.12815E-01 
  45747.7429     0.12781E-01 
  45780.0050     0.12747E-01 
  45812.2672     0.12713E-01 
  45844.5294     0.12678E-01 
  45876.7915     0.12643E-01 
  45909.0537     0.12608E-01 
  45941.3158     0.12573E-01 
  45973.5780     0.12537E-01 
  46005.8402     0.12501E-01 
  46038.1023     0.12465E-01 
  46070.3645     0.12429E-01 
  46102.6266     0.12393E-01 
  46134.8888     0.12356E-01 
  46167.1510     0.12319E-01 
  46199.4131     0.12282E-01 
  46231.6753     0.12245E-01 
  46263.9374     0.12208E-01 
  46296.1996     0.12170E-01 
  46328.4618     0.12133E-01 
  46360.7239     0.12095E-01 
  46392.9861     0.12057E-01 
  46425.2482     0.12019E-01 
  46457.5104     0.11980E-01 
  46489.7726     0.11942E-01 
  46522.0347     0.11903E-01 
  46554.2969     0.11864E-01 
  46586.5590     0.11825E-01 
  46618.8212     0.11786E-01 
  46651.0834     0.11746E-01 
  46683.3455     0.11707E-01 
  46715.6077     0.11667E-01 
  46747.8698     0.11627E-01 
  46780.1320     0.11587E-01 
  46812.3942     0.11547E-01 
  46844.6563     0.11507E-01 
  46876.9185     0.11467E-01 
  46909.1806     0.11426E-01 
  46941.4428     0.11386E-01 
  46973.7050     0.11345E-01 
  47005.9671     0.11304E-01 
  47038.2293     0.11263E-01 
  47070.4914     0.11222E-01 
  47102.7536     0.11181E-01 
  47135.0158     0.11140E-01 
  47167.2779     0.11098E-01 
  47199.5401     0.11057E-01 
  47231.8022     0.11015E-01 
  47264.0644     0.10973E-01 
  47296.3266     0.10931E-01 
  47328.5887     0.10889E-01 
  47360.8509     0.10847E-01 
  47393.1130     0.10805E-01 
  47425.3752     0.10763E-01 
  47457.6374     0.10721E-01 
  47489.8995     0.10678E-01 
  47522.1617     0.10636E-01 
  47554.4238     0.10593E-01 
  47586.6860     0.10551E-01 
  47618.9482     0.10508E-01 
  47651.2103     0.10466E-01 
  47683.4725     0.10423E-01 
  47715.7346     0.10380E-01 
  47747.9968     0.10337E-01 
  47780.2590     0.10294E-01 
  47812.5211     0.10251E-01 
  47844.7833     0.10208E-01 
  47877.0454     0.10165E-01 
  47909.3076     0.10121E-01 
  47941.5698     0.10078E-01 
  47973.8319     0.10035E-01 
  48006.0941     0.99916E-02 
  48038.3562     0.99482E-02 
  48070.6184     0.99048E-02 
  48102.8806     0.98614E-02 
  48135.1427     0.98179E-02 
  48167.4049     0.97744E-02 
  48199.6670     0.97309E-02 
  48231.9292     0.96873E-02 
  48264.1914     0.96438E-02 
  48296.4535     0.96002E-02 
  48328.7157     0.95566E-02 
  48360.9778     0.95129E-02 
  48393.2400     0.94693E-02 
  48425.5022     0.94257E-02 
  48457.7643     0.93820E-02 
  48490.0265     0.93383E-02 
  48522.2886     0.92947E-02 
  48554.5508     0.92510E-02 
  48586.8130     0.92073E-02 
  48619.0751     0.91637E-02 
  48651.3373     0.91200E-02 
  48683.5994     0.90763E-02 
  48715.8616     0.90327E-02 
  48748.1238     0.89890E-02 
  48780.3859     0.89454E-02 
  48812.6481     0.89018E-02 
  48844.9102     0.88582E-02 
  48877.1724     0.88146E-02 
  48909.4346     0.87711E-02 
  48941.6967     0.87275E-02 
  48973.9589     0.86840E-02 
  49006.2210     0.86405E-02 
  49038.4832     0.85971E-02 
  49070.7454     0.85537E-02 
  49103.0075     0.85103E-02 
  49135.2697     0.84669E-02 
  49167.5318     0.84236E-02 
  49199.7940     0.83803E-02 
  49232.0562     0.83371E-02 
  49264.3183     0.82939E-02 
  49296.5805     0.82507E-02 
  49328.8426     0.82076E-02 
  49361.1048     0.81645E-02 
  49393.3670     0.81215E-02 
  49425.6291     0.80786E-02 
  49457.8913     0.80356E-02 
  49490.1534     0.79928E-02 
  49522.4156     0.79500E-02 
  49554.6778     0.79072E-02 
  49586.9399     0.78646E-02 
  49619.2021     0.78219E-02 
  49651.4642     0.77794E-02 
  49683.7264     0.77369E-02 
  49715.9886     0.76944E-02 
  49748.2507     0.76521E-02 
  49780.5129     0.76098E-02 
  49812.7750     0.75675E-02 
  49845.0372     0.75254E-02 
  49877.2994     0.74833E-02 
  49909.5615     0.74413E-02 
  49941.8237     0.73994E-02 
  49974.0858     0.73575E-02 
  50006.3480     0.73157E-02 
  50038.6102     0.72740E-02 
  50070.8723     0.72324E-02 
  50103.1345     0.71909E-02 
  50135.3966     0.71494E-02 
  50167.6588     0.71081E-02 
  50199.9210     0.70668E-02 
  50232.1831     0.70256E-02 
  50264.4453     0.69845E-02 
  50296.7074     0.69435E-02 
  50328.9696     0.69026E-02 
  50361.2318     0.68618E-02 
  50393.4939     0.68211E-02 
  50425.7561     0.67805E-02 
  50458.0182     0.67399E-02 
  50490.2804     0.66995E-02 
  50522.5426     0.66592E-02 
  50554.8047     0.66189E-02 
  50587.0669     0.65788E-02 
  50619.3290     0.65388E-02 
  50651.5912     0.64989E-02 
  50683.8534     0.64590E-02 
  50716.1155     0.64193E-02 
  50748.3777     0.63797E-02 
  50780.6398     0.63402E-02 
  50812.9020     0.63009E-02 
  50845.1642     0.62616E-02 
  50877.4263     0.62224E-02 
  50909.6885     0.61834E-02 
  50941.9506     0.61444E-02 
  50974.2128     0.61056E-02 
  51006.4750     0.60669E-02 
  51038.7371     0.60283E-02 
  51070.9993     0.59898E-02 
  51103.2614     0.59515E-02 
  51135.5236     0.59132E-02 
  51167.7858     0.58751E-02 
  51200.0479     0.58371E-02 
  51232.3101     0.57992E-02 
  51264.5722     0.57614E-02 
  51296.8344     0.57238E-02 
  51329.0966     0.56863E-02 
  51361.3587     0.56489E-02 
  51393.6209     0.56116E-02 
  51425.8830     0.55745E-02 
  51458.1452     0.55375E-02 
  51490.4074     0.55006E-02 
  51522.6695     0.54638E-02 
  51554.9317     0.54272E-02 
  51587.1938     0.53907E-02 
  51619.4560     0.53543E-02 
  51651.7182     0.53181E-02 
  51683.9803     0.52819E-02 
  51716.2425     0.52460E-02 
  51748.5046     0.52101E-02 
  51780.7668     0.51744E-02 
  51813.0290     0.51388E-02 
  51845.2911     0.51033E-02 
  51877.5533     0.50680E-02 
  51909.8154     0.50328E-02 
  51942.0776     0.49978E-02 
  51974.3398     0.49629E-02 
  52006.6019     0.49281E-02 
  52038.8641     0.48934E-02 
  52071.1262     0.48589E-02 
  52103.3884     0.48246E-02 
  52135.6506     0.47903E-02 
  52167.9127     0.47562E-02 
  52200.1749     0.47223E-02 
  52232.4370     0.46884E-02 
  52264.6992     0.46548E-02 
  52296.9614     0.46212E-02 
  52329.2235     0.45878E-02 
  52361.4857     0.45545E-02 
  52393.7478     0.45214E-02 
  52426.0100     0.44884E-02 
  52458.2722     0.44556E-02 
  52490.5343     0.44229E-02 
  52522.7965     0.43903E-02 
  52555.0586     0.43579E-02 
  52587.3208     0.43256E-02 
  52619.5830     0.42935E-02 
  52651.8451     0.42615E-02 
  52684.1073     0.42296E-02 
  52716.3694     0.41979E-02 
  52748.6316     0.41664E-02 
  52780.8938     0.41349E-02 
  52813.1559     0.41037E-02 
  52845.4181     0.40725E-02 
  52877.6802     0.40415E-02 
  52909.9424     0.40107E-02 
  52942.2046     0.39800E-02 
  52974.4667     0.39494E-02 
  53006.7289     0.39190E-02 
  53038.9910     0.38887E-02 
  53071.2532     0.38585E-02 
  53103.5154     0.38285E-02 
  53135.7775     0.37987E-02 
  53168.0397     0.37690E-02 
  53200.3018     0.37394E-02 
  53232.5640     0.37100E-02 
  53264.8262     0.36807E-02 
  53297.0883     0.36516E-02 
  53329.3505     0.36226E-02 
  53361.6126     0.35938E-02 
  53393.8748     0.35651E-02 
  53426.1370     0.35365E-02 
  53458.3991     0.35081E-02 
  53490.6613     0.34798E-02 
  53522.9234     0.34517E-02 
  53555.1856     0.34237E-02 
  53587.4478     0.33959E-02 
  53619.7099     0.33682E-02 
  53651.9721     0.33406E-02 
  53684.2342     0.33132E-02 
  53716.4964     0.32860E-02 
  53748.7586     0.32588E-02 
  53781.0207     0.32318E-02 
  53813.2829     0.32050E-02 
  53845.5450     0.31783E-02 
  53877.8072     0.31518E-02 
  53910.0694     0.31253E-02 
  53942.3315     0.30991E-02 
  53974.5937     0.30729E-02 
  54006.8558     0.30469E-02 
  54039.1180     0.30211E-02 
  54071.3802     0.29954E-02 
  54103.6423     0.29698E-02 
  54135.9045     0.29444E-02 
  54168.1666     0.29191E-02 
  54200.4288     0.28940E-02 
  54232.6910     0.28690E-02 
  54264.9531     0.28441E-02 
  54297.2153     0.28194E-02 
  54329.4774     0.27948E-02 
  54361.7396     0.27704E-02 
  54394.0018     0.27460E-02 
  54426.2639     0.27219E-02 
  54458.5261     0.26978E-02 
  54490.7882     0.26740E-02 
  54523.0504     0.26502E-02 
  54555.3126     0.26266E-02 
  54587.5747     0.26031E-02 
  54619.8369     0.25798E-02 
  54652.0990     0.25565E-02 
  54684.3612     0.25335E-02 
  54716.6234     0.25105E-02 
  54748.8855     0.24877E-02 
  54781.1477     0.24651E-02 
  54813.4098     0.24425E-02 
  54845.6720     0.24201E-02 
  54877.9342     0.23979E-02 
  54910.1963     0.23757E-02 
  54942.4585     0.23538E-02 
  54974.7206     0.23319E-02 
  55006.9828     0.23102E-02 
  55039.2450     0.22886E-02 
  55071.5071     0.22671E-02 
  55103.7693     0.22458E-02 
  55136.0314     0.22246E-02 
  55168.2936     0.22035E-02 
  55200.5558     0.21826E-02 
  55232.8179     0.21617E-02 
  55265.0801     0.21411E-02 
  55297.3422     0.21205E-02 
  55329.6044     0.21001E-02 
  55361.8666     0.20798E-02 
  55394.1287     0.20596E-02 
  55426.3909     0.20396E-02 
  55458.6530     0.20197E-02 
  55490.9152     0.19999E-02 
  55523.1774     0.19802E-02 
  55555.4395     0.19607E-02 
  55587.7017     0.19413E-02 
  55619.9638     0.19220E-02 
  55652.2260     0.19029E-02 
  55684.4882     0.18838E-02 
  55716.7503     0.18649E-02 
  55749.0125     0.18461E-02 
  55781.2746     0.18275E-02 
  55813.5368     0.18089E-02 
  55845.7990     0.17905E-02 
  55878.0611     0.17722E-02 
  55910.3233     0.17541E-02 
  55942.5854     0.17360E-02 
  55974.8476     0.17181E-02 
  56007.1098     0.17003E-02 
  56039.3719     0.16826E-02 
  56071.6341     0.16650E-02 
  56103.8962     0.16475E-02 
  56136.1584     0.16302E-02 
  56168.4206     0.16130E-02 
  56200.6827     0.15959E-02 
  56232.9449     0.15789E-02 
  56265.2070     0.15620E-02 
  56297.4692     0.15453E-02 
  56329.7314     0.15287E-02 
  56361.9935     0.15121E-02 
  56394.2557     0.14957E-02 
  56426.5178     0.14794E-02 
  56458.7800     0.14633E-02 
  56491.0422     0.14472E-02 
  56523.3043     0.14312E-02 
  56555.5665     0.14154E-02 
  56587.8286     0.13997E-02 
  56620.0908     0.13841E-02 
  56652.3530     0.13686E-02 
  56684.6151     0.13532E-02 
  56716.8773     0.13379E-02 
  56749.1394     0.13227E-02 
  56781.4016     0.13076E-02 
  56813.6638     0.12927E-02 
  56845.9259     0.12778E-02 
  56878.1881     0.12631E-02 
  56910.4502     0.12485E-02 
  56942.7124     0.12339E-02 
  56974.9746     0.12195E-02 
  57007.2367     0.12052E-02 
  57039.4989     0.11910E-02 
  57071.7610     0.11769E-02 
  57104.0232     0.11629E-02 
  57136.2854     0.11490E-02 
  57168.5475     0.11352E-02 
  57200.8097     0.11215E-02 
  57233.0718     0.11079E-02 
  57265.3340     0.10944E-02 
  57297.5962     0.10810E-02 
  57329.8583     0.10678E-02 
  57362.1205     0.10546E-02 
  57394.3826     0.10415E-02 
  57426.6448     0.10285E-02 
  57458.9070     0.10156E-02 
  57491.1691     0.10029E-02 
  57523.4313     0.99018E-03 
  57555.6934     0.97760E-03 
  57587.9556     0.96511E-03 
  57620.2178     0.95272E-03 
  57652.4799     0.94043E-03 
  57684.7421     0.92823E-03 
  57717.0042     0.91613E-03 
  57749.2664     0.90413E-03 
  57781.5286     0.89222E-03 
  57813.7907     0.88040E-03 
  57846.0529     0.86868E-03 
  57878.3150     0.85706E-03 
  57910.5772     0.84553E-03 
  57942.8394     0.83409E-03 
  57975.1015     0.82274E-03 
  58007.3637     0.81148E-03 
  58039.6258     0.80032E-03 
  58071.8880     0.78925E-03 
  58104.1502     0.77827E-03 
  58136.4123     0.76738E-03 
  58168.6745     0.75658E-03 
  58200.9366     0.74587E-03 
  58233.1988     0.73525E-03 
  58265.4610     0.72472E-03 
  58297.7231     0.71428E-03 
  58329.9853     0.70392E-03 
  58362.2474     0.69366E-03 
  58394.5096     0.68348E-03 
  58426.7718     0.67339E-03 
  58459.0339     0.66338E-03 
  58491.2961     0.65346E-03 
  58523.5582     0.64363E-03 
  58555.8204     0.63388E-03 
  58588.0826     0.62422E-03 
  58620.3447     0.61464E-03 
  58652.6069     0.60515E-03 
  58684.8690     0.59574E-03 
  58717.1312     0.58642E-03 
  58749.3934     0.57718E-03 
  58781.6555     0.56802E-03 
  58813.9177     0.55895E-03 
  58846.1798     0.54996E-03 
  58878.4420     0.54105E-03 
  58910.7042     0.53222E-03 
  58942.9663     0.52347E-03 
  58975.2285     0.51481E-03 
  59007.4906     0.50622E-03 
  59039.7528     0.49772E-03 
  59072.0150     0.48930E-03 
  59104.2771     0.48095E-03 
  59136.5393     0.47269E-03 
  59168.8014     0.46450E-03 
  59201.0636     0.45640E-03 
  59233.3258     0.44837E-03 
  59265.5879     0.44043E-03 
  59297.8501     0.43256E-03 
  59330.1122     0.42477E-03 
  59362.3744     0.41705E-03 
  59394.6366     0.40942E-03 
  59426.8987     0.40186E-03 
  59459.1609     0.39438E-03 
  59491.4230     0.38697E-03 
  59523.6852     0.37964E-03 
  59555.9474     0.37239E-03 
  59588.2095     0.36522E-03 
  59620.4717     0.35812E-03 
  59652.7338     0.35109E-03 
  59684.9960     0.34415E-03 
  59717.2582     0.33727E-03 
  59749.5203     0.33048E-03 
  59781.7825     0.32375E-03 
  59814.0446     0.31710E-03 
  59846.3068     0.31053E-03 
  59878.5690     0.30403E-03 
  59910.8311     0.29761E-03 
  59943.0933     0.29126E-03 
  59975.3554     0.28498E-03 
  60007.6176     0.27877E-03 
  60039.8798     0.27265E-03 
  60072.1419     0.26659E-03 
  60104.4041     0.26061E-03 
  60136.6662     0.25470E-03 
  60168.9284     0.24886E-03 
  60201.1906     0.24310E-03 
  60233.4527     0.23741E-03 
  60265.7149     0.23179E-03 
  60297.9770     0.22625E-03 
  60330.2392     0.22077E-03 
  60362.5014     0.21537E-03 
  60394.7635     0.21005E-03 
  60427.0257     0.20479E-03 
  60459.2878     0.19961E-03 
  60491.5500     0.19450E-03 
  60523.8122     0.18947E-03 
  60556.0743     0.18450E-03 
  60588.3365     0.17961E-03 
  60620.5986     0.17479E-03 
  60652.8608     0.17005E-03 
  60685.1230     0.16537E-03 
  60717.3851     0.16077E-03 
  60749.6473     0.15624E-03 
  60781.9094     0.15179E-03 
  60814.1716     0.14740E-03 
  60846.4338     0.14309E-03 
  60878.6959     0.13885E-03 
  60910.9581     0.13469E-03 
  60943.2202     0.13060E-03 
  60975.4824     0.12658E-03 
  61007.7446     0.12263E-03 
  61040.0067     0.11876E-03 
  61072.2689     0.11496E-03 
  61104.5310     0.11124E-03 
  61136.7932     0.10759E-03 
  61169.0554     0.10401E-03 
  61201.3175     0.10051E-03 
  61233.5797     0.97079E-04 
  61265.8418     0.93726E-04 
  61298.1040     0.90447E-04 
  61330.3662     0.87244E-04 
  61362.6283     0.84116E-04 
  61394.8905     0.81064E-04 
  61427.1526     0.78088E-04 
  61459.4148     0.75188E-04 
  61491.6770     0.72364E-04 
  61523.9391     0.69618E-04 
  61556.2013     0.66948E-04 
  61588.4634     0.64357E-04 
  61620.7256     0.61843E-04 
  61652.9878     0.59407E-04 
  61685.2499     0.57050E-04 
  61717.5121     0.54773E-04 
  61749.7742     0.52575E-04 
  61782.0364     0.50456E-04 
  61814.2986     0.48419E-04 
  61846.5607     0.46462E-04 
  61878.8229     0.44587E-04 
  61911.0850     0.42793E-04 
  61943.3472     0.41082E-04 
  61975.6094     0.39454E-04 
  62007.8715     0.37910E-04 
  62040.1337     0.36450E-04 
  62072.3958     0.35074E-04 
  62104.6580     0.33784E-04 
  62136.9202     0.32580E-04 
  62169.1823     0.31462E-04 
  62201.4445     0.30432E-04 
  62233.7066     0.29490E-04 
  62265.9688     0.28636E-04 
  62298.2310     0.27872E-04 
  62330.4931     0.27199E-04 
  62362.7553     0.26616E-04 
  62395.0174     0.26125E-04 
  62427.2796     0.25727E-04 
  62459.5418     0.25422E-04 
  62491.8039     0.25212E-04 
  62524.0661     0.25097E-04 
  62556.3282     0.25078E-04 
  62588.5904     0.25156E-04 
  62620.8526     0.25332E-04 
  62653.1147     0.25607E-04 
  62685.3769     0.25983E-04 
  62717.6390     0.26459E-04 
  62749.9012     0.27038E-04 
  62782.1634     0.27720E-04 
  62814.4255     0.28507E-04 
  62846.6877     0.29399E-04 
  62878.9498     0.30398E-04 
  62911.2120     0.31505E-04 
  62943.4742     0.32721E-04 
  62975.7363     0.34048E-04 
  63007.9985     0.35486E-04 
  63040.2606     0.37037E-04 
  63072.5228     0.38703E-04 
  63104.7850     0.40485E-04 
  63137.0471     0.42384E-04 
  63169.3093     0.44402E-04 
  63201.5714     0.46540E-04 
  63233.8336     0.48800E-04 
  63266.0958     0.51184E-04 
  63298.3579     0.53692E-04 
  63330.6201     0.56327E-04 
  63362.8822     0.59090E-04 
  63395.1444     0.61983E-04 
  63427.4066     0.65007E-04 
  63459.6687     0.68165E-04 
  63491.9309     0.71459E-04 
  63524.1930     0.74889E-04 
  63556.4552     0.78459E-04 
  63588.7174     0.82169E-04 
  63620.9795     0.86023E-04 
  63653.2417     0.90021E-04 
  63685.5038     0.94166E-04 
  63717.7660     0.98461E-04 
  63750.0282     0.10291E-03 
  63782.2903     0.10751E-03 
  63814.5525     0.11226E-03 
  63846.8146     0.11717E-03 
  63879.0768     0.12225E-03 
  63911.3390     0.12748E-03 
  63943.6011     0.13289E-03 
  63975.8633     0.13845E-03 
  64008.1254     0.14419E-03 
  64040.3876     0.15011E-03 
  64072.6498     0.15619E-03 
  64104.9119     0.16246E-03 
  64137.1741     0.16890E-03 
  64169.4362     0.17553E-03 
  64201.6984     0.18235E-03 
  64233.9606     0.18936E-03 
  64266.2227     0.19655E-03 
  64298.4849     0.20395E-03 
  64330.7470     0.21154E-03 
  64363.0092     0.21933E-03 
  64395.2714     0.22733E-03 
  64427.5335     0.23554E-03 
  64459.7957     0.24395E-03 
  64492.0578     0.25258E-03 
  64524.3200     0.26143E-03 
  64556.5822     0.27051E-03 
  64588.8443     0.27980E-03 
  64621.1065     0.28933E-03 
  64653.3686     0.29908E-03 
  64685.6308     0.30908E-03 
  64717.8930     0.31931E-03 
  64750.1551     0.32979E-03 
  64782.4173     0.34052E-03 
  64814.6794     0.35149E-03 
  64846.9416     0.36273E-03 
  64879.2038     0.37422E-03 
  64911.4659     0.38598E-03 
  64943.7281     0.39801E-03 
  64975.9902     0.41031E-03 
  65008.2524     0.42289E-03 
  65040.5146     0.43575E-03 
  65072.7767     0.44890E-03 
  65105.0389     0.46234E-03 
  65137.3010     0.47607E-03 
  65169.5632     0.49011E-03 
  65201.8254     0.50446E-03 
  65234.0875     0.51911E-03 
  65266.3497     0.53408E-03 
  65298.6118     0.54938E-03 
  65330.8740     0.56500E-03 
  65363.1362     0.58095E-03 
  65395.3983     0.59725E-03 
  65427.6605     0.61388E-03 
  65459.9226     0.63087E-03 
  65492.1848     0.64821E-03 
  65524.4470     0.66591E-03 
  65556.7091     0.68398E-03 
  65588.9713     0.70242E-03 
  65621.2334     0.72124E-03 
  65653.4956     0.74045E-03 
  65685.7578     0.76005E-03 
  65718.0199     0.78005E-03 
  65750.2821     0.80045E-03 
  65782.5442     0.82126E-03 
  65814.8064     0.84249E-03 
  65847.0686     0.86415E-03 
  65879.3307     0.88624E-03 
  65911.5929     0.90877E-03 
  65943.8550     0.93174E-03 
  65976.1172     0.95517E-03 
  66008.3794     0.97906E-03 
  66040.6415     0.10034E-02 
  66072.9037     0.10283E-02 
  66105.1658     0.10536E-02 
  66137.4280     0.10794E-02 
  66169.6902     0.11057E-02 
  66201.9523     0.11325E-02 
  66234.2145     0.11599E-02 
  66266.4766     0.11877E-02 
  66298.7388     0.12161E-02 
  66331.0010     0.12450E-02 
  66363.2631     0.12745E-02 
  66395.5253     0.13046E-02 
  66427.7874     0.13352E-02 
  66460.0496     0.13664E-02 
  66492.3118     0.13982E-02 
  66524.5739     0.14305E-02 
  66556.8361     0.14635E-02 
  66589.0982     0.14971E-02 
  66621.3604     0.15313E-02 
  66653.6226     0.15662E-02 
  66685.8847     0.16017E-02 
  66718.1469     0.16378E-02 
  66750.4090     0.16746E-02 
  66782.6712     0.17121E-02 
  66814.9334     0.17503E-02 
  66847.1955     0.17892E-02 
  66879.4577     0.18287E-02 
  66911.7198     0.18690E-02 
  66943.9820     0.19101E-02 
  66976.2442     0.19518E-02 
  67008.5063     0.19943E-02 
  67040.7685     0.20376E-02 
  67073.0306     0.20817E-02 
  67105.2928     0.21265E-02 
  67137.5550     0.21722E-02 
  67169.8171     0.22186E-02 
  67202.0793     0.22659E-02 
  67234.3414     0.23140E-02 
  67266.6036     0.23629E-02 
  67298.8658     0.24128E-02 
  67331.1279     0.24635E-02 
  67363.3901     0.25150E-02 
  67395.6522     0.25675E-02 
  67427.9144     0.26209E-02 
  67460.1766     0.26752E-02 
  67492.4387     0.27305E-02 
  67524.7009     0.27867E-02 
  67556.9630     0.28438E-02 
  67589.2252     0.29020E-02 
  67621.4874     0.29611E-02 
  67653.7495     0.30213E-02 
  67686.0117     0.30825E-02 
  67718.2738     0.31447E-02 
  67750.5360     0.32080E-02 
  67782.7982     0.32723E-02 
  67815.0603     0.33377E-02 
  67847.3225     0.34042E-02 
  67879.5846     0.34719E-02 
  67911.8468     0.35406E-02 
  67944.1090     0.36106E-02 
  67976.3711     0.36816E-02 
  68008.6333     0.37539E-02 
  68040.8954     0.38273E-02 
  68073.1576     0.39020E-02 
  68105.4198     0.39778E-02 
  68137.6819     0.40549E-02 
  68169.9441     0.41333E-02 
  68202.2062     0.42130E-02 
  68234.4684     0.42939E-02 
  68266.7306     0.43762E-02 
  68298.9927     0.44598E-02 
  68331.2549     0.45447E-02 
  68363.5170     0.46310E-02 
  68395.7792     0.47187E-02 
  68428.0414     0.48077E-02 
  68460.3035     0.48982E-02 
  68492.5657     0.49901E-02 
  68524.8278     0.50835E-02 
  68557.0900     0.51784E-02 
  68589.3522     0.52747E-02 
  68621.6143     0.53725E-02 
  68653.8765     0.54719E-02 
  68686.1386     0.55728E-02 
  68718.4008     0.56753E-02 
  68750.6630     0.57794E-02 
  68782.9251     0.58851E-02 
  68815.1873     0.59924E-02 
  68847.4494     0.61013E-02 
  68879.7116     0.62120E-02 
  68911.9738     0.63243E-02 
  68944.2359     0.64383E-02 
  68976.4981     0.65540E-02 
  69008.7602     0.66715E-02 
  69041.0224     0.67908E-02 
  69073.2846     0.69118E-02 
  69105.5467     0.70346E-02 
  69137.8089     0.71593E-02 
  69170.0710     0.72858E-02 
  69202.3332     0.74142E-02 
  69234.5954     0.75445E-02 
  69266.8575     0.76768E-02 
  69299.1197     0.78109E-02 
  69331.3818     0.79470E-02 
  69363.6440     0.80851E-02 
  69395.9062     0.82252E-02 
  69428.1683     0.83673E-02 
  69460.4305     0.85114E-02 
  69492.6926     0.86577E-02 
  69524.9548     0.88060E-02 
  69557.2170     0.89564E-02 
  69589.4791     0.91090E-02 
  69621.7413     0.92637E-02 
  69654.0034     0.94206E-02 
  69686.2656     0.95797E-02 
  69718.5278     0.97410E-02 
  69750.7899     0.99046E-02 
  69783.0521     0.10070E-01 
  69815.3142     0.10239E-01 
  69847.5764     0.10409E-01 
  69879.8386     0.10582E-01 
  69912.1007     0.10757E-01 
  69944.3629     0.10935E-01 
  69976.6250     0.11115E-01 
  70008.8872     0.11297E-01 
  70041.1494     0.11482E-01 
  70073.4115     0.11669E-01 
  70105.6737     0.11859E-01 
  70137.9358     0.12052E-01 
  70170.1980     0.12246E-01 
  70202.4602     0.12444E-01 
  70234.7223     0.12644E-01 
  70266.9845     0.12847E-01 
  70299.2466     0.13052E-01 
  70331.5088     0.13260E-01 
  70363.7710     0.13471E-01 
  70396.0331     0.13685E-01 
  70428.2953     0.13901E-01 
  70460.5574     0.14120E-01 
  70492.8196     0.14341E-01 
  70525.0818     0.14566E-01 
  70557.3439     0.14793E-01 
  70589.6061     0.15024E-01 
  70621.8682     0.15257E-01 
  70654.1304     0.15493E-01 
  70686.3926     0.15732E-01 
  70718.6547     0.15974E-01 
  70750.9169     0.16219E-01 
  70783.1790     0.16467E-01 
  70815.4412     0.16718E-01 
  70847.7034     0.16972E-01 
  70879.9655     0.17229E-01 
  70912.2277     0.17489E-01 
  70944.4898     0.17752E-01 
  70976.7520     0.18019E-01 
  71009.0142     0.18289E-01 
  71041.2763     0.18561E-01 
  71073.5385     0.18837E-01 
  71105.8006     0.19117E-01 
  71138.0628     0.19399E-01 
  71170.3250     0.19685E-01 
  71202.5871     0.19974E-01 
  71234.8493     0.20266E-01 
  71267.1114     0.20562E-01 
  71299.3736     0.20861E-01 
  71331.6358     0.21164E-01 
  71363.8979     0.21470E-01 
  71396.1601     0.21779E-01 
  71428.4222     0.22092E-01 
  71460.6844     0.22408E-01 
  71492.9466     0.22728E-01 
  71525.2087     0.23051E-01 
  71557.4709     0.23378E-01 
  71589.7330     0.23708E-01 
  71621.9952     0.24042E-01 
  71654.2574     0.24380E-01 
  71686.5195     0.24721E-01 
  71718.7817     0.25066E-01 
  71751.0438     0.25414E-01 
  71783.3060     0.25766E-01 
  71815.5682     0.26122E-01 
  71847.8303     0.26481E-01 
  71880.0925     0.26845E-01 
  71912.3546     0.27212E-01 
  71944.6168     0.27582E-01 
  71976.8790     0.27957E-01 
  72009.1411     0.28335E-01 
  72041.4033     0.28718E-01 
  72073.6654     0.29104E-01 
  72105.9276     0.29493E-01 
  72138.1898     0.29887E-01 
  72170.4519     0.30285E-01 
  72202.7141     0.30686E-01 
  72234.9762     0.31092E-01 
  72267.2384     0.31501E-01 
  72299.5006     0.31914E-01 
  72331.7627     0.32332E-01 
  72364.0249     0.32753E-01 
  72396.2870     0.33178E-01 
  72428.5492     0.33607E-01 
  72460.8114     0.34041E-01 
  72493.0735     0.34478E-01 
  72525.3357     0.34919E-01 
  72557.5978     0.35364E-01 
  72589.8600     0.35814E-01 
