  32262.1600     0.12928E+01 
  32294.4222     0.12992E+01 
  32326.6843     0.13056E+01 
  32358.9465     0.13120E+01 
  32391.2086     0.13184E+01 
  32423.4708     0.13248E+01 
  32455.7330     0.13313E+01 
  32487.9951     0.13377E+01 
  32520.2573     0.13442E+01 
  32552.5194     0.13508E+01 
  32584.7816     0.13573E+01 
  32617.0438     0.13638E+01 
  32649.3059     0.13704E+01 
  32681.5681     0.13770E+01 
  32713.8302     0.13836E+01 
  32746.0924     0.13902E+01 
  32778.3546     0.13969E+01 
  32810.6167     0.14036E+01 
  32842.8789     0.14103E+01 
  32875.1410     0.14170E+01 
  32907.4032     0.14237E+01 
  32939.6654     0.14304E+01 
  32971.9275     0.14372E+01 
  33004.1897     0.14440E+01 
  33036.4518     0.14508E+01 
  33068.7140     0.14576E+01 
  33100.9762     0.14644E+01 
  33133.2383     0.14713E+01 
  33165.5005     0.14782E+01 
  33197.7626     0.14851E+01 
  33230.0248     0.14920E+01 
  33262.2870     0.14989E+01 
  33294.5491     0.15059E+01 
  33326.8113     0.15129E+01 
  33359.0734     0.15198E+01 
  33391.3356     0.15269E+01 
  33423.5978     0.15339E+01 
  33455.8599     0.15409E+01 
  33488.1221     0.15480E+01 
  33520.3842     0.15551E+01 
  33552.6464     0.15622E+01 
  33584.9086     0.15693E+01 
  33617.1707     0.15764E+01 
  33649.4329     0.15836E+01 
  33681.6950     0.15908E+01 
  33713.9572     0.15980E+01 
  33746.2194     0.16052E+01 
  33778.4815     0.16124E+01 
  33810.7437     0.16197E+01 
  33843.0058     0.16269E+01 
  33875.2680     0.16342E+01 
  33907.5302     0.16415E+01 
  33939.7923     0.16488E+01 
  33972.0545     0.16562E+01 
  34004.3166     0.16635E+01 
  34036.5788     0.16709E+01 
  34068.8410     0.16783E+01 
  34101.1031     0.16857E+01 
  34133.3653     0.16931E+01 
  34165.6274     0.17006E+01 
  34197.8896     0.17080E+01 
  34230.1518     0.17155E+01 
  34262.4139     0.17230E+01 
  34294.6761     0.17305E+01 
  34326.9382     0.17380E+01 
  34359.2004     0.17456E+01 
  34391.4626     0.17532E+01 
  34423.7247     0.17607E+01 
  34455.9869     0.17683E+01 
  34488.2490     0.17760E+01 
  34520.5112     0.17836E+01 
  34552.7734     0.17912E+01 
  34585.0355     0.17989E+01 
  34617.2977     0.18066E+01 
  34649.5598     0.18143E+01 
  34681.8220     0.18220E+01 
  34714.0842     0.18297E+01 
  34746.3463     0.18375E+01 
  34778.6085     0.18453E+01 
  34810.8706     0.18530E+01 
  34843.1328     0.18608E+01 
  34875.3950     0.18686E+01 
  34907.6571     0.18765E+01 
  34939.9193     0.18843E+01 
  34972.1814     0.18922E+01 
  35004.4436     0.19001E+01 
  35036.7058     0.19080E+01 
  35068.9679     0.19159E+01 
  35101.2301     0.19238E+01 
  35133.4922     0.19318E+01 
  35165.7544     0.19397E+01 
  35198.0166     0.19477E+01 
  35230.2787     0.19557E+01 
  35262.5409     0.19637E+01 
  35294.8030     0.19717E+01 
  35327.0652     0.19797E+01 
  35359.3274     0.19878E+01 
  35391.5895     0.19959E+01 
  35423.8517     0.20039E+01 
  35456.1138     0.20120E+01 
  35488.3760     0.20202E+01 
  35520.6382     0.20283E+01 
  35552.9003     0.20364E+01 
  35585.1625     0.20446E+01 
  35617.4246     0.20528E+01 
  35649.6868     0.20609E+01 
  35681.9490     0.20691E+01 
  35714.2111     0.20774E+01 
  35746.4733     0.20856E+01 
  35778.7354     0.20938E+01 
  35810.9976     0.21021E+01 
  35843.2598     0.21104E+01 
  35875.5219     0.21186E+01 
  35907.7841     0.21269E+01 
  35940.0462     0.21353E+01 
  35972.3084     0.21436E+01 
  36004.5706     0.21519E+01 
  36036.8327     0.21603E+01 
  36069.0949     0.21687E+01 
  36101.3570     0.21770E+01 
  36133.6192     0.21854E+01 
  36165.8814     0.21938E+01 
  36198.1435     0.22023E+01 
  36230.4057     0.22107E+01 
  36262.6678     0.22191E+01 
  36294.9300     0.22276E+01 
  36327.1922     0.22361E+01 
  36359.4543     0.22446E+01 
  36391.7165     0.22531E+01 
  36423.9786     0.22616E+01 
  36456.2408     0.22701E+01 
  36488.5030     0.22786E+01 
  36520.7651     0.22872E+01 
  36553.0273     0.22958E+01 
  36585.2894     0.23043E+01 
  36617.5516     0.23129E+01 
  36649.8138     0.23215E+01 
  36682.0759     0.23301E+01 
  36714.3381     0.23388E+01 
  36746.6002     0.23474E+01 
  36778.8624     0.23560E+01 
  36811.1246     0.23647E+01 
  36843.3867     0.23734E+01 
  36875.6489     0.23820E+01 
  36907.9110     0.23907E+01 
  36940.1732     0.23994E+01 
  36972.4354     0.24082E+01 
  37004.6975     0.24169E+01 
  37036.9597     0.24256E+01 
  37069.2218     0.24344E+01 
  37101.4840     0.24431E+01 
  37133.7462     0.24519E+01 
  37166.0083     0.24607E+01 
  37198.2705     0.24695E+01 
  37230.5326     0.24783E+01 
  37262.7948     0.24871E+01 
  37295.0570     0.24959E+01 
  37327.3191     0.25047E+01 
  37359.5813     0.25136E+01 
  37391.8434     0.25224E+01 
  37424.1056     0.25313E+01 
  37456.3678     0.25401E+01 
  37488.6299     0.25490E+01 
  37520.8921     0.25579E+01 
  37553.1542     0.25668E+01 
  37585.4164     0.25757E+01 
  37617.6786     0.25846E+01 
  37649.9407     0.25935E+01 
  37682.2029     0.26025E+01 
  37714.4650     0.26114E+01 
  37746.7272     0.26204E+01 
  37778.9894     0.26293E+01 
  37811.2515     0.26383E+01 
  37843.5137     0.26473E+01 
  37875.7758     0.26563E+01 
  37908.0380     0.26652E+01 
  37940.3002     0.26742E+01 
  37972.5623     0.26833E+01 
  38004.8245     0.26923E+01 
  38037.0866     0.27013E+01 
  38069.3488     0.27103E+01 
  38101.6110     0.27194E+01 
  38133.8731     0.27284E+01 
  38166.1353     0.27375E+01 
  38198.3974     0.27465E+01 
  38230.6596     0.27556E+01 
  38262.9218     0.27647E+01 
  38295.1839     0.27738E+01 
  38327.4461     0.27828E+01 
  38359.7082     0.27919E+01 
  38391.9704     0.28010E+01 
  38424.2326     0.28102E+01 
  38456.4947     0.28193E+01 
  38488.7569     0.28284E+01 
  38521.0190     0.28375E+01 
  38553.2812     0.28467E+01 
  38585.5434     0.28558E+01 
  38617.8055     0.28649E+01 
  38650.0677     0.28741E+01 
  38682.3298     0.28832E+01 
  38714.5920     0.28924E+01 
  38746.8542     0.29016E+01 
  38779.1163     0.29107E+01 
  38811.3785     0.29199E+01 
  38843.6406     0.29291E+01 
  38875.9028     0.29383E+01 
  38908.1650     0.29475E+01 
  38940.4271     0.29567E+01 
  38972.6893     0.29659E+01 
  39004.9514     0.29751E+01 
  39037.2136     0.29843E+01 
  39069.4758     0.29935E+01 
  39101.7379     0.30027E+01 
  39134.0001     0.30119E+01 
  39166.2622     0.30212E+01 
  39198.5244     0.30304E+01 
  39230.7866     0.30396E+01 
  39263.0487     0.30489E+01 
  39295.3109     0.30581E+01 
  39327.5730     0.30674E+01 
  39359.8352     0.30766E+01 
  39392.0974     0.30858E+01 
  39424.3595     0.30951E+01 
  39456.6217     0.31044E+01 
  39488.8838     0.31136E+01 
  39521.1460     0.31229E+01 
  39553.4082     0.31321E+01 
  39585.6703     0.31414E+01 
  39617.9325     0.31507E+01 
  39650.1946     0.31599E+01 
  39682.4568     0.31692E+01 
  39714.7190     0.31785E+01 
  39746.9811     0.31877E+01 
  39779.2433     0.31970E+01 
  39811.5054     0.32063E+01 
  39843.7676     0.32156E+01 
  39876.0298     0.32249E+01 
  39908.2919     0.32341E+01 
  39940.5541     0.32434E+01 
  39972.8162     0.32527E+01 
  40005.0784     0.32620E+01 
  40037.3406     0.32713E+01 
  40069.6027     0.32806E+01 
  40101.8649     0.32898E+01 
  40134.1270     0.32991E+01 
  40166.3892     0.33084E+01 
  40198.6514     0.33177E+01 
  40230.9135     0.33270E+01 
  40263.1757     0.33363E+01 
  40295.4378     0.33456E+01 
  40327.7000     0.33549E+01 
  40359.9622     0.33641E+01 
  40392.2243     0.33734E+01 
  40424.4865     0.33827E+01 
  40456.7486     0.33920E+01 
  40489.0108     0.34013E+01 
  40521.2730     0.34105E+01 
  40553.5351     0.34198E+01 
  40585.7973     0.34291E+01 
  40618.0594     0.34384E+01 
  40650.3216     0.34477E+01 
  40682.5838     0.34569E+01 
  40714.8459     0.34662E+01 
  40747.1081     0.34755E+01 
  40779.3702     0.34847E+01 
  40811.6324     0.34940E+01 
  40843.8946     0.35033E+01 
  40876.1567     0.35125E+01 
  40908.4189     0.35218E+01 
  40940.6810     0.35310E+01 
  40972.9432     0.35403E+01 
  41005.2054     0.35495E+01 
  41037.4675     0.35588E+01 
  41069.7297     0.35680E+01 
  41101.9918     0.35773E+01 
  41134.2540     0.35865E+01 
  41166.5162     0.35957E+01 
  41198.7783     0.36050E+01 
  41231.0405     0.36142E+01 
  41263.3026     0.36234E+01 
  41295.5648     0.36326E+01 
  41327.8270     0.36419E+01 
  41360.0891     0.36511E+01 
  41392.3513     0.36603E+01 
  41424.6134     0.36695E+01 
  41456.8756     0.36787E+01 
  41489.1378     0.36879E+01 
  41521.3999     0.36971E+01 
  41553.6621     0.37062E+01 
  41585.9242     0.37154E+01 
  41618.1864     0.37246E+01 
  41650.4486     0.37338E+01 
  41682.7107     0.37429E+01 
  41714.9729     0.37521E+01 
  41747.2350     0.37612E+01 
  41779.4972     0.37704E+01 
  41811.7594     0.37795E+01 
  41844.0215     0.37887E+01 
  41876.2837     0.37978E+01 
  41908.5458     0.38069E+01 
  41940.8080     0.38160E+01 
  41973.0702     0.38252E+01 
  42005.3323     0.38343E+01 
  42037.5945     0.38434E+01 
  42069.8566     0.38525E+01 
  42102.1188     0.38615E+01 
  42134.3810     0.38706E+01 
  42166.6431     0.38797E+01 
  42198.9053     0.38888E+01 
  42231.1674     0.38978E+01 
  42263.4296     0.39069E+01 
  42295.6918     0.39159E+01 
  42327.9539     0.39249E+01 
  42360.2161     0.39340E+01 
  42392.4782     0.39430E+01 
  42424.7404     0.39520E+01 
  42457.0026     0.39610E+01 
  42489.2647     0.39700E+01 
  42521.5269     0.39790E+01 
  42553.7890     0.39880E+01 
  42586.0512     0.39970E+01 
  42618.3134     0.40059E+01 
  42650.5755     0.40149E+01 
  42682.8377     0.40238E+01 
  42715.0998     0.40328E+01 
  42747.3620     0.40417E+01 
  42779.6242     0.40506E+01 
  42811.8863     0.40595E+01 
  42844.1485     0.40684E+01 
  42876.4106     0.40773E+01 
  42908.6728     0.40862E+01 
  42940.9350     0.40951E+01 
  42973.1971     0.41040E+01 
  43005.4593     0.41128E+01 
  43037.7214     0.41217E+01 
  43069.9836     0.41305E+01 
  43102.2458     0.41393E+01 
  43134.5079     0.41482E+01 
  43166.7701     0.41570E+01 
  43199.0322     0.41658E+01 
  43231.2944     0.41745E+01 
  43263.5566     0.41833E+01 
  43295.8187     0.41921E+01 
  43328.0809     0.42009E+01 
  43360.3430     0.42096E+01 
  43392.6052     0.42183E+01 
  43424.8674     0.42271E+01 
  43457.1295     0.42358E+01 
  43489.3917     0.42445E+01 
  43521.6538     0.42532E+01 
  43553.9160     0.42619E+01 
  43586.1782     0.42705E+01 
  43618.4403     0.42792E+01 
  43650.7025     0.42878E+01 
  43682.9646     0.42965E+01 
  43715.2268     0.43051E+01 
  43747.4890     0.43137E+01 
  43779.7511     0.43223E+01 
  43812.0133     0.43309E+01 
  43844.2754     0.43395E+01 
  43876.5376     0.43481E+01 
  43908.7998     0.43566E+01 
  43941.0619     0.43652E+01 
  43973.3241     0.43737E+01 
  44005.5862     0.43822E+01 
  44037.8484     0.43907E+01 
  44070.1106     0.43992E+01 
  44102.3727     0.44077E+01 
  44134.6349     0.44162E+01 
  44166.8970     0.44246E+01 
  44199.1592     0.44331E+01 
  44231.4214     0.44415E+01 
  44263.6835     0.44499E+01 
  44295.9457     0.44583E+01 
  44328.2078     0.44667E+01 
  44360.4700     0.44751E+01 
  44392.7322     0.44835E+01 
  44424.9943     0.44918E+01 
  44457.2565     0.45002E+01 
  44489.5186     0.45085E+01 
  44521.7808     0.45168E+01 
  44554.0430     0.45251E+01 
  44586.3051     0.45334E+01 
  44618.5673     0.45417E+01 
  44650.8294     0.45500E+01 
  44683.0916     0.45582E+01 
  44715.3538     0.45665E+01 
  44747.6159     0.45747E+01 
  44779.8781     0.45829E+01 
  44812.1402     0.45911E+01 
  44844.4024     0.45993E+01 
  44876.6646     0.46074E+01 
  44908.9267     0.46156E+01 
  44941.1889     0.46237E+01 
  44973.4510     0.46319E+01 
  45005.7132     0.46400E+01 
  45037.9754     0.46481E+01 
  45070.2375     0.46561E+01 
  45102.4997     0.46642E+01 
  45134.7618     0.46723E+01 
  45167.0240     0.46803E+01 
  45199.2862     0.46883E+01 
  45231.5483     0.46964E+01 
  45263.8105     0.47044E+01 
  45296.0726     0.47123E+01 
  45328.3348     0.47203E+01 
  45360.5970     0.47283E+01 
  45392.8591     0.47362E+01 
  45425.1213     0.47441E+01 
  45457.3834     0.47521E+01 
  45489.6456     0.47599E+01 
  45521.9078     0.47678E+01 
  45554.1699     0.47757E+01 
  45586.4321     0.47836E+01 
  45618.6942     0.47914E+01 
  45650.9564     0.47992E+01 
  45683.2186     0.48070E+01 
  45715.4807     0.48148E+01 
  45747.7429     0.48226E+01 
  45780.0050     0.48304E+01 
  45812.2672     0.48381E+01 
  45844.5294     0.48459E+01 
  45876.7915     0.48536E+01 
  45909.0537     0.48613E+01 
  45941.3158     0.48690E+01 
  45973.5780     0.48767E+01 
  46005.8402     0.48843E+01 
  46038.1023     0.48920E+01 
  46070.3645     0.48996E+01 
  46102.6266     0.49072E+01 
  46134.8888     0.49148E+01 
  46167.1510     0.49224E+01 
  46199.4131     0.49300E+01 
  46231.6753     0.49375E+01 
  46263.9374     0.49451E+01 
  46296.1996     0.49526E+01 
  46328.4618     0.49601E+01 
  46360.7239     0.49676E+01 
  46392.9861     0.49751E+01 
  46425.2482     0.49825E+01 
  46457.5104     0.49900E+01 
  46489.7726     0.49974E+01 
  46522.0347     0.50049E+01 
  46554.2969     0.50123E+01 
  46586.5590     0.50197E+01 
  46618.8212     0.50270E+01 
  46651.0834     0.50344E+01 
  46683.3455     0.50417E+01 
  46715.6077     0.50491E+01 
  46747.8698     0.50564E+01 
  46780.1320     0.50637E+01 
  46812.3942     0.50710E+01 
  46844.6563     0.50783E+01 
  46876.9185     0.50855E+01 
  46909.1806     0.50928E+01 
  46941.4428     0.51000E+01 
  46973.7050     0.51072E+01 
  47005.9671     0.51144E+01 
  47038.2293     0.51216E+01 
  47070.4914     0.51288E+01 
  47102.7536     0.51359E+01 
  47135.0158     0.51430E+01 
  47167.2779     0.51502E+01 
  47199.5401     0.51573E+01 
  47231.8022     0.51644E+01 
  47264.0644     0.51715E+01 
  47296.3266     0.51785E+01 
  47328.5887     0.51856E+01 
  47360.8509     0.51926E+01 
  47393.1130     0.51996E+01 
  47425.3752     0.52067E+01 
  47457.6374     0.52137E+01 
  47489.8995     0.52206E+01 
  47522.1617     0.52276E+01 
  47554.4238     0.52346E+01 
  47586.6860     0.52415E+01 
  47618.9482     0.52484E+01 
  47651.2103     0.52553E+01 
  47683.4725     0.52622E+01 
  47715.7346     0.52691E+01 
  47747.9968     0.52760E+01 
  47780.2590     0.52829E+01 
  47812.5211     0.52897E+01 
  47844.7833     0.52965E+01 
  47877.0454     0.53033E+01 
  47909.3076     0.53101E+01 
  47941.5698     0.53169E+01 
  47973.8319     0.53237E+01 
  48006.0941     0.53305E+01 
  48038.3562     0.53372E+01 
  48070.6184     0.53440E+01 
  48102.8806     0.53507E+01 
  48135.1427     0.53574E+01 
  48167.4049     0.53641E+01 
  48199.6670     0.53708E+01 
  48231.9292     0.53775E+01 
  48264.1914     0.53841E+01 
  48296.4535     0.53908E+01 
  48328.7157     0.53974E+01 
  48360.9778     0.54040E+01 
  48393.2400     0.54107E+01 
  48425.5022     0.54173E+01 
  48457.7643     0.54238E+01 
  48490.0265     0.54304E+01 
  48522.2886     0.54370E+01 
  48554.5508     0.54435E+01 
  48586.8130     0.54501E+01 
  48619.0751     0.54566E+01 
  48651.3373     0.54631E+01 
  48683.5994     0.54696E+01 
  48715.8616     0.54761E+01 
  48748.1238     0.54826E+01 
  48780.3859     0.54891E+01 
  48812.6481     0.54956E+01 
  48844.9102     0.55020E+01 
  48877.1724     0.55085E+01 
  48909.4346     0.55149E+01 
  48941.6967     0.55213E+01 
  48973.9589     0.55277E+01 
  49006.2210     0.55341E+01 
  49038.4832     0.55405E+01 
  49070.7454     0.55469E+01 
  49103.0075     0.55533E+01 
  49135.2697     0.55596E+01 
  49167.5318     0.55660E+01 
  49199.7940     0.55723E+01 
  49232.0562     0.55787E+01 
  49264.3183     0.55850E+01 
  49296.5805     0.55913E+01 
  49328.8426     0.55976E+01 
  49361.1048     0.56039E+01 
  49393.3670     0.56102E+01 
  49425.6291     0.56165E+01 
  49457.8913     0.56228E+01 
  49490.1534     0.56290E+01 
  49522.4156     0.56353E+01 
  49554.6778     0.56415E+01 
  49586.9399     0.56478E+01 
  49619.2021     0.56540E+01 
  49651.4642     0.56602E+01 
  49683.7264     0.56665E+01 
  49715.9886     0.56727E+01 
  49748.2507     0.56789E+01 
  49780.5129     0.56851E+01 
  49812.7750     0.56913E+01 
  49845.0372     0.56975E+01 
  49877.2994     0.57037E+01 
  49909.5615     0.57098E+01 
  49941.8237     0.57160E+01 
  49974.0858     0.57222E+01 
  50006.3480     0.57283E+01 
  50038.6102     0.57345E+01 
  50070.8723     0.57407E+01 
  50103.1345     0.57468E+01 
  50135.3966     0.57529E+01 
  50167.6588     0.57591E+01 
  50199.9210     0.57652E+01 
  50232.1831     0.57713E+01 
  50264.4453     0.57775E+01 
  50296.7074     0.57836E+01 
  50328.9696     0.57897E+01 
  50361.2318     0.57958E+01 
  50393.4939     0.58019E+01 
  50425.7561     0.58080E+01 
  50458.0182     0.58142E+01 
  50490.2804     0.58203E+01 
  50522.5426     0.58264E+01 
  50554.8047     0.58325E+01 
  50587.0669     0.58386E+01 
  50619.3290     0.58447E+01 
  50651.5912     0.58508E+01 
  50683.8534     0.58569E+01 
  50716.1155     0.58629E+01 
  50748.3777     0.58690E+01 
  50780.6398     0.58751E+01 
  50812.9020     0.58812E+01 
  50845.1642     0.58873E+01 
  50877.4263     0.58934E+01 
  50909.6885     0.58995E+01 
  50941.9506     0.59056E+01 
  50974.2128     0.59117E+01 
  51006.4750     0.59178E+01 
  51038.7371     0.59239E+01 
  51070.9993     0.59300E+01 
  51103.2614     0.59361E+01 
  51135.5236     0.59422E+01 
  51167.7858     0.59483E+01 
  51200.0479     0.59544E+01 
  51232.3101     0.59605E+01 
  51264.5722     0.59667E+01 
  51296.8344     0.59728E+01 
  51329.0966     0.59789E+01 
  51361.3587     0.59850E+01 
  51393.6209     0.59912E+01 
  51425.8830     0.59973E+01 
  51458.1452     0.60034E+01 
  51490.4074     0.60096E+01 
  51522.6695     0.60157E+01 
  51554.9317     0.60219E+01 
  51587.1938     0.60281E+01 
  51619.4560     0.60342E+01 
  51651.7182     0.60404E+01 
  51683.9803     0.60466E+01 
  51716.2425     0.60528E+01 
  51748.5046     0.60590E+01 
  51780.7668     0.60652E+01 
  51813.0290     0.60714E+01 
  51845.2911     0.60776E+01 
  51877.5533     0.60839E+01 
  51909.8154     0.60901E+01 
  51942.0776     0.60964E+01 
  51974.3398     0.61026E+01 
  52006.6019     0.61089E+01 
  52038.8641     0.61152E+01 
  52071.1262     0.61215E+01 
  52103.3884     0.61278E+01 
  52135.6506     0.61341E+01 
  52167.9127     0.61404E+01 
  52200.1749     0.61467E+01 
  52232.4370     0.61531E+01 
  52264.6992     0.61594E+01 
  52296.9614     0.61658E+01 
  52329.2235     0.61722E+01 
  52361.4857     0.61786E+01 
  52393.7478     0.61850E+01 
  52426.0100     0.61914E+01 
  52458.2722     0.61978E+01 
  52490.5343     0.62043E+01 
  52522.7965     0.62108E+01 
  52555.0586     0.62172E+01 
  52587.3208     0.62237E+01 
  52619.5830     0.62303E+01 
  52651.8451     0.62368E+01 
  52684.1073     0.62433E+01 
  52716.3694     0.62499E+01 
  52748.6316     0.62565E+01 
  52780.8938     0.62631E+01 
  52813.1559     0.62697E+01 
  52845.4181     0.62763E+01 
  52877.6802     0.62830E+01 
  52909.9424     0.62897E+01 
  52942.2046     0.62964E+01 
  52974.4667     0.63031E+01 
  53006.7289     0.63098E+01 
  53038.9910     0.63166E+01 
  53071.2532     0.63233E+01 
  53103.5154     0.63301E+01 
  53135.7775     0.63369E+01 
  53168.0397     0.63438E+01 
  53200.3018     0.63506E+01 
  53232.5640     0.63575E+01 
  53264.8262     0.63644E+01 
  53297.0883     0.63714E+01 
  53329.3505     0.63783E+01 
  53361.6126     0.63853E+01 
  53393.8748     0.63923E+01 
  53426.1370     0.63993E+01 
  53458.3991     0.64064E+01 
  53490.6613     0.64135E+01 
  53522.9234     0.64206E+01 
  53555.1856     0.64277E+01 
  53587.4478     0.64349E+01 
  53619.7099     0.64421E+01 
  53651.9721     0.64493E+01 
  53684.2342     0.64565E+01 
  53716.4964     0.64638E+01 
  53748.7586     0.64711E+01 
  53781.0207     0.64784E+01 
  53813.2829     0.64858E+01 
  53845.5450     0.64932E+01 
  53877.8072     0.65006E+01 
  53910.0694     0.65081E+01 
  53942.3315     0.65156E+01 
  53974.5937     0.65231E+01 
  54006.8558     0.65306E+01 
  54039.1180     0.65382E+01 
  54071.3802     0.65458E+01 
  54103.6423     0.65535E+01 
  54135.9045     0.65612E+01 
  54168.1666     0.65689E+01 
  54200.4288     0.65766E+01 
  54232.6910     0.65844E+01 
  54264.9531     0.65922E+01 
  54297.2153     0.66001E+01 
  54329.4774     0.66080E+01 
  54361.7396     0.66159E+01 
  54394.0018     0.66239E+01 
  54426.2639     0.66319E+01 
  54458.5261     0.66400E+01 
  54490.7882     0.66481E+01 
  54523.0504     0.66562E+01 
  54555.3126     0.66644E+01 
  54587.5747     0.66726E+01 
  54619.8369     0.66808E+01 
  54652.0990     0.66891E+01 
  54684.3612     0.66975E+01 
  54716.6234     0.67058E+01 
  54748.8855     0.67142E+01 
  54781.1477     0.67227E+01 
  54813.4098     0.67312E+01 
  54845.6720     0.67398E+01 
  54877.9342     0.67484E+01 
  54910.1963     0.67570E+01 
  54942.4585     0.67657E+01 
  54974.7206     0.67744E+01 
  55006.9828     0.67832E+01 
  55039.2450     0.67920E+01 
  55071.5071     0.68009E+01 
  55103.7693     0.68098E+01 
  55136.0314     0.68188E+01 
  55168.2936     0.68278E+01 
  55200.5558     0.68369E+01 
  55232.8179     0.68460E+01 
  55265.0801     0.68552E+01 
  55297.3422     0.68644E+01 
  55329.6044     0.68737E+01 
  55361.8666     0.68830E+01 
  55394.1287     0.68924E+01 
  55426.3909     0.69018E+01 
  55458.6530     0.69113E+01 
  55490.9152     0.69208E+01 
  55523.1774     0.69304E+01 
  55555.4395     0.69400E+01 
  55587.7017     0.69497E+01 
  55619.9638     0.69595E+01 
  55652.2260     0.69693E+01 
  55684.4882     0.69792E+01 
  55716.7503     0.69891E+01 
  55749.0125     0.69991E+01 
  55781.2746     0.70091E+01 
  55813.5368     0.70192E+01 
  55845.7990     0.70294E+01 
  55878.0611     0.70396E+01 
  55910.3233     0.70499E+01 
  55942.5854     0.70603E+01 
  55974.8476     0.70707E+01 
  56007.1098     0.70811E+01 
  56039.3719     0.70917E+01 
  56071.6341     0.71023E+01 
  56103.8962     0.71129E+01 
  56136.1584     0.71237E+01 
  56168.4206     0.71344E+01 
  56200.6827     0.71453E+01 
  56232.9449     0.71562E+01 
  56265.2070     0.71672E+01 
  56297.4692     0.71783E+01 
  56329.7314     0.71894E+01 
  56361.9935     0.72006E+01 
  56394.2557     0.72118E+01 
  56426.5178     0.72232E+01 
  56458.7800     0.72346E+01 
  56491.0422     0.72460E+01 
  56523.3043     0.72576E+01 
  56555.5665     0.72692E+01 
  56587.8286     0.72809E+01 
  56620.0908     0.72926E+01 
  56652.3530     0.73045E+01 
  56684.6151     0.73164E+01 
  56716.8773     0.73283E+01 
  56749.1394     0.73404E+01 
  56781.4016     0.73525E+01 
  56813.6638     0.73647E+01 
  56845.9259     0.73770E+01 
  56878.1881     0.73894E+01 
  56910.4502     0.74018E+01 
  56942.7124     0.74143E+01 
  56974.9746     0.74269E+01 
  57007.2367     0.74396E+01 
  57039.4989     0.74523E+01 
  57071.7610     0.74652E+01 
  57104.0232     0.74781E+01 
  57136.2854     0.74911E+01 
  57168.5475     0.75042E+01 
  57200.8097     0.75173E+01 
  57233.0718     0.75306E+01 
  57265.3340     0.75439E+01 
  57297.5962     0.75573E+01 
  57329.8583     0.75708E+01 
  57362.1205     0.75844E+01 
  57394.3826     0.75981E+01 
  57426.6448     0.76118E+01 
  57458.9070     0.76257E+01 
  57491.1691     0.76396E+01 
  57523.4313     0.76536E+01 
  57555.6934     0.76677E+01 
  57587.9556     0.76819E+01 
  57620.2178     0.76962E+01 
  57652.4799     0.77106E+01 
  57684.7421     0.77251E+01 
  57717.0042     0.77396E+01 
  57749.2664     0.77543E+01 
  57781.5286     0.77690E+01 
  57813.7907     0.77839E+01 
  57846.0529     0.77988E+01 
  57878.3150     0.78138E+01 
  57910.5772     0.78290E+01 
  57942.8394     0.78442E+01 
  57975.1015     0.78595E+01 
  58007.3637     0.78749E+01 
  58039.6258     0.78905E+01 
  58071.8880     0.79061E+01 
  58104.1502     0.79218E+01 
  58136.4123     0.79376E+01 
  58168.6745     0.79535E+01 
  58200.9366     0.79695E+01 
  58233.1988     0.79857E+01 
  58265.4610     0.80019E+01 
  58297.7231     0.80182E+01 
  58329.9853     0.80346E+01 
  58362.2474     0.80512E+01 
  58394.5096     0.80678E+01 
  58426.7718     0.80845E+01 
  58459.0339     0.81014E+01 
  58491.2961     0.81184E+01 
  58523.5582     0.81354E+01 
  58555.8204     0.81526E+01 
  58588.0826     0.81699E+01 
  58620.3447     0.81872E+01 
  58652.6069     0.82047E+01 
  58684.8690     0.82223E+01 
  58717.1312     0.82401E+01 
  58749.3934     0.82579E+01 
  58781.6555     0.82758E+01 
  58813.9177     0.82939E+01 
  58846.1798     0.83120E+01 
  58878.4420     0.83303E+01 
  58910.7042     0.83487E+01 
  58942.9663     0.83672E+01 
  58975.2285     0.83858E+01 
  59007.4906     0.84046E+01 
  59039.7528     0.84234E+01 
  59072.0150     0.84424E+01 
  59104.2771     0.84615E+01 
  59136.5393     0.84807E+01 
  59168.8014     0.85000E+01 
  59201.0636     0.85195E+01 
  59233.3258     0.85391E+01 
  59265.5879     0.85587E+01 
  59297.8501     0.85785E+01 
  59330.1122     0.85985E+01 
  59362.3744     0.86185E+01 
  59394.6366     0.86387E+01 
  59426.8987     0.86590E+01 
  59459.1609     0.86794E+01 
  59491.4230     0.87000E+01 
  59523.6852     0.87207E+01 
  59555.9474     0.87415E+01 
  59588.2095     0.87624E+01 
  59620.4717     0.87835E+01 
  59652.7338     0.88047E+01 
  59684.9960     0.88260E+01 
  59717.2582     0.88474E+01 
  59749.5203     0.88690E+01 
  59781.7825     0.88907E+01 
  59814.0446     0.89125E+01 
  59846.3068     0.89345E+01 
  59878.5690     0.89566E+01 
  59910.8311     0.89788E+01 
  59943.0933     0.90012E+01 
  59975.3554     0.90237E+01 
  60007.6176     0.90463E+01 
  60039.8798     0.90691E+01 
  60072.1419     0.90920E+01 
  60104.4041     0.91151E+01 
  60136.6662     0.91383E+01 
  60168.9284     0.91616E+01 
  60201.1906     0.91850E+01 
  60233.4527     0.92086E+01 
  60265.7149     0.92324E+01 
  60297.9770     0.92562E+01 
  60330.2392     0.92802E+01 
  60362.5014     0.93044E+01 
  60394.7635     0.93287E+01 
  60427.0257     0.93531E+01 
  60459.2878     0.93777E+01 
  60491.5500     0.94025E+01 
  60523.8122     0.94273E+01 
  60556.0743     0.94523E+01 
  60588.3365     0.94775E+01 
  60620.5986     0.95028E+01 
  60652.8608     0.95283E+01 
  60685.1230     0.95539E+01 
  60717.3851     0.95796E+01 
  60749.6473     0.96055E+01 
  60781.9094     0.96316E+01 
  60814.1716     0.96578E+01 
  60846.4338     0.96841E+01 
  60878.6959     0.97106E+01 
  60910.9581     0.97373E+01 
  60943.2202     0.97641E+01 
  60975.4824     0.97910E+01 
  61007.7446     0.98181E+01 
  61040.0067     0.98454E+01 
  61072.2689     0.98728E+01 
  61104.5310     0.99003E+01 
  61136.7932     0.99281E+01 
  61169.0554     0.99559E+01 
  61201.3175     0.99840E+01 
  61233.5797     0.10012E+02 
  61265.8418     0.10041E+02 
  61298.1040     0.10069E+02 
  61330.3662     0.10098E+02 
  61362.6283     0.10126E+02 
  61394.8905     0.10155E+02 
  61427.1526     0.10185E+02 
  61459.4148     0.10214E+02 
  61491.6770     0.10243E+02 
  61523.9391     0.10273E+02 
  61556.2013     0.10303E+02 
  61588.4634     0.10333E+02 
  61620.7256     0.10363E+02 
  61652.9878     0.10393E+02 
  61685.2499     0.10424E+02 
  61717.5121     0.10454E+02 
  61749.7742     0.10485E+02 
  61782.0364     0.10516E+02 
  61814.2986     0.10547E+02 
  61846.5607     0.10578E+02 
  61878.8229     0.10610E+02 
  61911.0850     0.10641E+02 
  61943.3472     0.10673E+02 
  61975.6094     0.10705E+02 
  62007.8715     0.10737E+02 
  62040.1337     0.10769E+02 
  62072.3958     0.10802E+02 
  62104.6580     0.10834E+02 
  62136.9202     0.10867E+02 
  62169.1823     0.10900E+02 
  62201.4445     0.10933E+02 
  62233.7066     0.10967E+02 
  62265.9688     0.11000E+02 
  62298.2310     0.11034E+02 
  62330.4931     0.11068E+02 
  62362.7553     0.11102E+02 
  62395.0174     0.11136E+02 
  62427.2796     0.11170E+02 
  62459.5418     0.11205E+02 
  62491.8039     0.11239E+02 
  62524.0661     0.11274E+02 
  62556.3282     0.11309E+02 
  62588.5904     0.11345E+02 
  62620.8526     0.11380E+02 
  62653.1147     0.11416E+02 
  62685.3769     0.11452E+02 
  62717.6390     0.11487E+02 
  62749.9012     0.11524E+02 
  62782.1634     0.11560E+02 
  62814.4255     0.11596E+02 
  62846.6877     0.11633E+02 
  62878.9498     0.11670E+02 
  62911.2120     0.11707E+02 
  62943.4742     0.11744E+02 
  62975.7363     0.11782E+02 
  63007.9985     0.11819E+02 
  63040.2606     0.11857E+02 
  63072.5228     0.11895E+02 
  63104.7850     0.11933E+02 
  63137.0471     0.11972E+02 
  63169.3093     0.12010E+02 
  63201.5714     0.12049E+02 
  63233.8336     0.12088E+02 
  63266.0958     0.12127E+02 
  63298.3579     0.12166E+02 
  63330.6201     0.12206E+02 
  63362.8822     0.12245E+02 
  63395.1444     0.12285E+02 
  63427.4066     0.12325E+02 
  63459.6687     0.12366E+02 
  63491.9309     0.12406E+02 
  63524.1930     0.12447E+02 
  63556.4552     0.12487E+02 
  63588.7174     0.12528E+02 
  63620.9795     0.12570E+02 
  63653.2417     0.12611E+02 
  63685.5038     0.12653E+02 
  63717.7660     0.12694E+02 
  63750.0282     0.12736E+02 
  63782.2903     0.12778E+02 
  63814.5525     0.12821E+02 
  63846.8146     0.12863E+02 
  63879.0768     0.12906E+02 
  63911.3390     0.12949E+02 
  63943.6011     0.12992E+02 
  63975.8633     0.13035E+02 
  64008.1254     0.13079E+02 
  64040.3876     0.13123E+02 
  64072.6498     0.13167E+02 
  64104.9119     0.13211E+02 
  64137.1741     0.13255E+02 
  64169.4362     0.13300E+02 
  64201.6984     0.13344E+02 
  64233.9606     0.13389E+02 
  64266.2227     0.13434E+02 
  64298.4849     0.13480E+02 
  64330.7470     0.13525E+02 
  64363.0092     0.13571E+02 
  64395.2714     0.13617E+02 
  64427.5335     0.13663E+02 
  64459.7957     0.13709E+02 
  64492.0578     0.13756E+02 
  64524.3200     0.13802E+02 
  64556.5822     0.13849E+02 
  64588.8443     0.13896E+02 
  64621.1065     0.13944E+02 
  64653.3686     0.13991E+02 
  64685.6308     0.14039E+02 
  64717.8930     0.14087E+02 
  64750.1551     0.14135E+02 
  64782.4173     0.14183E+02 
  64814.6794     0.14232E+02 
  64846.9416     0.14281E+02 
  64879.2038     0.14330E+02 
  64911.4659     0.14379E+02 
  64943.7281     0.14428E+02 
  64975.9902     0.14478E+02 
  65008.2524     0.14527E+02 
  65040.5146     0.14577E+02 
  65072.7767     0.14628E+02 
  65105.0389     0.14678E+02 
  65137.3010     0.14728E+02 
  65169.5632     0.14779E+02 
  65201.8254     0.14830E+02 
  65234.0875     0.14881E+02 
  65266.3497     0.14933E+02 
  65298.6118     0.14984E+02 
  65330.8740     0.15036E+02 
  65363.1362     0.15088E+02 
  65395.3983     0.15141E+02 
  65427.6605     0.15193E+02 
  65459.9226     0.15246E+02 
  65492.1848     0.15299E+02 
  65524.4470     0.15352E+02 
  65556.7091     0.15405E+02 
  65588.9713     0.15458E+02 
  65621.2334     0.15512E+02 
  65653.4956     0.15566E+02 
  65685.7578     0.15620E+02 
  65718.0199     0.15674E+02 
  65750.2821     0.15729E+02 
  65782.5442     0.15784E+02 
  65814.8064     0.15839E+02 
  65847.0686     0.15894E+02 
  65879.3307     0.15949E+02 
  65911.5929     0.16005E+02 
  65943.8550     0.16061E+02 
  65976.1172     0.16117E+02 
  66008.3794     0.16173E+02 
  66040.6415     0.16229E+02 
  66072.9037     0.16286E+02 
  66105.1658     0.16343E+02 
  66137.4280     0.16400E+02 
  66169.6902     0.16457E+02 
  66201.9523     0.16514E+02 
  66234.2145     0.16572E+02 
  66266.4766     0.16630E+02 
  66298.7388     0.16688E+02 
  66331.0010     0.16746E+02 
  66363.2631     0.16805E+02 
  66395.5253     0.16864E+02 
  66427.7874     0.16922E+02 
  66460.0496     0.16982E+02 
  66492.3118     0.17041E+02 
  66524.5739     0.17101E+02 
  66556.8361     0.17160E+02 
  66589.0982     0.17220E+02 
  66621.3604     0.17280E+02 
  66653.6226     0.17341E+02 
  66685.8847     0.17402E+02 
  66718.1469     0.17462E+02 
  66750.4090     0.17523E+02 
  66782.6712     0.17585E+02 
  66814.9334     0.17646E+02 
  66847.1955     0.17708E+02 
  66879.4577     0.17770E+02 
  66911.7198     0.17832E+02 
  66943.9820     0.17894E+02 
  66976.2442     0.17957E+02 
  67008.5063     0.18019E+02 
  67040.7685     0.18082E+02 
  67073.0306     0.18145E+02 
  67105.2928     0.18209E+02 
  67137.5550     0.18272E+02 
  67169.8171     0.18336E+02 
  67202.0793     0.18400E+02 
  67234.3414     0.18464E+02 
  67266.6036     0.18528E+02 
  67298.8658     0.18593E+02 
  67331.1279     0.18658E+02 
  67363.3901     0.18723E+02 
  67395.6522     0.18788E+02 
  67427.9144     0.18854E+02 
  67460.1766     0.18919E+02 
  67492.4387     0.18985E+02 
  67524.7009     0.19051E+02 
  67556.9630     0.19117E+02 
  67589.2252     0.19184E+02 
  67621.4874     0.19250E+02 
  67653.7495     0.19317E+02 
  67686.0117     0.19384E+02 
  67718.2738     0.19452E+02 
  67750.5360     0.19519E+02 
  67782.7982     0.19587E+02 
  67815.0603     0.19655E+02 
  67847.3225     0.19723E+02 
  67879.5846     0.19791E+02 
  67911.8468     0.19860E+02 
  67944.1090     0.19928E+02 
  67976.3711     0.19997E+02 
  68008.6333     0.20067E+02 
  68040.8954     0.20136E+02 
  68073.1576     0.20205E+02 
  68105.4198     0.20275E+02 
  68137.6819     0.20345E+02 
  68169.9441     0.20415E+02 
  68202.2062     0.20486E+02 
  68234.4684     0.20556E+02 
  68266.7306     0.20627E+02 
  68298.9927     0.20698E+02 
  68331.2549     0.20769E+02 
  68363.5170     0.20840E+02 
  68395.7792     0.20912E+02 
  68428.0414     0.20984E+02 
  68460.3035     0.21056E+02 
  68492.5657     0.21128E+02 
  68524.8278     0.21200E+02 
  68557.0900     0.21273E+02 
  68589.3522     0.21346E+02 
  68621.6143     0.21419E+02 
  68653.8765     0.21492E+02 
  68686.1386     0.21565E+02 
  68718.4008     0.21639E+02 
  68750.6630     0.21712E+02 
  68782.9251     0.21786E+02 
  68815.1873     0.21861E+02 
  68847.4494     0.21935E+02 
  68879.7116     0.22009E+02 
  68911.9738     0.22084E+02 
  68944.2359     0.22159E+02 
  68976.4981     0.22234E+02 
  69008.7602     0.22309E+02 
  69041.0224     0.22385E+02 
  69073.2846     0.22461E+02 
  69105.5467     0.22537E+02 
  69137.8089     0.22613E+02 
  69170.0710     0.22689E+02 
  69202.3332     0.22765E+02 
  69234.5954     0.22842E+02 
  69266.8575     0.22919E+02 
  69299.1197     0.22996E+02 
  69331.3818     0.23073E+02 
  69363.6440     0.23151E+02 
  69395.9062     0.23228E+02 
  69428.1683     0.23306E+02 
  69460.4305     0.23384E+02 
  69492.6926     0.23462E+02 
  69524.9548     0.23540E+02 
  69557.2170     0.23619E+02 
  69589.4791     0.23698E+02 
  69621.7413     0.23777E+02 
  69654.0034     0.23856E+02 
  69686.2656     0.23935E+02 
  69718.5278     0.24014E+02 
  69750.7899     0.24094E+02 
  69783.0521     0.24174E+02 
  69815.3142     0.24254E+02 
  69847.5764     0.24334E+02 
  69879.8386     0.24414E+02 
  69912.1007     0.24495E+02 
  69944.3629     0.24576E+02 
  69976.6250     0.24656E+02 
  70008.8872     0.24737E+02 
  70041.1494     0.24819E+02 
  70073.4115     0.24900E+02 
  70105.6737     0.24982E+02 
  70137.9358     0.25063E+02 
  70170.1980     0.25145E+02 
  70202.4602     0.25228E+02 
  70234.7223     0.25310E+02 
  70266.9845     0.25392E+02 
  70299.2466     0.25475E+02 
  70331.5088     0.25558E+02 
  70363.7710     0.25641E+02 
  70396.0331     0.25724E+02 
  70428.2953     0.25807E+02 
  70460.5574     0.25891E+02 
  70492.8196     0.25974E+02 
  70525.0818     0.26058E+02 
  70557.3439     0.26142E+02 
  70589.6061     0.26226E+02 
  70621.8682     0.26310E+02 
  70654.1304     0.26395E+02 
  70686.3926     0.26479E+02 
  70718.6547     0.26564E+02 
  70750.9169     0.26649E+02 
  70783.1790     0.26734E+02 
  70815.4412     0.26820E+02 
  70847.7034     0.26905E+02 
  70879.9655     0.26991E+02 
  70912.2277     0.27076E+02 
  70944.4898     0.27162E+02 
  70976.7520     0.27248E+02 
  71009.0142     0.27335E+02 
  71041.2763     0.27421E+02 
  71073.5385     0.27507E+02 
  71105.8006     0.27594E+02 
  71138.0628     0.27681E+02 
  71170.3250     0.27768E+02 
  71202.5871     0.27855E+02 
  71234.8493     0.27942E+02 
  71267.1114     0.28030E+02 
  71299.3736     0.28117E+02 
  71331.6358     0.28205E+02 
  71363.8979     0.28293E+02 
  71396.1601     0.28381E+02 
  71428.4222     0.28469E+02 
  71460.6844     0.28557E+02 
  71492.9466     0.28646E+02 
  71525.2087     0.28734E+02 
  71557.4709     0.28823E+02 
  71589.7330     0.28912E+02 
  71621.9952     0.29001E+02 
  71654.2574     0.29090E+02 
  71686.5195     0.29179E+02 
  71718.7817     0.29269E+02 
  71751.0438     0.29358E+02 
  71783.3060     0.29448E+02 
  71815.5682     0.29538E+02 
  71847.8303     0.29628E+02 
  71880.0925     0.29718E+02 
  71912.3546     0.29808E+02 
  71944.6168     0.29898E+02 
  71976.8790     0.29989E+02 
  72009.1411     0.30079E+02 
  72041.4033     0.30170E+02 
  72073.6654     0.30261E+02 
  72105.9276     0.30352E+02 
  72138.1898     0.30443E+02 
  72170.4519     0.30534E+02 
  72202.7141     0.30626E+02 
  72234.9762     0.30717E+02 
  72267.2384     0.30809E+02 
  72299.5006     0.30900E+02 
  72331.7627     0.30992E+02 
  72364.0249     0.31084E+02 
  72396.2870     0.31176E+02 
  72428.5492     0.31268E+02 
  72460.8114     0.31361E+02 
  72493.0735     0.31453E+02 
  72525.3357     0.31545E+02 
  72557.5978     0.31638E+02 
  72589.8600     0.31731E+02 
