  32262.1600     0.33481E+00 
  32294.4222     0.33779E+00 
  32326.6843     0.34079E+00 
  32358.9465     0.34380E+00 
  32391.2086     0.34683E+00 
  32423.4708     0.34987E+00 
  32455.7330     0.35294E+00 
  32487.9951     0.35602E+00 
  32520.2573     0.35911E+00 
  32552.5194     0.36222E+00 
  32584.7816     0.36535E+00 
  32617.0438     0.36850E+00 
  32649.3059     0.37166E+00 
  32681.5681     0.37484E+00 
  32713.8302     0.37803E+00 
  32746.0924     0.38124E+00 
  32778.3546     0.38447E+00 
  32810.6167     0.38772E+00 
  32842.8789     0.39098E+00 
  32875.1410     0.39425E+00 
  32907.4032     0.39755E+00 
  32939.6654     0.40085E+00 
  32971.9275     0.40418E+00 
  33004.1897     0.40752E+00 
  33036.4518     0.41088E+00 
  33068.7140     0.41425E+00 
  33100.9762     0.41764E+00 
  33133.2383     0.42105E+00 
  33165.5005     0.42447E+00 
  33197.7626     0.42791E+00 
  33230.0248     0.43136E+00 
  33262.2870     0.43483E+00 
  33294.5491     0.43832E+00 
  33326.8113     0.44182E+00 
  33359.0734     0.44533E+00 
  33391.3356     0.44887E+00 
  33423.5978     0.45242E+00 
  33455.8599     0.45598E+00 
  33488.1221     0.45956E+00 
  33520.3842     0.46315E+00 
  33552.6464     0.46676E+00 
  33584.9086     0.47039E+00 
  33617.1707     0.47403E+00 
  33649.4329     0.47768E+00 
  33681.6950     0.48135E+00 
  33713.9572     0.48504E+00 
  33746.2194     0.48874E+00 
  33778.4815     0.49246E+00 
  33810.7437     0.49619E+00 
  33843.0058     0.49993E+00 
  33875.2680     0.50369E+00 
  33907.5302     0.50747E+00 
  33939.7923     0.51126E+00 
  33972.0545     0.51506E+00 
  34004.3166     0.51888E+00 
  34036.5788     0.52271E+00 
  34068.8410     0.52656E+00 
  34101.1031     0.53042E+00 
  34133.3653     0.53430E+00 
  34165.6274     0.53819E+00 
  34197.8896     0.54209E+00 
  34230.1518     0.54601E+00 
  34262.4139     0.54994E+00 
  34294.6761     0.55388E+00 
  34326.9382     0.55784E+00 
  34359.2004     0.56181E+00 
  34391.4626     0.56580E+00 
  34423.7247     0.56979E+00 
  34455.9869     0.57380E+00 
  34488.2490     0.57783E+00 
  34520.5112     0.58187E+00 
  34552.7734     0.58592E+00 
  34585.0355     0.58998E+00 
  34617.2977     0.59406E+00 
  34649.5598     0.59814E+00 
  34681.8220     0.60225E+00 
  34714.0842     0.60636E+00 
  34746.3463     0.61048E+00 
  34778.6085     0.61462E+00 
  34810.8706     0.61877E+00 
  34843.1328     0.62293E+00 
  34875.3950     0.62711E+00 
  34907.6571     0.63129E+00 
  34939.9193     0.63549E+00 
  34972.1814     0.63970E+00 
  35004.4436     0.64392E+00 
  35036.7058     0.64815E+00 
  35068.9679     0.65239E+00 
  35101.2301     0.65664E+00 
  35133.4922     0.66091E+00 
  35165.7544     0.66518E+00 
  35198.0166     0.66947E+00 
  35230.2787     0.67376E+00 
  35262.5409     0.67807E+00 
  35294.8030     0.68239E+00 
  35327.0652     0.68671E+00 
  35359.3274     0.69105E+00 
  35391.5895     0.69539E+00 
  35423.8517     0.69975E+00 
  35456.1138     0.70412E+00 
  35488.3760     0.70849E+00 
  35520.6382     0.71287E+00 
  35552.9003     0.71727E+00 
  35585.1625     0.72167E+00 
  35617.4246     0.72608E+00 
  35649.6868     0.73050E+00 
  35681.9490     0.73493E+00 
  35714.2111     0.73936E+00 
  35746.4733     0.74381E+00 
  35778.7354     0.74826E+00 
  35810.9976     0.75272E+00 
  35843.2598     0.75719E+00 
  35875.5219     0.76167E+00 
  35907.7841     0.76615E+00 
  35940.0462     0.77064E+00 
  35972.3084     0.77514E+00 
  36004.5706     0.77965E+00 
  36036.8327     0.78416E+00 
  36069.0949     0.78868E+00 
  36101.3570     0.79321E+00 
  36133.6192     0.79774E+00 
  36165.8814     0.80228E+00 
  36198.1435     0.80682E+00 
  36230.4057     0.81137E+00 
  36262.6678     0.81593E+00 
  36294.9300     0.82049E+00 
  36327.1922     0.82505E+00 
  36359.4543     0.82963E+00 
  36391.7165     0.83420E+00 
  36423.9786     0.83879E+00 
  36456.2408     0.84337E+00 
  36488.5030     0.84796E+00 
  36520.7651     0.85256E+00 
  36553.0273     0.85716E+00 
  36585.2894     0.86176E+00 
  36617.5516     0.86637E+00 
  36649.8138     0.87098E+00 
  36682.0759     0.87560E+00 
  36714.3381     0.88022E+00 
  36746.6002     0.88484E+00 
  36778.8624     0.88946E+00 
  36811.1246     0.89409E+00 
  36843.3867     0.89872E+00 
  36875.6489     0.90335E+00 
  36907.9110     0.90799E+00 
  36940.1732     0.91262E+00 
  36972.4354     0.91726E+00 
  37004.6975     0.92190E+00 
  37036.9597     0.92654E+00 
  37069.2218     0.93119E+00 
  37101.4840     0.93583E+00 
  37133.7462     0.94047E+00 
  37166.0083     0.94512E+00 
  37198.2705     0.94977E+00 
  37230.5326     0.95441E+00 
  37262.7948     0.95906E+00 
  37295.0570     0.96370E+00 
  37327.3191     0.96835E+00 
  37359.5813     0.97300E+00 
  37391.8434     0.97764E+00 
  37424.1056     0.98229E+00 
  37456.3678     0.98693E+00 
  37488.6299     0.99157E+00 
  37520.8921     0.99621E+00 
  37553.1542     0.10009E+01 
  37585.4164     0.10055E+01 
  37617.6786     0.10101E+01 
  37649.9407     0.10148E+01 
  37682.2029     0.10194E+01 
  37714.4650     0.10240E+01 
  37746.7272     0.10286E+01 
  37778.9894     0.10333E+01 
  37811.2515     0.10379E+01 
  37843.5137     0.10425E+01 
  37875.7758     0.10471E+01 
  37908.0380     0.10517E+01 
  37940.3002     0.10563E+01 
  37972.5623     0.10609E+01 
  38004.8245     0.10655E+01 
  38037.0866     0.10701E+01 
  38069.3488     0.10747E+01 
  38101.6110     0.10793E+01 
  38133.8731     0.10839E+01 
  38166.1353     0.10884E+01 
  38198.3974     0.10930E+01 
  38230.6596     0.10976E+01 
  38262.9218     0.11021E+01 
  38295.1839     0.11067E+01 
  38327.4461     0.11112E+01 
  38359.7082     0.11157E+01 
  38391.9704     0.11203E+01 
  38424.2326     0.11248E+01 
  38456.4947     0.11293E+01 
  38488.7569     0.11338E+01 
  38521.0190     0.11383E+01 
  38553.2812     0.11428E+01 
  38585.5434     0.11473E+01 
  38617.8055     0.11517E+01 
  38650.0677     0.11562E+01 
  38682.3298     0.11607E+01 
  38714.5920     0.11651E+01 
  38746.8542     0.11695E+01 
  38779.1163     0.11740E+01 
  38811.3785     0.11784E+01 
  38843.6406     0.11828E+01 
  38875.9028     0.11872E+01 
  38908.1650     0.11916E+01 
  38940.4271     0.11960E+01 
  38972.6893     0.12003E+01 
  39004.9514     0.12047E+01 
  39037.2136     0.12090E+01 
  39069.4758     0.12134E+01 
  39101.7379     0.12177E+01 
  39134.0001     0.12220E+01 
  39166.2622     0.12263E+01 
  39198.5244     0.12306E+01 
  39230.7866     0.12349E+01 
  39263.0487     0.12392E+01 
  39295.3109     0.12434E+01 
  39327.5730     0.12476E+01 
  39359.8352     0.12519E+01 
  39392.0974     0.12561E+01 
  39424.3595     0.12603E+01 
  39456.6217     0.12645E+01 
  39488.8838     0.12686E+01 
  39521.1460     0.12728E+01 
  39553.4082     0.12769E+01 
  39585.6703     0.12811E+01 
  39617.9325     0.12852E+01 
  39650.1946     0.12893E+01 
  39682.4568     0.12934E+01 
  39714.7190     0.12974E+01 
  39746.9811     0.13015E+01 
  39779.2433     0.13055E+01 
  39811.5054     0.13096E+01 
  39843.7676     0.13136E+01 
  39876.0298     0.13176E+01 
  39908.2919     0.13215E+01 
  39940.5541     0.13255E+01 
  39972.8162     0.13294E+01 
  40005.0784     0.13334E+01 
  40037.3406     0.13373E+01 
  40069.6027     0.13412E+01 
  40101.8649     0.13450E+01 
  40134.1270     0.13489E+01 
  40166.3892     0.13527E+01 
  40198.6514     0.13566E+01 
  40230.9135     0.13604E+01 
  40263.1757     0.13641E+01 
  40295.4378     0.13679E+01 
  40327.7000     0.13717E+01 
  40359.9622     0.13754E+01 
  40392.2243     0.13791E+01 
  40424.4865     0.13828E+01 
  40456.7486     0.13865E+01 
  40489.0108     0.13901E+01 
  40521.2730     0.13937E+01 
  40553.5351     0.13973E+01 
  40585.7973     0.14009E+01 
  40618.0594     0.14045E+01 
  40650.3216     0.14081E+01 
  40682.5838     0.14116E+01 
  40714.8459     0.14151E+01 
  40747.1081     0.14186E+01 
  40779.3702     0.14220E+01 
  40811.6324     0.14255E+01 
  40843.8946     0.14289E+01 
  40876.1567     0.14323E+01 
  40908.4189     0.14357E+01 
  40940.6810     0.14391E+01 
  40972.9432     0.14424E+01 
  41005.2054     0.14457E+01 
  41037.4675     0.14490E+01 
  41069.7297     0.14523E+01 
  41101.9918     0.14555E+01 
  41134.2540     0.14587E+01 
  41166.5162     0.14619E+01 
  41198.7783     0.14651E+01 
  41231.0405     0.14683E+01 
  41263.3026     0.14714E+01 
  41295.5648     0.14745E+01 
  41327.8270     0.14776E+01 
  41360.0891     0.14806E+01 
  41392.3513     0.14837E+01 
  41424.6134     0.14867E+01 
  41456.8756     0.14896E+01 
  41489.1378     0.14926E+01 
  41521.3999     0.14955E+01 
  41553.6621     0.14985E+01 
  41585.9242     0.15013E+01 
  41618.1864     0.15042E+01 
  41650.4486     0.15070E+01 
  41682.7107     0.15098E+01 
  41714.9729     0.15126E+01 
  41747.2350     0.15154E+01 
  41779.4972     0.15181E+01 
  41811.7594     0.15208E+01 
  41844.0215     0.15235E+01 
  41876.2837     0.15262E+01 
  41908.5458     0.15288E+01 
  41940.8080     0.15314E+01 
  41973.0702     0.15340E+01 
  42005.3323     0.15365E+01 
  42037.5945     0.15390E+01 
  42069.8566     0.15415E+01 
  42102.1188     0.15440E+01 
  42134.3810     0.15464E+01 
  42166.6431     0.15488E+01 
  42198.9053     0.15512E+01 
  42231.1674     0.15536E+01 
  42263.4296     0.15559E+01 
  42295.6918     0.15582E+01 
  42327.9539     0.15605E+01 
  42360.2161     0.15627E+01 
  42392.4782     0.15649E+01 
  42424.7404     0.15671E+01 
  42457.0026     0.15693E+01 
  42489.2647     0.15714E+01 
  42521.5269     0.15735E+01 
  42553.7890     0.15756E+01 
  42586.0512     0.15777E+01 
  42618.3134     0.15797E+01 
  42650.5755     0.15817E+01 
  42682.8377     0.15836E+01 
  42715.0998     0.15856E+01 
  42747.3620     0.15875E+01 
  42779.6242     0.15893E+01 
  42811.8863     0.15912E+01 
  42844.1485     0.15930E+01 
  42876.4106     0.15948E+01 
  42908.6728     0.15966E+01 
  42940.9350     0.15983E+01 
  42973.1971     0.16000E+01 
  43005.4593     0.16017E+01 
  43037.7214     0.16033E+01 
  43069.9836     0.16049E+01 
  43102.2458     0.16065E+01 
  43134.5079     0.16080E+01 
  43166.7701     0.16095E+01 
  43199.0322     0.16110E+01 
  43231.2944     0.16125E+01 
  43263.5566     0.16139E+01 
  43295.8187     0.16153E+01 
  43328.0809     0.16167E+01 
  43360.3430     0.16180E+01 
  43392.6052     0.16193E+01 
  43424.8674     0.16206E+01 
  43457.1295     0.16219E+01 
  43489.3917     0.16231E+01 
  43521.6538     0.16243E+01 
  43553.9160     0.16254E+01 
  43586.1782     0.16265E+01 
  43618.4403     0.16276E+01 
  43650.7025     0.16287E+01 
  43682.9646     0.16297E+01 
  43715.2268     0.16307E+01 
  43747.4890     0.16317E+01 
  43779.7511     0.16327E+01 
  43812.0133     0.16336E+01 
  43844.2754     0.16344E+01 
  43876.5376     0.16353E+01 
  43908.7998     0.16361E+01 
  43941.0619     0.16369E+01 
  43973.3241     0.16376E+01 
  44005.5862     0.16384E+01 
  44037.8484     0.16391E+01 
  44070.1106     0.16397E+01 
  44102.3727     0.16403E+01 
  44134.6349     0.16409E+01 
  44166.8970     0.16415E+01 
  44199.1592     0.16421E+01 
  44231.4214     0.16426E+01 
  44263.6835     0.16430E+01 
  44295.9457     0.16435E+01 
  44328.2078     0.16439E+01 
  44360.4700     0.16443E+01 
  44392.7322     0.16446E+01 
  44424.9943     0.16449E+01 
  44457.2565     0.16452E+01 
  44489.5186     0.16455E+01 
  44521.7808     0.16457E+01 
  44554.0430     0.16459E+01 
  44586.3051     0.16461E+01 
  44618.5673     0.16462E+01 
  44650.8294     0.16463E+01 
  44683.0916     0.16464E+01 
  44715.3538     0.16464E+01 
  44747.6159     0.16464E+01 
  44779.8781     0.16464E+01 
  44812.1402     0.16463E+01 
  44844.4024     0.16463E+01 
  44876.6646     0.16461E+01 
  44908.9267     0.16460E+01 
  44941.1889     0.16458E+01 
  44973.4510     0.16456E+01 
  45005.7132     0.16454E+01 
  45037.9754     0.16451E+01 
  45070.2375     0.16448E+01 
  45102.4997     0.16445E+01 
  45134.7618     0.16441E+01 
  45167.0240     0.16437E+01 
  45199.2862     0.16433E+01 
  45231.5483     0.16428E+01 
  45263.8105     0.16424E+01 
  45296.0726     0.16418E+01 
  45328.3348     0.16413E+01 
  45360.5970     0.16407E+01 
  45392.8591     0.16401E+01 
  45425.1213     0.16395E+01 
  45457.3834     0.16388E+01 
  45489.6456     0.16381E+01 
  45521.9078     0.16374E+01 
  45554.1699     0.16366E+01 
  45586.4321     0.16358E+01 
  45618.6942     0.16350E+01 
  45650.9564     0.16342E+01 
  45683.2186     0.16333E+01 
  45715.4807     0.16324E+01 
  45747.7429     0.16315E+01 
  45780.0050     0.16305E+01 
  45812.2672     0.16295E+01 
  45844.5294     0.16285E+01 
  45876.7915     0.16274E+01 
  45909.0537     0.16263E+01 
  45941.3158     0.16252E+01 
  45973.5780     0.16241E+01 
  46005.8402     0.16229E+01 
  46038.1023     0.16217E+01 
  46070.3645     0.16205E+01 
  46102.6266     0.16192E+01 
  46134.8888     0.16180E+01 
  46167.1510     0.16166E+01 
  46199.4131     0.16153E+01 
  46231.6753     0.16139E+01 
  46263.9374     0.16125E+01 
  46296.1996     0.16111E+01 
  46328.4618     0.16096E+01 
  46360.7239     0.16082E+01 
  46392.9861     0.16067E+01 
  46425.2482     0.16051E+01 
  46457.5104     0.16035E+01 
  46489.7726     0.16019E+01 
  46522.0347     0.16003E+01 
  46554.2969     0.15987E+01 
  46586.5590     0.15970E+01 
  46618.8212     0.15953E+01 
  46651.0834     0.15936E+01 
  46683.3455     0.15918E+01 
  46715.6077     0.15900E+01 
  46747.8698     0.15882E+01 
  46780.1320     0.15864E+01 
  46812.3942     0.15845E+01 
  46844.6563     0.15826E+01 
  46876.9185     0.15807E+01 
  46909.1806     0.15787E+01 
  46941.4428     0.15768E+01 
  46973.7050     0.15748E+01 
  47005.9671     0.15727E+01 
  47038.2293     0.15707E+01 
  47070.4914     0.15686E+01 
  47102.7536     0.15665E+01 
  47135.0158     0.15644E+01 
  47167.2779     0.15622E+01 
  47199.5401     0.15600E+01 
  47231.8022     0.15578E+01 
  47264.0644     0.15556E+01 
  47296.3266     0.15533E+01 
  47328.5887     0.15511E+01 
  47360.8509     0.15488E+01 
  47393.1130     0.15464E+01 
  47425.3752     0.15441E+01 
  47457.6374     0.15417E+01 
  47489.8995     0.15393E+01 
  47522.1617     0.15369E+01 
  47554.4238     0.15344E+01 
  47586.6860     0.15319E+01 
  47618.9482     0.15294E+01 
  47651.2103     0.15269E+01 
  47683.4725     0.15244E+01 
  47715.7346     0.15218E+01 
  47747.9968     0.15192E+01 
  47780.2590     0.15166E+01 
  47812.5211     0.15140E+01 
  47844.7833     0.15113E+01 
  47877.0454     0.15086E+01 
  47909.3076     0.15059E+01 
  47941.5698     0.15032E+01 
  47973.8319     0.15005E+01 
  48006.0941     0.14977E+01 
  48038.3562     0.14949E+01 
  48070.6184     0.14921E+01 
  48102.8806     0.14892E+01 
  48135.1427     0.14864E+01 
  48167.4049     0.14835E+01 
  48199.6670     0.14806E+01 
  48231.9292     0.14777E+01 
  48264.1914     0.14747E+01 
  48296.4535     0.14718E+01 
  48328.7157     0.14688E+01 
  48360.9778     0.14658E+01 
  48393.2400     0.14628E+01 
  48425.5022     0.14597E+01 
  48457.7643     0.14566E+01 
  48490.0265     0.14536E+01 
  48522.2886     0.14505E+01 
  48554.5508     0.14473E+01 
  48586.8130     0.14442E+01 
  48619.0751     0.14410E+01 
  48651.3373     0.14378E+01 
  48683.5994     0.14346E+01 
  48715.8616     0.14314E+01 
  48748.1238     0.14282E+01 
  48780.3859     0.14249E+01 
  48812.6481     0.14217E+01 
  48844.9102     0.14184E+01 
  48877.1724     0.14150E+01 
  48909.4346     0.14117E+01 
  48941.6967     0.14084E+01 
  48973.9589     0.14050E+01 
  49006.2210     0.14016E+01 
  49038.4832     0.13982E+01 
  49070.7454     0.13948E+01 
  49103.0075     0.13914E+01 
  49135.2697     0.13879E+01 
  49167.5318     0.13845E+01 
  49199.7940     0.13810E+01 
  49232.0562     0.13775E+01 
  49264.3183     0.13740E+01 
  49296.5805     0.13704E+01 
  49328.8426     0.13669E+01 
  49361.1048     0.13633E+01 
  49393.3670     0.13597E+01 
  49425.6291     0.13561E+01 
  49457.8913     0.13525E+01 
  49490.1534     0.13489E+01 
  49522.4156     0.13453E+01 
  49554.6778     0.13416E+01 
  49586.9399     0.13379E+01 
  49619.2021     0.13343E+01 
  49651.4642     0.13306E+01 
  49683.7264     0.13269E+01 
  49715.9886     0.13231E+01 
  49748.2507     0.13194E+01 
  49780.5129     0.13156E+01 
  49812.7750     0.13119E+01 
  49845.0372     0.13081E+01 
  49877.2994     0.13043E+01 
  49909.5615     0.13005E+01 
  49941.8237     0.12967E+01 
  49974.0858     0.12928E+01 
  50006.3480     0.12890E+01 
  50038.6102     0.12851E+01 
  50070.8723     0.12813E+01 
  50103.1345     0.12774E+01 
  50135.3966     0.12735E+01 
  50167.6588     0.12696E+01 
  50199.9210     0.12657E+01 
  50232.1831     0.12617E+01 
  50264.4453     0.12578E+01 
  50296.7074     0.12539E+01 
  50328.9696     0.12499E+01 
  50361.2318     0.12459E+01 
  50393.4939     0.12419E+01 
  50425.7561     0.12380E+01 
  50458.0182     0.12340E+01 
  50490.2804     0.12299E+01 
  50522.5426     0.12259E+01 
  50554.8047     0.12219E+01 
  50587.0669     0.12178E+01 
  50619.3290     0.12138E+01 
  50651.5912     0.12097E+01 
  50683.8534     0.12057E+01 
  50716.1155     0.12016E+01 
  50748.3777     0.11975E+01 
  50780.6398     0.11934E+01 
  50812.9020     0.11893E+01 
  50845.1642     0.11852E+01 
  50877.4263     0.11811E+01 
  50909.6885     0.11769E+01 
  50941.9506     0.11728E+01 
  50974.2128     0.11686E+01 
  51006.4750     0.11645E+01 
  51038.7371     0.11603E+01 
  51070.9993     0.11562E+01 
  51103.2614     0.11520E+01 
  51135.5236     0.11478E+01 
  51167.7858     0.11436E+01 
  51200.0479     0.11394E+01 
  51232.3101     0.11352E+01 
  51264.5722     0.11310E+01 
  51296.8344     0.11268E+01 
  51329.0966     0.11226E+01 
  51361.3587     0.11183E+01 
  51393.6209     0.11141E+01 
  51425.8830     0.11099E+01 
  51458.1452     0.11056E+01 
  51490.4074     0.11014E+01 
  51522.6695     0.10971E+01 
  51554.9317     0.10929E+01 
  51587.1938     0.10886E+01 
  51619.4560     0.10843E+01 
  51651.7182     0.10801E+01 
  51683.9803     0.10758E+01 
  51716.2425     0.10715E+01 
  51748.5046     0.10672E+01 
  51780.7668     0.10629E+01 
  51813.0290     0.10586E+01 
  51845.2911     0.10543E+01 
  51877.5533     0.10500E+01 
  51909.8154     0.10457E+01 
  51942.0776     0.10414E+01 
  51974.3398     0.10371E+01 
  52006.6019     0.10328E+01 
  52038.8641     0.10285E+01 
  52071.1262     0.10241E+01 
  52103.3884     0.10198E+01 
  52135.6506     0.10155E+01 
  52167.9127     0.10112E+01 
  52200.1749     0.10068E+01 
  52232.4370     0.10025E+01 
  52264.6992     0.99817E+00 
  52296.9614     0.99383E+00 
  52329.2235     0.98950E+00 
  52361.4857     0.98516E+00 
  52393.7478     0.98082E+00 
  52426.0100     0.97647E+00 
  52458.2722     0.97213E+00 
  52490.5343     0.96779E+00 
  52522.7965     0.96344E+00 
  52555.0586     0.95910E+00 
  52587.3208     0.95475E+00 
  52619.5830     0.95040E+00 
  52651.8451     0.94606E+00 
  52684.1073     0.94171E+00 
  52716.3694     0.93736E+00 
  52748.6316     0.93302E+00 
  52780.8938     0.92867E+00 
  52813.1559     0.92432E+00 
  52845.4181     0.91998E+00 
  52877.6802     0.91563E+00 
  52909.9424     0.91129E+00 
  52942.2046     0.90694E+00 
  52974.4667     0.90260E+00 
  53006.7289     0.89826E+00 
  53038.9910     0.89392E+00 
  53071.2532     0.88958E+00 
  53103.5154     0.88524E+00 
  53135.7775     0.88090E+00 
  53168.0397     0.87657E+00 
  53200.3018     0.87223E+00 
  53232.5640     0.86790E+00 
  53264.8262     0.86357E+00 
  53297.0883     0.85925E+00 
  53329.3505     0.85492E+00 
  53361.6126     0.85060E+00 
  53393.8748     0.84628E+00 
  53426.1370     0.84197E+00 
  53458.3991     0.83765E+00 
  53490.6613     0.83334E+00 
  53522.9234     0.82903E+00 
  53555.1856     0.82473E+00 
  53587.4478     0.82043E+00 
  53619.7099     0.81613E+00 
  53651.9721     0.81183E+00 
  53684.2342     0.80754E+00 
  53716.4964     0.80325E+00 
  53748.7586     0.79897E+00 
  53781.0207     0.79469E+00 
  53813.2829     0.79041E+00 
  53845.5450     0.78614E+00 
  53877.8072     0.78187E+00 
  53910.0694     0.77761E+00 
  53942.3315     0.77335E+00 
  53974.5937     0.76909E+00 
  54006.8558     0.76484E+00 
  54039.1180     0.76060E+00 
  54071.3802     0.75636E+00 
  54103.6423     0.75212E+00 
  54135.9045     0.74789E+00 
  54168.1666     0.74367E+00 
  54200.4288     0.73945E+00 
  54232.6910     0.73523E+00 
  54264.9531     0.73103E+00 
  54297.2153     0.72682E+00 
  54329.4774     0.72262E+00 
  54361.7396     0.71843E+00 
  54394.0018     0.71425E+00 
  54426.2639     0.71007E+00 
  54458.5261     0.70589E+00 
  54490.7882     0.70172E+00 
  54523.0504     0.69756E+00 
  54555.3126     0.69341E+00 
  54587.5747     0.68926E+00 
  54619.8369     0.68511E+00 
  54652.0990     0.68098E+00 
  54684.3612     0.67685E+00 
  54716.6234     0.67273E+00 
  54748.8855     0.66861E+00 
  54781.1477     0.66450E+00 
  54813.4098     0.66040E+00 
  54845.6720     0.65631E+00 
  54877.9342     0.65222E+00 
  54910.1963     0.64814E+00 
  54942.4585     0.64407E+00 
  54974.7206     0.64001E+00 
  55006.9828     0.63595E+00 
  55039.2450     0.63190E+00 
  55071.5071     0.62786E+00 
  55103.7693     0.62383E+00 
  55136.0314     0.61980E+00 
  55168.2936     0.61579E+00 
  55200.5558     0.61178E+00 
  55232.8179     0.60778E+00 
  55265.0801     0.60379E+00 
  55297.3422     0.59980E+00 
  55329.6044     0.59583E+00 
  55361.8666     0.59186E+00 
  55394.1287     0.58790E+00 
  55426.3909     0.58395E+00 
  55458.6530     0.58001E+00 
  55490.9152     0.57608E+00 
  55523.1774     0.57216E+00 
  55555.4395     0.56825E+00 
  55587.7017     0.56434E+00 
  55619.9638     0.56045E+00 
  55652.2260     0.55656E+00 
  55684.4882     0.55269E+00 
  55716.7503     0.54882E+00 
  55749.0125     0.54497E+00 
  55781.2746     0.54112E+00 
  55813.5368     0.53728E+00 
  55845.7990     0.53346E+00 
  55878.0611     0.52964E+00 
  55910.3233     0.52583E+00 
  55942.5854     0.52203E+00 
  55974.8476     0.51825E+00 
  56007.1098     0.51447E+00 
  56039.3719     0.51070E+00 
  56071.6341     0.50695E+00 
  56103.8962     0.50320E+00 
  56136.1584     0.49947E+00 
  56168.4206     0.49574E+00 
  56200.6827     0.49203E+00 
  56232.9449     0.48833E+00 
  56265.2070     0.48464E+00 
  56297.4692     0.48096E+00 
  56329.7314     0.47729E+00 
  56361.9935     0.47363E+00 
  56394.2557     0.46998E+00 
  56426.5178     0.46634E+00 
  56458.7800     0.46272E+00 
  56491.0422     0.45911E+00 
  56523.3043     0.45551E+00 
  56555.5665     0.45192E+00 
  56587.8286     0.44834E+00 
  56620.0908     0.44477E+00 
  56652.3530     0.44122E+00 
  56684.6151     0.43767E+00 
  56716.8773     0.43414E+00 
  56749.1394     0.43062E+00 
  56781.4016     0.42712E+00 
  56813.6638     0.42362E+00 
  56845.9259     0.42014E+00 
  56878.1881     0.41667E+00 
  56910.4502     0.41321E+00 
  56942.7124     0.40977E+00 
  56974.9746     0.40634E+00 
  57007.2367     0.40292E+00 
  57039.4989     0.39951E+00 
  57071.7610     0.39612E+00 
  57104.0232     0.39274E+00 
  57136.2854     0.38937E+00 
  57168.5475     0.38602E+00 
  57200.8097     0.38267E+00 
  57233.0718     0.37935E+00 
  57265.3340     0.37603E+00 
  57297.5962     0.37273E+00 
  57329.8583     0.36944E+00 
  57362.1205     0.36617E+00 
  57394.3826     0.36291E+00 
  57426.6448     0.35966E+00 
  57458.9070     0.35643E+00 
  57491.1691     0.35321E+00 
  57523.4313     0.35001E+00 
  57555.6934     0.34682E+00 
  57587.9556     0.34364E+00 
  57620.2178     0.34048E+00 
  57652.4799     0.33733E+00 
  57684.7421     0.33420E+00 
  57717.0042     0.33108E+00 
  57749.2664     0.32797E+00 
  57781.5286     0.32489E+00 
  57813.7907     0.32181E+00 
  57846.0529     0.31875E+00 
  57878.3150     0.31571E+00 
  57910.5772     0.31268E+00 
  57942.8394     0.30966E+00 
  57975.1015     0.30667E+00 
  58007.3637     0.30368E+00 
  58039.6258     0.30071E+00 
  58071.8880     0.29776E+00 
  58104.1502     0.29483E+00 
  58136.4123     0.29191E+00 
  58168.6745     0.28900E+00 
  58200.9366     0.28611E+00 
  58233.1988     0.28324E+00 
  58265.4610     0.28038E+00 
  58297.7231     0.27754E+00 
  58329.9853     0.27472E+00 
  58362.2474     0.27191E+00 
  58394.5096     0.26912E+00 
  58426.7718     0.26635E+00 
  58459.0339     0.26359E+00 
  58491.2961     0.26085E+00 
  58523.5582     0.25813E+00 
  58555.8204     0.25542E+00 
  58588.0826     0.25273E+00 
  58620.3447     0.25006E+00 
  58652.6069     0.24741E+00 
  58684.8690     0.24477E+00 
  58717.1312     0.24215E+00 
  58749.3934     0.23955E+00 
  58781.6555     0.23697E+00 
  58813.9177     0.23441E+00 
  58846.1798     0.23186E+00 
  58878.4420     0.22933E+00 
  58910.7042     0.22682E+00 
  58942.9663     0.22433E+00 
  58975.2285     0.22186E+00 
  59007.4906     0.21941E+00 
  59039.7528     0.21697E+00 
  59072.0150     0.21456E+00 
  59104.2771     0.21216E+00 
  59136.5393     0.20979E+00 
  59168.8014     0.20743E+00 
  59201.0636     0.20509E+00 
  59233.3258     0.20278E+00 
  59265.5879     0.20048E+00 
  59297.8501     0.19820E+00 
  59330.1122     0.19594E+00 
  59362.3744     0.19371E+00 
  59394.6366     0.19149E+00 
  59426.8987     0.18930E+00 
  59459.1609     0.18712E+00 
  59491.4230     0.18497E+00 
  59523.6852     0.18284E+00 
  59555.9474     0.18073E+00 
  59588.2095     0.17864E+00 
  59620.4717     0.17657E+00 
  59652.7338     0.17452E+00 
  59684.9960     0.17250E+00 
  59717.2582     0.17050E+00 
  59749.5203     0.16852E+00 
  59781.7825     0.16656E+00 
  59814.0446     0.16463E+00 
  59846.3068     0.16271E+00 
  59878.5690     0.16083E+00 
  59910.8311     0.15896E+00 
  59943.0933     0.15712E+00 
  59975.3554     0.15530E+00 
  60007.6176     0.15351E+00 
  60039.8798     0.15174E+00 
  60072.1419     0.14999E+00 
  60104.4041     0.14827E+00 
  60136.6662     0.14657E+00 
  60168.9284     0.14490E+00 
  60201.1906     0.14325E+00 
  60233.4527     0.14163E+00 
  60265.7149     0.14003E+00 
  60297.9770     0.13846E+00 
  60330.2392     0.13691E+00 
  60362.5014     0.13539E+00 
  60394.7635     0.13390E+00 
  60427.0257     0.13243E+00 
  60459.2878     0.13099E+00 
  60491.5500     0.12958E+00 
  60523.8122     0.12819E+00 
  60556.0743     0.12683E+00 
  60588.3365     0.12550E+00 
  60620.5986     0.12419E+00 
  60652.8608     0.12292E+00 
  60685.1230     0.12167E+00 
  60717.3851     0.12045E+00 
  60749.6473     0.11926E+00 
  60781.9094     0.11810E+00 
  60814.1716     0.11697E+00 
  60846.4338     0.11587E+00 
  60878.6959     0.11479E+00 
  60910.9581     0.11375E+00 
  60943.2202     0.11274E+00 
  60975.4824     0.11176E+00 
  61007.7446     0.11081E+00 
  61040.0067     0.10989E+00 
  61072.2689     0.10900E+00 
  61104.5310     0.10814E+00 
  61136.7932     0.10732E+00 
  61169.0554     0.10653E+00 
  61201.3175     0.10577E+00 
  61233.5797     0.10504E+00 
  61265.8418     0.10435E+00 
  61298.1040     0.10369E+00 
  61330.3662     0.10306E+00 
  61362.6283     0.10247E+00 
  61394.8905     0.10191E+00 
  61427.1526     0.10139E+00 
  61459.4148     0.10090E+00 
  61491.6770     0.10045E+00 
  61523.9391     0.10003E+00 
  61556.2013     0.99651E-01 
  61588.4634     0.99307E-01 
  61620.7256     0.98999E-01 
  61652.9878     0.98729E-01 
  61685.2499     0.98496E-01 
  61717.5121     0.98300E-01 
  61749.7742     0.98143E-01 
  61782.0364     0.98024E-01 
  61814.2986     0.97944E-01 
  61846.5607     0.97903E-01 
  61878.8229     0.97902E-01 
  61911.0850     0.97940E-01 
  61943.3472     0.98019E-01 
  61975.6094     0.98139E-01 
  62007.8715     0.98300E-01 
  62040.1337     0.98502E-01 
  62072.3958     0.98746E-01 
  62104.6580     0.99032E-01 
  62136.9202     0.99360E-01 
  62169.1823     0.99732E-01 
  62201.4445     0.10015E+00 
  62233.7066     0.10061E+00 
  62265.9688     0.10111E+00 
  62298.2310     0.10166E+00 
  62330.4931     0.10225E+00 
  62362.7553     0.10289E+00 
  62395.0174     0.10357E+00 
  62427.2796     0.10431E+00 
  62459.5418     0.10508E+00 
  62491.8039     0.10591E+00 
  62524.0661     0.10678E+00 
  62556.3282     0.10770E+00 
  62588.5904     0.10867E+00 
  62620.8526     0.10969E+00 
  62653.1147     0.11076E+00 
  62685.3769     0.11188E+00 
  62717.6390     0.11305E+00 
  62749.9012     0.11427E+00 
  62782.1634     0.11554E+00 
  62814.4255     0.11687E+00 
  62846.6877     0.11824E+00 
  62878.9498     0.11967E+00 
  62911.2120     0.12115E+00 
  62943.4742     0.12269E+00 
  62975.7363     0.12428E+00 
  63007.9985     0.12593E+00 
  63040.2606     0.12763E+00 
  63072.5228     0.12939E+00 
  63104.7850     0.13121E+00 
  63137.0471     0.13308E+00 
  63169.3093     0.13501E+00 
  63201.5714     0.13699E+00 
  63233.8336     0.13904E+00 
  63266.0958     0.14115E+00 
  63298.3579     0.14331E+00 
  63330.6201     0.14554E+00 
  63362.8822     0.14783E+00 
  63395.1444     0.15018E+00 
  63427.4066     0.15259E+00 
  63459.6687     0.15506E+00 
  63491.9309     0.15760E+00 
  63524.1930     0.16020E+00 
  63556.4552     0.16287E+00 
  63588.7174     0.16560E+00 
  63620.9795     0.16840E+00 
  63653.2417     0.17126E+00 
  63685.5038     0.17419E+00 
  63717.7660     0.17719E+00 
  63750.0282     0.18026E+00 
  63782.2903     0.18339E+00 
  63814.5525     0.18660E+00 
  63846.8146     0.18987E+00 
  63879.0768     0.19322E+00 
  63911.3390     0.19663E+00 
  63943.6011     0.20012E+00 
  63975.8633     0.20369E+00 
  64008.1254     0.20732E+00 
  64040.3876     0.21103E+00 
  64072.6498     0.21482E+00 
  64104.9119     0.21868E+00 
  64137.1741     0.22261E+00 
  64169.4362     0.22662E+00 
  64201.6984     0.23071E+00 
  64233.9606     0.23488E+00 
  64266.2227     0.23913E+00 
  64298.4849     0.24346E+00 
  64330.7470     0.24787E+00 
  64363.0092     0.25235E+00 
  64395.2714     0.25692E+00 
  64427.5335     0.26158E+00 
  64459.7957     0.26631E+00 
  64492.0578     0.27113E+00 
  64524.3200     0.27604E+00 
  64556.5822     0.28103E+00 
  64588.8443     0.28610E+00 
  64621.1065     0.29127E+00 
  64653.3686     0.29652E+00 
  64685.6308     0.30186E+00 
  64717.8930     0.30729E+00 
  64750.1551     0.31281E+00 
  64782.4173     0.31842E+00 
  64814.6794     0.32412E+00 
  64846.9416     0.32991E+00 
  64879.2038     0.33580E+00 
  64911.4659     0.34178E+00 
  64943.7281     0.34785E+00 
  64975.9902     0.35403E+00 
  65008.2524     0.36029E+00 
  65040.5146     0.36666E+00 
  65072.7767     0.37312E+00 
  65105.0389     0.37968E+00 
  65137.3010     0.38634E+00 
  65169.5632     0.39310E+00 
  65201.8254     0.39997E+00 
  65234.0875     0.40693E+00 
  65266.3497     0.41400E+00 
  65298.6118     0.42117E+00 
  65330.8740     0.42845E+00 
  65363.1362     0.43583E+00 
  65395.3983     0.44332E+00 
  65427.6605     0.45091E+00 
  65459.9226     0.45862E+00 
  65492.1848     0.46643E+00 
  65524.4470     0.47435E+00 
  65556.7091     0.48239E+00 
  65588.9713     0.49053E+00 
  65621.2334     0.49879E+00 
  65653.4956     0.50716E+00 
  65685.7578     0.51564E+00 
  65718.0199     0.52424E+00 
  65750.2821     0.53296E+00 
  65782.5442     0.54179E+00 
  65814.8064     0.55074E+00 
  65847.0686     0.55981E+00 
  65879.3307     0.56900E+00 
  65911.5929     0.57831E+00 
  65943.8550     0.58774E+00 
  65976.1172     0.59730E+00 
  66008.3794     0.60698E+00 
  66040.6415     0.61678E+00 
  66072.9037     0.62670E+00 
  66105.1658     0.63676E+00 
  66137.4280     0.64694E+00 
  66169.6902     0.65725E+00 
  66201.9523     0.66768E+00 
  66234.2145     0.67825E+00 
  66266.4766     0.68895E+00 
  66298.7388     0.69978E+00 
  66331.0010     0.71074E+00 
  66363.2631     0.72184E+00 
  66395.5253     0.73307E+00 
  66427.7874     0.74444E+00 
  66460.0496     0.75594E+00 
  66492.3118     0.76758E+00 
  66524.5739     0.77936E+00 
  66556.8361     0.79128E+00 
  66589.0982     0.80334E+00 
  66621.3604     0.81554E+00 
  66653.6226     0.82788E+00 
  66685.8847     0.84037E+00 
  66718.1469     0.85300E+00 
  66750.4090     0.86578E+00 
  66782.6712     0.87870E+00 
  66814.9334     0.89177E+00 
  66847.1955     0.90499E+00 
  66879.4577     0.91836E+00 
  66911.7198     0.93187E+00 
  66943.9820     0.94554E+00 
  66976.2442     0.95936E+00 
  67008.5063     0.97334E+00 
  67040.7685     0.98747E+00 
  67073.0306     0.10018E+01 
  67105.2928     0.10162E+01 
  67137.5550     0.10308E+01 
  67169.8171     0.10455E+01 
  67202.0793     0.10605E+01 
  67234.3414     0.10755E+01 
  67266.6036     0.10908E+01 
  67298.8658     0.11062E+01 
  67331.1279     0.11217E+01 
  67363.3901     0.11375E+01 
  67395.6522     0.11533E+01 
  67427.9144     0.11694E+01 
  67460.1766     0.11856E+01 
  67492.4387     0.12020E+01 
  67524.7009     0.12186E+01 
  67556.9630     0.12353E+01 
  67589.2252     0.12522E+01 
  67621.4874     0.12693E+01 
  67653.7495     0.12865E+01 
  67686.0117     0.13039E+01 
  67718.2738     0.13215E+01 
  67750.5360     0.13393E+01 
  67782.7982     0.13573E+01 
  67815.0603     0.13754E+01 
  67847.3225     0.13937E+01 
  67879.5846     0.14122E+01 
  67911.8468     0.14308E+01 
  67944.1090     0.14497E+01 
  67976.3711     0.14687E+01 
  68008.6333     0.14879E+01 
  68040.8954     0.15073E+01 
  68073.1576     0.15269E+01 
  68105.4198     0.15467E+01 
  68137.6819     0.15667E+01 
  68169.9441     0.15868E+01 
  68202.2062     0.16071E+01 
  68234.4684     0.16277E+01 
  68266.7306     0.16484E+01 
  68298.9927     0.16693E+01 
  68331.2549     0.16904E+01 
  68363.5170     0.17117E+01 
  68395.7792     0.17332E+01 
  68428.0414     0.17549E+01 
  68460.3035     0.17768E+01 
  68492.5657     0.17989E+01 
  68524.8278     0.18211E+01 
  68557.0900     0.18436E+01 
  68589.3522     0.18663E+01 
  68621.6143     0.18892E+01 
  68653.8765     0.19123E+01 
  68686.1386     0.19356E+01 
  68718.4008     0.19591E+01 
  68750.6630     0.19828E+01 
  68782.9251     0.20067E+01 
  68815.1873     0.20308E+01 
  68847.4494     0.20551E+01 
  68879.7116     0.20796E+01 
  68911.9738     0.21044E+01 
  68944.2359     0.21293E+01 
  68976.4981     0.21545E+01 
  69008.7602     0.21798E+01 
  69041.0224     0.22054E+01 
  69073.2846     0.22312E+01 
  69105.5467     0.22572E+01 
  69137.8089     0.22835E+01 
  69170.0710     0.23099E+01 
  69202.3332     0.23366E+01 
  69234.5954     0.23635E+01 
  69266.8575     0.23905E+01 
  69299.1197     0.24179E+01 
  69331.3818     0.24454E+01 
  69363.6440     0.24732E+01 
  69395.9062     0.25011E+01 
  69428.1683     0.25293E+01 
  69460.4305     0.25578E+01 
  69492.6926     0.25864E+01 
  69524.9548     0.26153E+01 
  69557.2170     0.26444E+01 
  69589.4791     0.26737E+01 
  69621.7413     0.27032E+01 
  69654.0034     0.27330E+01 
  69686.2656     0.27630E+01 
  69718.5278     0.27932E+01 
  69750.7899     0.28237E+01 
  69783.0521     0.28544E+01 
  69815.3142     0.28853E+01 
  69847.5764     0.29165E+01 
  69879.8386     0.29478E+01 
  69912.1007     0.29795E+01 
  69944.3629     0.30113E+01 
  69976.6250     0.30434E+01 
  70008.8872     0.30757E+01 
  70041.1494     0.31083E+01 
  70073.4115     0.31410E+01 
  70105.6737     0.31741E+01 
  70137.9358     0.32073E+01 
  70170.1980     0.32408E+01 
  70202.4602     0.32745E+01 
  70234.7223     0.33085E+01 
  70266.9845     0.33427E+01 
  70299.2466     0.33772E+01 
  70331.5088     0.34118E+01 
  70363.7710     0.34468E+01 
  70396.0331     0.34819E+01 
  70428.2953     0.35173E+01 
  70460.5574     0.35530E+01 
  70492.8196     0.35889E+01 
  70525.0818     0.36250E+01 
  70557.3439     0.36614E+01 
  70589.6061     0.36980E+01 
  70621.8682     0.37348E+01 
  70654.1304     0.37719E+01 
  70686.3926     0.38093E+01 
  70718.6547     0.38469E+01 
  70750.9169     0.38847E+01 
  70783.1790     0.39228E+01 
  70815.4412     0.39611E+01 
  70847.7034     0.39997E+01 
  70879.9655     0.40385E+01 
  70912.2277     0.40775E+01 
  70944.4898     0.41168E+01 
  70976.7520     0.41564E+01 
  71009.0142     0.41962E+01 
  71041.2763     0.42362E+01 
  71073.5385     0.42765E+01 
  71105.8006     0.43170E+01 
  71138.0628     0.43578E+01 
  71170.3250     0.43988E+01 
  71202.5871     0.44401E+01 
  71234.8493     0.44816E+01 
  71267.1114     0.45234E+01 
  71299.3736     0.45654E+01 
  71331.6358     0.46077E+01 
  71363.8979     0.46502E+01 
  71396.1601     0.46929E+01 
  71428.4222     0.47359E+01 
  71460.6844     0.47792E+01 
  71492.9466     0.48227E+01 
  71525.2087     0.48664E+01 
  71557.4709     0.49104E+01 
  71589.7330     0.49547E+01 
  71621.9952     0.49991E+01 
  71654.2574     0.50439E+01 
  71686.5195     0.50888E+01 
  71718.7817     0.51341E+01 
  71751.0438     0.51795E+01 
  71783.3060     0.52253E+01 
  71815.5682     0.52712E+01 
  71847.8303     0.53174E+01 
  71880.0925     0.53639E+01 
  71912.3546     0.54106E+01 
  71944.6168     0.54575E+01 
  71976.8790     0.55047E+01 
  72009.1411     0.55521E+01 
  72041.4033     0.55998E+01 
  72073.6654     0.56477E+01 
  72105.9276     0.56959E+01 
  72138.1898     0.57443E+01 
  72170.4519     0.57929E+01 
  72202.7141     0.58418E+01 
  72234.9762     0.58909E+01 
  72267.2384     0.59403E+01 
  72299.5006     0.59899E+01 
  72331.7627     0.60398E+01 
  72364.0249     0.60899E+01 
  72396.2870     0.61402E+01 
  72428.5492     0.61908E+01 
  72460.8114     0.62416E+01 
  72493.0735     0.62926E+01 
  72525.3357     0.63439E+01 
  72557.5978     0.63954E+01 
  72589.8600     0.64471E+01 
