  32262.1600     0.21259E+01 
  32294.4222     0.21388E+01 
  32326.6843     0.21518E+01 
  32358.9465     0.21648E+01 
  32391.2086     0.21779E+01 
  32423.4708     0.21911E+01 
  32455.7330     0.22042E+01 
  32487.9951     0.22175E+01 
  32520.2573     0.22307E+01 
  32552.5194     0.22441E+01 
  32584.7816     0.22574E+01 
  32617.0438     0.22709E+01 
  32649.3059     0.22844E+01 
  32681.5681     0.22979E+01 
  32713.8302     0.23115E+01 
  32746.0924     0.23251E+01 
  32778.3546     0.23388E+01 
  32810.6167     0.23525E+01 
  32842.8789     0.23663E+01 
  32875.1410     0.23801E+01 
  32907.4032     0.23940E+01 
  32939.6654     0.24079E+01 
  32971.9275     0.24219E+01 
  33004.1897     0.24359E+01 
  33036.4518     0.24500E+01 
  33068.7140     0.24641E+01 
  33100.9762     0.24783E+01 
  33133.2383     0.24925E+01 
  33165.5005     0.25068E+01 
  33197.7626     0.25211E+01 
  33230.0248     0.25355E+01 
  33262.2870     0.25499E+01 
  33294.5491     0.25644E+01 
  33326.8113     0.25789E+01 
  33359.0734     0.25934E+01 
  33391.3356     0.26081E+01 
  33423.5978     0.26227E+01 
  33455.8599     0.26374E+01 
  33488.1221     0.26522E+01 
  33520.3842     0.26670E+01 
  33552.6464     0.26819E+01 
  33584.9086     0.26968E+01 
  33617.1707     0.27117E+01 
  33649.4329     0.27267E+01 
  33681.6950     0.27418E+01 
  33713.9572     0.27568E+01 
  33746.2194     0.27720E+01 
  33778.4815     0.27872E+01 
  33810.7437     0.28024E+01 
  33843.0058     0.28177E+01 
  33875.2680     0.28330E+01 
  33907.5302     0.28484E+01 
  33939.7923     0.28638E+01 
  33972.0545     0.28793E+01 
  34004.3166     0.28948E+01 
  34036.5788     0.29104E+01 
  34068.8410     0.29260E+01 
  34101.1031     0.29416E+01 
  34133.3653     0.29573E+01 
  34165.6274     0.29730E+01 
  34197.8896     0.29888E+01 
  34230.1518     0.30047E+01 
  34262.4139     0.30205E+01 
  34294.6761     0.30365E+01 
  34326.9382     0.30524E+01 
  34359.2004     0.30685E+01 
  34391.4626     0.30845E+01 
  34423.7247     0.31006E+01 
  34455.9869     0.31168E+01 
  34488.2490     0.31329E+01 
  34520.5112     0.31492E+01 
  34552.7734     0.31655E+01 
  34585.0355     0.31818E+01 
  34617.2977     0.31981E+01 
  34649.5598     0.32145E+01 
  34681.8220     0.32310E+01 
  34714.0842     0.32475E+01 
  34746.3463     0.32640E+01 
  34778.6085     0.32806E+01 
  34810.8706     0.32972E+01 
  34843.1328     0.33139E+01 
  34875.3950     0.33306E+01 
  34907.6571     0.33473E+01 
  34939.9193     0.33641E+01 
  34972.1814     0.33809E+01 
  35004.4436     0.33978E+01 
  35036.7058     0.34147E+01 
  35068.9679     0.34317E+01 
  35101.2301     0.34487E+01 
  35133.4922     0.34657E+01 
  35165.7544     0.34828E+01 
  35198.0166     0.34999E+01 
  35230.2787     0.35170E+01 
  35262.5409     0.35342E+01 
  35294.8030     0.35514E+01 
  35327.0652     0.35687E+01 
  35359.3274     0.35860E+01 
  35391.5895     0.36033E+01 
  35423.8517     0.36207E+01 
  35456.1138     0.36381E+01 
  35488.3760     0.36556E+01 
  35520.6382     0.36731E+01 
  35552.9003     0.36906E+01 
  35585.1625     0.37082E+01 
  35617.4246     0.37258E+01 
  35649.6868     0.37434E+01 
  35681.9490     0.37611E+01 
  35714.2111     0.37788E+01 
  35746.4733     0.37966E+01 
  35778.7354     0.38144E+01 
  35810.9976     0.38322E+01 
  35843.2598     0.38501E+01 
  35875.5219     0.38679E+01 
  35907.7841     0.38859E+01 
  35940.0462     0.39038E+01 
  35972.3084     0.39218E+01 
  36004.5706     0.39398E+01 
  36036.8327     0.39579E+01 
  36069.0949     0.39760E+01 
  36101.3570     0.39941E+01 
  36133.6192     0.40123E+01 
  36165.8814     0.40305E+01 
  36198.1435     0.40487E+01 
  36230.4057     0.40670E+01 
  36262.6678     0.40852E+01 
  36294.9300     0.41036E+01 
  36327.1922     0.41219E+01 
  36359.4543     0.41403E+01 
  36391.7165     0.41587E+01 
  36423.9786     0.41771E+01 
  36456.2408     0.41956E+01 
  36488.5030     0.42141E+01 
  36520.7651     0.42326E+01 
  36553.0273     0.42512E+01 
  36585.2894     0.42698E+01 
  36617.5516     0.42884E+01 
  36649.8138     0.43070E+01 
  36682.0759     0.43257E+01 
  36714.3381     0.43444E+01 
  36746.6002     0.43631E+01 
  36778.8624     0.43819E+01 
  36811.1246     0.44006E+01 
  36843.3867     0.44194E+01 
  36875.6489     0.44383E+01 
  36907.9110     0.44571E+01 
  36940.1732     0.44760E+01 
  36972.4354     0.44949E+01 
  37004.6975     0.45138E+01 
  37036.9597     0.45328E+01 
  37069.2218     0.45517E+01 
  37101.4840     0.45707E+01 
  37133.7462     0.45898E+01 
  37166.0083     0.46088E+01 
  37198.2705     0.46279E+01 
  37230.5326     0.46470E+01 
  37262.7948     0.46661E+01 
  37295.0570     0.46852E+01 
  37327.3191     0.47043E+01 
  37359.5813     0.47235E+01 
  37391.8434     0.47427E+01 
  37424.1056     0.47619E+01 
  37456.3678     0.47812E+01 
  37488.6299     0.48004E+01 
  37520.8921     0.48197E+01 
  37553.1542     0.48390E+01 
  37585.4164     0.48583E+01 
  37617.6786     0.48776E+01 
  37649.9407     0.48969E+01 
  37682.2029     0.49163E+01 
  37714.4650     0.49357E+01 
  37746.7272     0.49551E+01 
  37778.9894     0.49745E+01 
  37811.2515     0.49939E+01 
  37843.5137     0.50133E+01 
  37875.7758     0.50328E+01 
  37908.0380     0.50523E+01 
  37940.3002     0.50717E+01 
  37972.5623     0.50912E+01 
  38004.8245     0.51107E+01 
  38037.0866     0.51303E+01 
  38069.3488     0.51498E+01 
  38101.6110     0.51693E+01 
  38133.8731     0.51889E+01 
  38166.1353     0.52085E+01 
  38198.3974     0.52281E+01 
  38230.6596     0.52477E+01 
  38262.9218     0.52673E+01 
  38295.1839     0.52869E+01 
  38327.4461     0.53065E+01 
  38359.7082     0.53261E+01 
  38391.9704     0.53458E+01 
  38424.2326     0.53654E+01 
  38456.4947     0.53851E+01 
  38488.7569     0.54047E+01 
  38521.0190     0.54244E+01 
  38553.2812     0.54441E+01 
  38585.5434     0.54637E+01 
  38617.8055     0.54834E+01 
  38650.0677     0.55031E+01 
  38682.3298     0.55228E+01 
  38714.5920     0.55425E+01 
  38746.8542     0.55622E+01 
  38779.1163     0.55820E+01 
  38811.3785     0.56017E+01 
  38843.6406     0.56214E+01 
  38875.9028     0.56411E+01 
  38908.1650     0.56608E+01 
  38940.4271     0.56806E+01 
  38972.6893     0.57003E+01 
  39004.9514     0.57200E+01 
  39037.2136     0.57397E+01 
  39069.4758     0.57595E+01 
  39101.7379     0.57792E+01 
  39134.0001     0.57989E+01 
  39166.2622     0.58186E+01 
  39198.5244     0.58384E+01 
  39230.7866     0.58581E+01 
  39263.0487     0.58778E+01 
  39295.3109     0.58975E+01 
  39327.5730     0.59172E+01 
  39359.8352     0.59369E+01 
  39392.0974     0.59566E+01 
  39424.3595     0.59763E+01 
  39456.6217     0.59960E+01 
  39488.8838     0.60157E+01 
  39521.1460     0.60354E+01 
  39553.4082     0.60551E+01 
  39585.6703     0.60747E+01 
  39617.9325     0.60944E+01 
  39650.1946     0.61141E+01 
  39682.4568     0.61337E+01 
  39714.7190     0.61533E+01 
  39746.9811     0.61730E+01 
  39779.2433     0.61926E+01 
  39811.5054     0.62122E+01 
  39843.7676     0.62318E+01 
  39876.0298     0.62514E+01 
  39908.2919     0.62709E+01 
  39940.5541     0.62905E+01 
  39972.8162     0.63101E+01 
  40005.0784     0.63296E+01 
  40037.3406     0.63491E+01 
  40069.6027     0.63686E+01 
  40101.8649     0.63881E+01 
  40134.1270     0.64076E+01 
  40166.3892     0.64271E+01 
  40198.6514     0.64465E+01 
  40230.9135     0.64660E+01 
  40263.1757     0.64854E+01 
  40295.4378     0.65048E+01 
  40327.7000     0.65242E+01 
  40359.9622     0.65436E+01 
  40392.2243     0.65629E+01 
  40424.4865     0.65823E+01 
  40456.7486     0.66016E+01 
  40489.0108     0.66209E+01 
  40521.2730     0.66401E+01 
  40553.5351     0.66594E+01 
  40585.7973     0.66786E+01 
  40618.0594     0.66979E+01 
  40650.3216     0.67170E+01 
  40682.5838     0.67362E+01 
  40714.8459     0.67554E+01 
  40747.1081     0.67745E+01 
  40779.3702     0.67936E+01 
  40811.6324     0.68127E+01 
  40843.8946     0.68317E+01 
  40876.1567     0.68507E+01 
  40908.4189     0.68697E+01 
  40940.6810     0.68887E+01 
  40972.9432     0.69077E+01 
  41005.2054     0.69266E+01 
  41037.4675     0.69455E+01 
  41069.7297     0.69644E+01 
  41101.9918     0.69832E+01 
  41134.2540     0.70020E+01 
  41166.5162     0.70208E+01 
  41198.7783     0.70396E+01 
  41231.0405     0.70583E+01 
  41263.3026     0.70770E+01 
  41295.5648     0.70957E+01 
  41327.8270     0.71143E+01 
  41360.0891     0.71329E+01 
  41392.3513     0.71515E+01 
  41424.6134     0.71700E+01 
  41456.8756     0.71885E+01 
  41489.1378     0.72070E+01 
  41521.3999     0.72254E+01 
  41553.6621     0.72438E+01 
  41585.9242     0.72622E+01 
  41618.1864     0.72805E+01 
  41650.4486     0.72988E+01 
  41682.7107     0.73171E+01 
  41714.9729     0.73353E+01 
  41747.2350     0.73535E+01 
  41779.4972     0.73716E+01 
  41811.7594     0.73897E+01 
  41844.0215     0.74078E+01 
  41876.2837     0.74259E+01 
  41908.5458     0.74439E+01 
  41940.8080     0.74618E+01 
  41973.0702     0.74797E+01 
  42005.3323     0.74976E+01 
  42037.5945     0.75154E+01 
  42069.8566     0.75332E+01 
  42102.1188     0.75510E+01 
  42134.3810     0.75687E+01 
  42166.6431     0.75864E+01 
  42198.9053     0.76040E+01 
  42231.1674     0.76216E+01 
  42263.4296     0.76391E+01 
  42295.6918     0.76566E+01 
  42327.9539     0.76740E+01 
  42360.2161     0.76914E+01 
  42392.4782     0.77088E+01 
  42424.7404     0.77261E+01 
  42457.0026     0.77434E+01 
  42489.2647     0.77606E+01 
  42521.5269     0.77777E+01 
  42553.7890     0.77949E+01 
  42586.0512     0.78119E+01 
  42618.3134     0.78290E+01 
  42650.5755     0.78459E+01 
  42682.8377     0.78629E+01 
  42715.0998     0.78797E+01 
  42747.3620     0.78965E+01 
  42779.6242     0.79133E+01 
  42811.8863     0.79300E+01 
  42844.1485     0.79467E+01 
  42876.4106     0.79633E+01 
  42908.6728     0.79799E+01 
  42940.9350     0.79964E+01 
  42973.1971     0.80129E+01 
  43005.4593     0.80293E+01 
  43037.7214     0.80456E+01 
  43069.9836     0.80619E+01 
  43102.2458     0.80782E+01 
  43134.5079     0.80943E+01 
  43166.7701     0.81105E+01 
  43199.0322     0.81265E+01 
  43231.2944     0.81426E+01 
  43263.5566     0.81585E+01 
  43295.8187     0.81744E+01 
  43328.0809     0.81903E+01 
  43360.3430     0.82060E+01 
  43392.6052     0.82218E+01 
  43424.8674     0.82374E+01 
  43457.1295     0.82530E+01 
  43489.3917     0.82686E+01 
  43521.6538     0.82841E+01 
  43553.9160     0.82995E+01 
  43586.1782     0.83149E+01 
  43618.4403     0.83302E+01 
  43650.7025     0.83454E+01 
  43682.9646     0.83606E+01 
  43715.2268     0.83757E+01 
  43747.4890     0.83908E+01 
  43779.7511     0.84058E+01 
  43812.0133     0.84207E+01 
  43844.2754     0.84356E+01 
  43876.5376     0.84504E+01 
  43908.7998     0.84651E+01 
  43941.0619     0.84798E+01 
  43973.3241     0.84944E+01 
  44005.5862     0.85089E+01 
  44037.8484     0.85234E+01 
  44070.1106     0.85378E+01 
  44102.3727     0.85521E+01 
  44134.6349     0.85664E+01 
  44166.8970     0.85806E+01 
  44199.1592     0.85948E+01 
  44231.4214     0.86088E+01 
  44263.6835     0.86228E+01 
  44295.9457     0.86368E+01 
  44328.2078     0.86506E+01 
  44360.4700     0.86644E+01 
  44392.7322     0.86781E+01 
  44424.9943     0.86918E+01 
  44457.2565     0.87054E+01 
  44489.5186     0.87189E+01 
  44521.7808     0.87323E+01 
  44554.0430     0.87457E+01 
  44586.3051     0.87590E+01 
  44618.5673     0.87722E+01 
  44650.8294     0.87854E+01 
  44683.0916     0.87984E+01 
  44715.3538     0.88114E+01 
  44747.6159     0.88244E+01 
  44779.8781     0.88372E+01 
  44812.1402     0.88500E+01 
  44844.4024     0.88627E+01 
  44876.6646     0.88754E+01 
  44908.9267     0.88879E+01 
  44941.1889     0.89004E+01 
  44973.4510     0.89128E+01 
  45005.7132     0.89251E+01 
  45037.9754     0.89374E+01 
  45070.2375     0.89496E+01 
  45102.4997     0.89617E+01 
  45134.7618     0.89737E+01 
  45167.0240     0.89856E+01 
  45199.2862     0.89975E+01 
  45231.5483     0.90093E+01 
  45263.8105     0.90210E+01 
  45296.0726     0.90327E+01 
  45328.3348     0.90442E+01 
  45360.5970     0.90557E+01 
  45392.8591     0.90671E+01 
  45425.1213     0.90784E+01 
  45457.3834     0.90896E+01 
  45489.6456     0.91008E+01 
  45521.9078     0.91119E+01 
  45554.1699     0.91229E+01 
  45586.4321     0.91338E+01 
  45618.6942     0.91446E+01 
  45650.9564     0.91554E+01 
  45683.2186     0.91661E+01 
  45715.4807     0.91767E+01 
  45747.7429     0.91872E+01 
  45780.0050     0.91976E+01 
  45812.2672     0.92079E+01 
  45844.5294     0.92182E+01 
  45876.7915     0.92284E+01 
  45909.0537     0.92385E+01 
  45941.3158     0.92485E+01 
  45973.5780     0.92584E+01 
  46005.8402     0.92683E+01 
  46038.1023     0.92780E+01 
  46070.3645     0.92877E+01 
  46102.6266     0.92973E+01 
  46134.8888     0.93068E+01 
  46167.1510     0.93162E+01 
  46199.4131     0.93256E+01 
  46231.6753     0.93348E+01 
  46263.9374     0.93440E+01 
  46296.1996     0.93531E+01 
  46328.4618     0.93621E+01 
  46360.7239     0.93710E+01 
  46392.9861     0.93798E+01 
  46425.2482     0.93886E+01 
  46457.5104     0.93972E+01 
  46489.7726     0.94058E+01 
  46522.0347     0.94143E+01 
  46554.2969     0.94227E+01 
  46586.5590     0.94310E+01 
  46618.8212     0.94392E+01 
  46651.0834     0.94474E+01 
  46683.3455     0.94554E+01 
  46715.6077     0.94634E+01 
  46747.8698     0.94712E+01 
  46780.1320     0.94790E+01 
  46812.3942     0.94867E+01 
  46844.6563     0.94943E+01 
  46876.9185     0.95019E+01 
  46909.1806     0.95093E+01 
  46941.4428     0.95166E+01 
  46973.7050     0.95239E+01 
  47005.9671     0.95311E+01 
  47038.2293     0.95382E+01 
  47070.4914     0.95451E+01 
  47102.7536     0.95520E+01 
  47135.0158     0.95589E+01 
  47167.2779     0.95656E+01 
  47199.5401     0.95722E+01 
  47231.8022     0.95788E+01 
  47264.0644     0.95852E+01 
  47296.3266     0.95916E+01 
  47328.5887     0.95979E+01 
  47360.8509     0.96041E+01 
  47393.1130     0.96102E+01 
  47425.3752     0.96162E+01 
  47457.6374     0.96221E+01 
  47489.8995     0.96279E+01 
  47522.1617     0.96337E+01 
  47554.4238     0.96393E+01 
  47586.6860     0.96449E+01 
  47618.9482     0.96504E+01 
  47651.2103     0.96558E+01 
  47683.4725     0.96611E+01 
  47715.7346     0.96663E+01 
  47747.9968     0.96714E+01 
  47780.2590     0.96764E+01 
  47812.5211     0.96814E+01 
  47844.7833     0.96862E+01 
  47877.0454     0.96910E+01 
  47909.3076     0.96956E+01 
  47941.5698     0.97002E+01 
  47973.8319     0.97047E+01 
  48006.0941     0.97091E+01 
  48038.3562     0.97134E+01 
  48070.6184     0.97176E+01 
  48102.8806     0.97218E+01 
  48135.1427     0.97258E+01 
  48167.4049     0.97297E+01 
  48199.6670     0.97336E+01 
  48231.9292     0.97374E+01 
  48264.1914     0.97411E+01 
  48296.4535     0.97446E+01 
  48328.7157     0.97482E+01 
  48360.9778     0.97516E+01 
  48393.2400     0.97549E+01 
  48425.5022     0.97581E+01 
  48457.7643     0.97613E+01 
  48490.0265     0.97643E+01 
  48522.2886     0.97673E+01 
  48554.5508     0.97702E+01 
  48586.8130     0.97730E+01 
  48619.0751     0.97757E+01 
  48651.3373     0.97783E+01 
  48683.5994     0.97808E+01 
  48715.8616     0.97832E+01 
  48748.1238     0.97856E+01 
  48780.3859     0.97879E+01 
  48812.6481     0.97900E+01 
  48844.9102     0.97921E+01 
  48877.1724     0.97941E+01 
  48909.4346     0.97960E+01 
  48941.6967     0.97978E+01 
  48973.9589     0.97996E+01 
  49006.2210     0.98012E+01 
  49038.4832     0.98028E+01 
  49070.7454     0.98042E+01 
  49103.0075     0.98056E+01 
  49135.2697     0.98069E+01 
  49167.5318     0.98081E+01 
  49199.7940     0.98093E+01 
  49232.0562     0.98103E+01 
  49264.3183     0.98113E+01 
  49296.5805     0.98121E+01 
  49328.8426     0.98129E+01 
  49361.1048     0.98136E+01 
  49393.3670     0.98142E+01 
  49425.6291     0.98147E+01 
  49457.8913     0.98152E+01 
  49490.1534     0.98155E+01 
  49522.4156     0.98158E+01 
  49554.6778     0.98160E+01 
  49586.9399     0.98161E+01 
  49619.2021     0.98161E+01 
  49651.4642     0.98161E+01 
  49683.7264     0.98159E+01 
  49715.9886     0.98157E+01 
  49748.2507     0.98154E+01 
  49780.5129     0.98150E+01 
  49812.7750     0.98145E+01 
  49845.0372     0.98140E+01 
  49877.2994     0.98133E+01 
  49909.5615     0.98126E+01 
  49941.8237     0.98118E+01 
  49974.0858     0.98109E+01 
  50006.3480     0.98100E+01 
  50038.6102     0.98089E+01 
  50070.8723     0.98078E+01 
  50103.1345     0.98066E+01 
  50135.3966     0.98053E+01 
  50167.6588     0.98039E+01 
  50199.9210     0.98025E+01 
  50232.1831     0.98010E+01 
  50264.4453     0.97994E+01 
  50296.7074     0.97977E+01 
  50328.9696     0.97960E+01 
  50361.2318     0.97941E+01 
  50393.4939     0.97922E+01 
  50425.7561     0.97902E+01 
  50458.0182     0.97882E+01 
  50490.2804     0.97860E+01 
  50522.5426     0.97838E+01 
  50554.8047     0.97815E+01 
  50587.0669     0.97792E+01 
  50619.3290     0.97767E+01 
  50651.5912     0.97742E+01 
  50683.8534     0.97717E+01 
  50716.1155     0.97690E+01 
  50748.3777     0.97663E+01 
  50780.6398     0.97635E+01 
  50812.9020     0.97606E+01 
  50845.1642     0.97576E+01 
  50877.4263     0.97546E+01 
  50909.6885     0.97515E+01 
  50941.9506     0.97484E+01 
  50974.2128     0.97452E+01 
  51006.4750     0.97419E+01 
  51038.7371     0.97385E+01 
  51070.9993     0.97351E+01 
  51103.2614     0.97316E+01 
  51135.5236     0.97280E+01 
  51167.7858     0.97243E+01 
  51200.0479     0.97206E+01 
  51232.3101     0.97169E+01 
  51264.5722     0.97130E+01 
  51296.8344     0.97091E+01 
  51329.0966     0.97052E+01 
  51361.3587     0.97011E+01 
  51393.6209     0.96970E+01 
  51425.8830     0.96929E+01 
  51458.1452     0.96887E+01 
  51490.4074     0.96844E+01 
  51522.6695     0.96800E+01 
  51554.9317     0.96756E+01 
  51587.1938     0.96711E+01 
  51619.4560     0.96666E+01 
  51651.7182     0.96620E+01 
  51683.9803     0.96574E+01 
  51716.2425     0.96527E+01 
  51748.5046     0.96479E+01 
  51780.7668     0.96431E+01 
  51813.0290     0.96382E+01 
  51845.2911     0.96333E+01 
  51877.5533     0.96283E+01 
  51909.8154     0.96232E+01 
  51942.0776     0.96181E+01 
  51974.3398     0.96130E+01 
  52006.6019     0.96077E+01 
  52038.8641     0.96025E+01 
  52071.1262     0.95972E+01 
  52103.3884     0.95918E+01 
  52135.6506     0.95864E+01 
  52167.9127     0.95809E+01 
  52200.1749     0.95754E+01 
  52232.4370     0.95698E+01 
  52264.6992     0.95642E+01 
  52296.9614     0.95585E+01 
  52329.2235     0.95528E+01 
  52361.4857     0.95470E+01 
  52393.7478     0.95412E+01 
  52426.0100     0.95354E+01 
  52458.2722     0.95295E+01 
  52490.5343     0.95235E+01 
  52522.7965     0.95175E+01 
  52555.0586     0.95115E+01 
  52587.3208     0.95054E+01 
  52619.5830     0.94993E+01 
  52651.8451     0.94932E+01 
  52684.1073     0.94870E+01 
  52716.3694     0.94807E+01 
  52748.6316     0.94745E+01 
  52780.8938     0.94682E+01 
  52813.1559     0.94618E+01 
  52845.4181     0.94554E+01 
  52877.6802     0.94490E+01 
  52909.9424     0.94425E+01 
  52942.2046     0.94360E+01 
  52974.4667     0.94295E+01 
  53006.7289     0.94230E+01 
  53038.9910     0.94164E+01 
  53071.2532     0.94097E+01 
  53103.5154     0.94031E+01 
  53135.7775     0.93964E+01 
  53168.0397     0.93897E+01 
  53200.3018     0.93829E+01 
  53232.5640     0.93762E+01 
  53264.8262     0.93694E+01 
  53297.0883     0.93626E+01 
  53329.3505     0.93557E+01 
  53361.6126     0.93488E+01 
  53393.8748     0.93419E+01 
  53426.1370     0.93350E+01 
  53458.3991     0.93281E+01 
  53490.6613     0.93211E+01 
  53522.9234     0.93141E+01 
  53555.1856     0.93071E+01 
  53587.4478     0.93001E+01 
  53619.7099     0.92931E+01 
  53651.9721     0.92860E+01 
  53684.2342     0.92789E+01 
  53716.4964     0.92718E+01 
  53748.7586     0.92647E+01 
  53781.0207     0.92576E+01 
  53813.2829     0.92505E+01 
  53845.5450     0.92434E+01 
  53877.8072     0.92362E+01 
  53910.0694     0.92291E+01 
  53942.3315     0.92219E+01 
  53974.5937     0.92147E+01 
  54006.8558     0.92075E+01 
  54039.1180     0.92003E+01 
  54071.3802     0.91931E+01 
  54103.6423     0.91859E+01 
  54135.9045     0.91787E+01 
  54168.1666     0.91715E+01 
  54200.4288     0.91643E+01 
  54232.6910     0.91571E+01 
  54264.9531     0.91499E+01 
  54297.2153     0.91427E+01 
  54329.4774     0.91355E+01 
  54361.7396     0.91283E+01 
  54394.0018     0.91211E+01 
  54426.2639     0.91139E+01 
  54458.5261     0.91067E+01 
  54490.7882     0.90995E+01 
  54523.0504     0.90923E+01 
  54555.3126     0.90851E+01 
  54587.5747     0.90780E+01 
  54619.8369     0.90708E+01 
  54652.0990     0.90637E+01 
  54684.3612     0.90566E+01 
  54716.6234     0.90495E+01 
  54748.8855     0.90424E+01 
  54781.1477     0.90353E+01 
  54813.4098     0.90283E+01 
  54845.6720     0.90212E+01 
  54877.9342     0.90142E+01 
  54910.1963     0.90072E+01 
  54942.4585     0.90002E+01 
  54974.7206     0.89933E+01 
  55006.9828     0.89863E+01 
  55039.2450     0.89794E+01 
  55071.5071     0.89725E+01 
  55103.7693     0.89657E+01 
  55136.0314     0.89589E+01 
  55168.2936     0.89521E+01 
  55200.5558     0.89453E+01 
  55232.8179     0.89386E+01 
  55265.0801     0.89319E+01 
  55297.3422     0.89252E+01 
  55329.6044     0.89186E+01 
  55361.8666     0.89120E+01 
  55394.1287     0.89054E+01 
  55426.3909     0.88989E+01 
  55458.6530     0.88924E+01 
  55490.9152     0.88859E+01 
  55523.1774     0.88795E+01 
  55555.4395     0.88732E+01 
  55587.7017     0.88668E+01 
  55619.9638     0.88606E+01 
  55652.2260     0.88543E+01 
  55684.4882     0.88482E+01 
  55716.7503     0.88420E+01 
  55749.0125     0.88360E+01 
  55781.2746     0.88299E+01 
  55813.5368     0.88240E+01 
  55845.7990     0.88180E+01 
  55878.0611     0.88122E+01 
  55910.3233     0.88063E+01 
  55942.5854     0.88006E+01 
  55974.8476     0.87949E+01 
  56007.1098     0.87893E+01 
  56039.3719     0.87837E+01 
  56071.6341     0.87782E+01 
  56103.8962     0.87727E+01 
  56136.1584     0.87673E+01 
  56168.4206     0.87620E+01 
  56200.6827     0.87568E+01 
  56232.9449     0.87516E+01 
  56265.2070     0.87465E+01 
  56297.4692     0.87414E+01 
  56329.7314     0.87364E+01 
  56361.9935     0.87315E+01 
  56394.2557     0.87267E+01 
  56426.5178     0.87220E+01 
  56458.7800     0.87173E+01 
  56491.0422     0.87127E+01 
  56523.3043     0.87082E+01 
  56555.5665     0.87038E+01 
  56587.8286     0.86994E+01 
  56620.0908     0.86952E+01 
  56652.3530     0.86910E+01 
  56684.6151     0.86869E+01 
  56716.8773     0.86829E+01 
  56749.1394     0.86790E+01 
  56781.4016     0.86752E+01 
  56813.6638     0.86714E+01 
  56845.9259     0.86678E+01 
  56878.1881     0.86643E+01 
  56910.4502     0.86608E+01 
  56942.7124     0.86575E+01 
  56974.9746     0.86542E+01 
  57007.2367     0.86511E+01 
  57039.4989     0.86480E+01 
  57071.7610     0.86451E+01 
  57104.0232     0.86423E+01 
  57136.2854     0.86396E+01 
  57168.5475     0.86369E+01 
  57200.8097     0.86344E+01 
  57233.0718     0.86320E+01 
  57265.3340     0.86297E+01 
  57297.5962     0.86276E+01 
  57329.8583     0.86255E+01 
  57362.1205     0.86236E+01 
  57394.3826     0.86217E+01 
  57426.6448     0.86200E+01 
  57458.9070     0.86185E+01 
  57491.1691     0.86170E+01 
  57523.4313     0.86157E+01 
  57555.6934     0.86144E+01 
  57587.9556     0.86134E+01 
  57620.2178     0.86124E+01 
  57652.4799     0.86116E+01 
  57684.7421     0.86109E+01 
  57717.0042     0.86103E+01 
  57749.2664     0.86099E+01 
  57781.5286     0.86096E+01 
  57813.7907     0.86095E+01 
  57846.0529     0.86094E+01 
  57878.3150     0.86096E+01 
  57910.5772     0.86098E+01 
  57942.8394     0.86102E+01 
  57975.1015     0.86108E+01 
  58007.3637     0.86115E+01 
  58039.6258     0.86124E+01 
  58071.8880     0.86134E+01 
  58104.1502     0.86145E+01 
  58136.4123     0.86158E+01 
  58168.6745     0.86173E+01 
  58200.9366     0.86189E+01 
  58233.1988     0.86207E+01 
  58265.4610     0.86226E+01 
  58297.7231     0.86247E+01 
  58329.9853     0.86270E+01 
  58362.2474     0.86294E+01 
  58394.5096     0.86320E+01 
  58426.7718     0.86347E+01 
  58459.0339     0.86377E+01 
  58491.2961     0.86408E+01 
  58523.5582     0.86440E+01 
  58555.8204     0.86475E+01 
  58588.0826     0.86511E+01 
  58620.3447     0.86549E+01 
  58652.6069     0.86588E+01 
  58684.8690     0.86630E+01 
  58717.1312     0.86673E+01 
  58749.3934     0.86718E+01 
  58781.6555     0.86766E+01 
  58813.9177     0.86814E+01 
  58846.1798     0.86865E+01 
  58878.4420     0.86918E+01 
  58910.7042     0.86973E+01 
  58942.9663     0.87029E+01 
  58975.2285     0.87088E+01 
  59007.4906     0.87148E+01 
  59039.7528     0.87211E+01 
  59072.0150     0.87275E+01 
  59104.2771     0.87342E+01 
  59136.5393     0.87410E+01 
  59168.8014     0.87481E+01 
  59201.0636     0.87553E+01 
  59233.3258     0.87628E+01 
  59265.5879     0.87705E+01 
  59297.8501     0.87784E+01 
  59330.1122     0.87865E+01 
  59362.3744     0.87948E+01 
  59394.6366     0.88034E+01 
  59426.8987     0.88122E+01 
  59459.1609     0.88212E+01 
  59491.4230     0.88304E+01 
  59523.6852     0.88398E+01 
  59555.9474     0.88495E+01 
  59588.2095     0.88593E+01 
  59620.4717     0.88695E+01 
  59652.7338     0.88798E+01 
  59684.9960     0.88904E+01 
  59717.2582     0.89012E+01 
  59749.5203     0.89123E+01 
  59781.7825     0.89236E+01 
  59814.0446     0.89351E+01 
  59846.3068     0.89469E+01 
  59878.5690     0.89589E+01 
  59910.8311     0.89712E+01 
  59943.0933     0.89837E+01 
  59975.3554     0.89965E+01 
  60007.6176     0.90095E+01 
  60039.8798     0.90227E+01 
  60072.1419     0.90363E+01 
  60104.4041     0.90501E+01 
  60136.6662     0.90641E+01 
  60168.9284     0.90784E+01 
  60201.1906     0.90930E+01 
  60233.4527     0.91078E+01 
  60265.7149     0.91229E+01 
  60297.9770     0.91382E+01 
  60330.2392     0.91539E+01 
  60362.5014     0.91698E+01 
  60394.7635     0.91859E+01 
  60427.0257     0.92024E+01 
  60459.2878     0.92191E+01 
  60491.5500     0.92361E+01 
  60523.8122     0.92534E+01 
  60556.0743     0.92709E+01 
  60588.3365     0.92888E+01 
  60620.5986     0.93069E+01 
  60652.8608     0.93253E+01 
  60685.1230     0.93440E+01 
  60717.3851     0.93630E+01 
  60749.6473     0.93823E+01 
  60781.9094     0.94019E+01 
  60814.1716     0.94218E+01 
  60846.4338     0.94420E+01 
  60878.6959     0.94625E+01 
  60910.9581     0.94833E+01 
  60943.2202     0.95044E+01 
  60975.4824     0.95258E+01 
  61007.7446     0.95475E+01 
  61040.0067     0.95695E+01 
  61072.2689     0.95918E+01 
  61104.5310     0.96144E+01 
  61136.7932     0.96374E+01 
  61169.0554     0.96607E+01 
  61201.3175     0.96843E+01 
  61233.5797     0.97082E+01 
  61265.8418     0.97324E+01 
  61298.1040     0.97570E+01 
  61330.3662     0.97819E+01 
  61362.6283     0.98071E+01 
  61394.8905     0.98326E+01 
  61427.1526     0.98585E+01 
  61459.4148     0.98847E+01 
  61491.6770     0.99112E+01 
  61523.9391     0.99381E+01 
  61556.2013     0.99654E+01 
  61588.4634     0.99929E+01 
  61620.7256     0.10021E+02 
  61652.9878     0.10049E+02 
  61685.2499     0.10078E+02 
  61717.5121     0.10107E+02 
  61749.7742     0.10136E+02 
  61782.0364     0.10166E+02 
  61814.2986     0.10196E+02 
  61846.5607     0.10226E+02 
  61878.8229     0.10257E+02 
  61911.0850     0.10288E+02 
  61943.3472     0.10319E+02 
  61975.6094     0.10351E+02 
  62007.8715     0.10383E+02 
  62040.1337     0.10416E+02 
  62072.3958     0.10449E+02 
  62104.6580     0.10482E+02 
  62136.9202     0.10516E+02 
  62169.1823     0.10550E+02 
  62201.4445     0.10584E+02 
  62233.7066     0.10619E+02 
  62265.9688     0.10654E+02 
  62298.2310     0.10690E+02 
  62330.4931     0.10725E+02 
  62362.7553     0.10762E+02 
  62395.0174     0.10799E+02 
  62427.2796     0.10836E+02 
  62459.5418     0.10873E+02 
  62491.8039     0.10911E+02 
  62524.0661     0.10949E+02 
  62556.3282     0.10988E+02 
  62588.5904     0.11027E+02 
  62620.8526     0.11067E+02 
  62653.1147     0.11106E+02 
  62685.3769     0.11147E+02 
  62717.6390     0.11187E+02 
  62749.9012     0.11228E+02 
  62782.1634     0.11270E+02 
  62814.4255     0.11312E+02 
  62846.6877     0.11354E+02 
  62878.9498     0.11397E+02 
  62911.2120     0.11440E+02 
  62943.4742     0.11484E+02 
  62975.7363     0.11528E+02 
  63007.9985     0.11572E+02 
  63040.2606     0.11617E+02 
  63072.5228     0.11662E+02 
  63104.7850     0.11708E+02 
  63137.0471     0.11754E+02 
  63169.3093     0.11801E+02 
  63201.5714     0.11848E+02 
  63233.8336     0.11895E+02 
  63266.0958     0.11943E+02 
  63298.3579     0.11992E+02 
  63330.6201     0.12040E+02 
  63362.8822     0.12090E+02 
  63395.1444     0.12139E+02 
  63427.4066     0.12189E+02 
  63459.6687     0.12240E+02 
  63491.9309     0.12291E+02 
  63524.1930     0.12342E+02 
  63556.4552     0.12394E+02 
  63588.7174     0.12447E+02 
  63620.9795     0.12499E+02 
  63653.2417     0.12553E+02 
  63685.5038     0.12606E+02 
  63717.7660     0.12661E+02 
  63750.0282     0.12715E+02 
  63782.2903     0.12770E+02 
  63814.5525     0.12826E+02 
  63846.8146     0.12882E+02 
  63879.0768     0.12939E+02 
  63911.3390     0.12996E+02 
  63943.6011     0.13053E+02 
  63975.8633     0.13111E+02 
  64008.1254     0.13170E+02 
  64040.3876     0.13229E+02 
  64072.6498     0.13288E+02 
  64104.9119     0.13348E+02 
  64137.1741     0.13408E+02 
  64169.4362     0.13469E+02 
  64201.6984     0.13530E+02 
  64233.9606     0.13592E+02 
  64266.2227     0.13655E+02 
  64298.4849     0.13717E+02 
  64330.7470     0.13781E+02 
  64363.0092     0.13845E+02 
  64395.2714     0.13909E+02 
  64427.5335     0.13974E+02 
  64459.7957     0.14039E+02 
  64492.0578     0.14105E+02 
  64524.3200     0.14171E+02 
  64556.5822     0.14238E+02 
  64588.8443     0.14305E+02 
  64621.1065     0.14373E+02 
  64653.3686     0.14442E+02 
  64685.6308     0.14510E+02 
  64717.8930     0.14580E+02 
  64750.1551     0.14650E+02 
  64782.4173     0.14720E+02 
  64814.6794     0.14791E+02 
  64846.9416     0.14863E+02 
  64879.2038     0.14935E+02 
  64911.4659     0.15007E+02 
  64943.7281     0.15080E+02 
  64975.9902     0.15154E+02 
  65008.2524     0.15228E+02 
  65040.5146     0.15302E+02 
  65072.7767     0.15377E+02 
  65105.0389     0.15453E+02 
  65137.3010     0.15529E+02 
  65169.5632     0.15606E+02 
  65201.8254     0.15683E+02 
  65234.0875     0.15761E+02 
  65266.3497     0.15840E+02 
  65298.6118     0.15918E+02 
  65330.8740     0.15998E+02 
  65363.1362     0.16078E+02 
  65395.3983     0.16158E+02 
  65427.6605     0.16240E+02 
  65459.9226     0.16321E+02 
  65492.1848     0.16403E+02 
  65524.4470     0.16486E+02 
  65556.7091     0.16569E+02 
  65588.9713     0.16653E+02 
  65621.2334     0.16738E+02 
  65653.4956     0.16822E+02 
  65685.7578     0.16908E+02 
  65718.0199     0.16994E+02 
  65750.2821     0.17081E+02 
  65782.5442     0.17168E+02 
  65814.8064     0.17256E+02 
  65847.0686     0.17344E+02 
  65879.3307     0.17433E+02 
  65911.5929     0.17522E+02 
  65943.8550     0.17612E+02 
  65976.1172     0.17703E+02 
  66008.3794     0.17794E+02 
  66040.6415     0.17886E+02 
  66072.9037     0.17978E+02 
  66105.1658     0.18071E+02 
  66137.4280     0.18164E+02 
  66169.6902     0.18258E+02 
  66201.9523     0.18353E+02 
  66234.2145     0.18448E+02 
  66266.4766     0.18544E+02 
  66298.7388     0.18640E+02 
  66331.0010     0.18737E+02 
  66363.2631     0.18834E+02 
  66395.5253     0.18933E+02 
  66427.7874     0.19031E+02 
  66460.0496     0.19130E+02 
  66492.3118     0.19230E+02 
  66524.5739     0.19331E+02 
  66556.8361     0.19432E+02 
  66589.0982     0.19533E+02 
  66621.3604     0.19635E+02 
  66653.6226     0.19738E+02 
  66685.8847     0.19842E+02 
  66718.1469     0.19946E+02 
  66750.4090     0.20050E+02 
  66782.6712     0.20155E+02 
  66814.9334     0.20261E+02 
  66847.1955     0.20367E+02 
  66879.4577     0.20474E+02 
  66911.7198     0.20582E+02 
  66943.9820     0.20690E+02 
  66976.2442     0.20799E+02 
  67008.5063     0.20908E+02 
  67040.7685     0.21018E+02 
  67073.0306     0.21128E+02 
  67105.2928     0.21240E+02 
  67137.5550     0.21351E+02 
  67169.8171     0.21464E+02 
  67202.0793     0.21577E+02 
  67234.3414     0.21690E+02 
  67266.6036     0.21804E+02 
  67298.8658     0.21919E+02 
  67331.1279     0.22035E+02 
  67363.3901     0.22151E+02 
  67395.6522     0.22267E+02 
  67427.9144     0.22384E+02 
  67460.1766     0.22502E+02 
  67492.4387     0.22621E+02 
  67524.7009     0.22740E+02 
  67556.9630     0.22859E+02 
  67589.2252     0.22980E+02 
  67621.4874     0.23100E+02 
  67653.7495     0.23222E+02 
  67686.0117     0.23344E+02 
  67718.2738     0.23467E+02 
  67750.5360     0.23590E+02 
  67782.7982     0.23714E+02 
  67815.0603     0.23839E+02 
  67847.3225     0.23964E+02 
  67879.5846     0.24090E+02 
  67911.8468     0.24216E+02 
  67944.1090     0.24343E+02 
  67976.3711     0.24471E+02 
  68008.6333     0.24599E+02 
  68040.8954     0.24728E+02 
  68073.1576     0.24858E+02 
  68105.4198     0.24988E+02 
  68137.6819     0.25118E+02 
  68169.9441     0.25250E+02 
  68202.2062     0.25382E+02 
  68234.4684     0.25514E+02 
  68266.7306     0.25648E+02 
  68298.9927     0.25782E+02 
  68331.2549     0.25916E+02 
  68363.5170     0.26051E+02 
  68395.7792     0.26187E+02 
  68428.0414     0.26323E+02 
  68460.3035     0.26460E+02 
  68492.5657     0.26598E+02 
  68524.8278     0.26736E+02 
  68557.0900     0.26875E+02 
  68589.3522     0.27014E+02 
  68621.6143     0.27154E+02 
  68653.8765     0.27295E+02 
  68686.1386     0.27436E+02 
  68718.4008     0.27578E+02 
  68750.6630     0.27721E+02 
  68782.9251     0.27864E+02 
  68815.1873     0.28008E+02 
  68847.4494     0.28152E+02 
  68879.7116     0.28297E+02 
  68911.9738     0.28443E+02 
  68944.2359     0.28589E+02 
  68976.4981     0.28736E+02 
  69008.7602     0.28884E+02 
  69041.0224     0.29032E+02 
  69073.2846     0.29180E+02 
  69105.5467     0.29330E+02 
  69137.8089     0.29480E+02 
  69170.0710     0.29630E+02 
  69202.3332     0.29782E+02 
  69234.5954     0.29933E+02 
  69266.8575     0.30086E+02 
  69299.1197     0.30239E+02 
  69331.3818     0.30393E+02 
  69363.6440     0.30547E+02 
  69395.9062     0.30702E+02 
  69428.1683     0.30857E+02 
  69460.4305     0.31014E+02 
  69492.6926     0.31170E+02 
  69524.9548     0.31328E+02 
  69557.2170     0.31486E+02 
  69589.4791     0.31644E+02 
  69621.7413     0.31804E+02 
  69654.0034     0.31963E+02 
  69686.2656     0.32124E+02 
  69718.5278     0.32285E+02 
  69750.7899     0.32446E+02 
  69783.0521     0.32609E+02 
  69815.3142     0.32772E+02 
  69847.5764     0.32935E+02 
  69879.8386     0.33099E+02 
  69912.1007     0.33264E+02 
  69944.3629     0.33429E+02 
  69976.6250     0.33595E+02 
  70008.8872     0.33761E+02 
  70041.1494     0.33929E+02 
  70073.4115     0.34096E+02 
  70105.6737     0.34265E+02 
  70137.9358     0.34433E+02 
  70170.1980     0.34603E+02 
  70202.4602     0.34773E+02 
  70234.7223     0.34944E+02 
  70266.9845     0.35115E+02 
  70299.2466     0.35287E+02 
  70331.5088     0.35459E+02 
  70363.7710     0.35632E+02 
  70396.0331     0.35806E+02 
  70428.2953     0.35980E+02 
  70460.5574     0.36155E+02 
  70492.8196     0.36330E+02 
  70525.0818     0.36506E+02 
  70557.3439     0.36683E+02 
  70589.6061     0.36860E+02 
  70621.8682     0.37038E+02 
  70654.1304     0.37216E+02 
  70686.3926     0.37395E+02 
  70718.6547     0.37574E+02 
  70750.9169     0.37754E+02 
  70783.1790     0.37935E+02 
  70815.4412     0.38116E+02 
  70847.7034     0.38298E+02 
  70879.9655     0.38480E+02 
  70912.2277     0.38663E+02 
  70944.4898     0.38847E+02 
  70976.7520     0.39031E+02 
  71009.0142     0.39215E+02 
  71041.2763     0.39400E+02 
  71073.5385     0.39586E+02 
  71105.8006     0.39772E+02 
  71138.0628     0.39959E+02 
  71170.3250     0.40146E+02 
  71202.5871     0.40334E+02 
  71234.8493     0.40523E+02 
  71267.1114     0.40712E+02 
  71299.3736     0.40902E+02 
  71331.6358     0.41092E+02 
  71363.8979     0.41282E+02 
  71396.1601     0.41474E+02 
  71428.4222     0.41665E+02 
  71460.6844     0.41858E+02 
  71492.9466     0.42050E+02 
  71525.2087     0.42244E+02 
  71557.4709     0.42438E+02 
  71589.7330     0.42632E+02 
  71621.9952     0.42827E+02 
  71654.2574     0.43023E+02 
  71686.5195     0.43219E+02 
  71718.7817     0.43415E+02 
  71751.0438     0.43612E+02 
  71783.3060     0.43810E+02 
  71815.5682     0.44008E+02 
  71847.8303     0.44206E+02 
  71880.0925     0.44406E+02 
  71912.3546     0.44605E+02 
  71944.6168     0.44805E+02 
  71976.8790     0.45006E+02 
  72009.1411     0.45207E+02 
  72041.4033     0.45409E+02 
  72073.6654     0.45611E+02 
  72105.9276     0.45813E+02 
  72138.1898     0.46017E+02 
  72170.4519     0.46220E+02 
  72202.7141     0.46424E+02 
  72234.9762     0.46629E+02 
  72267.2384     0.46834E+02 
  72299.5006     0.47040E+02 
  72331.7627     0.47246E+02 
  72364.0249     0.47452E+02 
  72396.2870     0.47659E+02 
  72428.5492     0.47867E+02 
  72460.8114     0.48075E+02 
  72493.0735     0.48283E+02 
  72525.3357     0.48492E+02 
  72557.5978     0.48701E+02 
  72589.8600     0.48911E+02 
