  32262.1600     0.15662E-02 
  32294.4222     0.15821E-02 
  32326.6843     0.15980E-02 
  32358.9465     0.16141E-02 
  32391.2086     0.16303E-02 
  32423.4708     0.16466E-02 
  32455.7330     0.16630E-02 
  32487.9951     0.16795E-02 
  32520.2573     0.16961E-02 
  32552.5194     0.17128E-02 
  32584.7816     0.17296E-02 
  32617.0438     0.17465E-02 
  32649.3059     0.17635E-02 
  32681.5681     0.17807E-02 
  32713.8302     0.17979E-02 
  32746.0924     0.18152E-02 
  32778.3546     0.18326E-02 
  32810.6167     0.18501E-02 
  32842.8789     0.18677E-02 
  32875.1410     0.18854E-02 
  32907.4032     0.19032E-02 
  32939.6654     0.19211E-02 
  32971.9275     0.19392E-02 
  33004.1897     0.19573E-02 
  33036.4518     0.19755E-02 
  33068.7140     0.19938E-02 
  33100.9762     0.20122E-02 
  33133.2383     0.20307E-02 
  33165.5005     0.20493E-02 
  33197.7626     0.20680E-02 
  33230.0248     0.20868E-02 
  33262.2870     0.21057E-02 
  33294.5491     0.21247E-02 
  33326.8113     0.21438E-02 
  33359.0734     0.21630E-02 
  33391.3356     0.21822E-02 
  33423.5978     0.22016E-02 
  33455.8599     0.22211E-02 
  33488.1221     0.22406E-02 
  33520.3842     0.22603E-02 
  33552.6464     0.22800E-02 
  33584.9086     0.22999E-02 
  33617.1707     0.23198E-02 
  33649.4329     0.23398E-02 
  33681.6950     0.23600E-02 
  33713.9572     0.23802E-02 
  33746.2194     0.24005E-02 
  33778.4815     0.24209E-02 
  33810.7437     0.24413E-02 
  33843.0058     0.24619E-02 
  33875.2680     0.24826E-02 
  33907.5302     0.25033E-02 
  33939.7923     0.25241E-02 
  33972.0545     0.25450E-02 
  34004.3166     0.25660E-02 
  34036.5788     0.25871E-02 
  34068.8410     0.26083E-02 
  34101.1031     0.26296E-02 
  34133.3653     0.26509E-02 
  34165.6274     0.26723E-02 
  34197.8896     0.26938E-02 
  34230.1518     0.27154E-02 
  34262.4139     0.27371E-02 
  34294.6761     0.27588E-02 
  34326.9382     0.27807E-02 
  34359.2004     0.28026E-02 
  34391.4626     0.28246E-02 
  34423.7247     0.28466E-02 
  34455.9869     0.28688E-02 
  34488.2490     0.28910E-02 
  34520.5112     0.29133E-02 
  34552.7734     0.29356E-02 
  34585.0355     0.29581E-02 
  34617.2977     0.29806E-02 
  34649.5598     0.30032E-02 
  34681.8220     0.30258E-02 
  34714.0842     0.30486E-02 
  34746.3463     0.30714E-02 
  34778.6085     0.30942E-02 
  34810.8706     0.31172E-02 
  34843.1328     0.31402E-02 
  34875.3950     0.31632E-02 
  34907.6571     0.31864E-02 
  34939.9193     0.32096E-02 
  34972.1814     0.32328E-02 
  35004.4436     0.32561E-02 
  35036.7058     0.32795E-02 
  35068.9679     0.33030E-02 
  35101.2301     0.33265E-02 
  35133.4922     0.33500E-02 
  35165.7544     0.33736E-02 
  35198.0166     0.33973E-02 
  35230.2787     0.34211E-02 
  35262.5409     0.34449E-02 
  35294.8030     0.34687E-02 
  35327.0652     0.34926E-02 
  35359.3274     0.35165E-02 
  35391.5895     0.35405E-02 
  35423.8517     0.35646E-02 
  35456.1138     0.35887E-02 
  35488.3760     0.36128E-02 
  35520.6382     0.36370E-02 
  35552.9003     0.36613E-02 
  35585.1625     0.36856E-02 
  35617.4246     0.37099E-02 
  35649.6868     0.37342E-02 
  35681.9490     0.37587E-02 
  35714.2111     0.37831E-02 
  35746.4733     0.38076E-02 
  35778.7354     0.38321E-02 
  35810.9976     0.38567E-02 
  35843.2598     0.38813E-02 
  35875.5219     0.39059E-02 
  35907.7841     0.39306E-02 
  35940.0462     0.39553E-02 
  35972.3084     0.39800E-02 
  36004.5706     0.40048E-02 
  36036.8327     0.40296E-02 
  36069.0949     0.40544E-02 
  36101.3570     0.40793E-02 
  36133.6192     0.41041E-02 
  36165.8814     0.41290E-02 
  36198.1435     0.41540E-02 
  36230.4057     0.41789E-02 
  36262.6678     0.42039E-02 
  36294.9300     0.42288E-02 
  36327.1922     0.42538E-02 
  36359.4543     0.42789E-02 
  36391.7165     0.43039E-02 
  36423.9786     0.43289E-02 
  36456.2408     0.43540E-02 
  36488.5030     0.43791E-02 
  36520.7651     0.44042E-02 
  36553.0273     0.44292E-02 
  36585.2894     0.44543E-02 
  36617.5516     0.44794E-02 
  36649.8138     0.45046E-02 
  36682.0759     0.45297E-02 
  36714.3381     0.45548E-02 
  36746.6002     0.45799E-02 
  36778.8624     0.46050E-02 
  36811.1246     0.46301E-02 
  36843.3867     0.46553E-02 
  36875.6489     0.46804E-02 
  36907.9110     0.47055E-02 
  36940.1732     0.47306E-02 
  36972.4354     0.47557E-02 
  37004.6975     0.47807E-02 
  37036.9597     0.48058E-02 
  37069.2218     0.48309E-02 
  37101.4840     0.48559E-02 
  37133.7462     0.48809E-02 
  37166.0083     0.49060E-02 
  37198.2705     0.49310E-02 
  37230.5326     0.49559E-02 
  37262.7948     0.49809E-02 
  37295.0570     0.50058E-02 
  37327.3191     0.50308E-02 
  37359.5813     0.50556E-02 
  37391.8434     0.50805E-02 
  37424.1056     0.51054E-02 
  37456.3678     0.51302E-02 
  37488.6299     0.51549E-02 
  37520.8921     0.51797E-02 
  37553.1542     0.52044E-02 
  37585.4164     0.52291E-02 
  37617.6786     0.52537E-02 
  37649.9407     0.52784E-02 
  37682.2029     0.53029E-02 
  37714.4650     0.53275E-02 
  37746.7272     0.53520E-02 
  37778.9894     0.53764E-02 
  37811.2515     0.54008E-02 
  37843.5137     0.54252E-02 
  37875.7758     0.54495E-02 
  37908.0380     0.54738E-02 
  37940.3002     0.54980E-02 
  37972.5623     0.55222E-02 
  38004.8245     0.55463E-02 
  38037.0866     0.55704E-02 
  38069.3488     0.55944E-02 
  38101.6110     0.56183E-02 
  38133.8731     0.56422E-02 
  38166.1353     0.56661E-02 
  38198.3974     0.56899E-02 
  38230.6596     0.57136E-02 
  38262.9218     0.57372E-02 
  38295.1839     0.57608E-02 
  38327.4461     0.57844E-02 
  38359.7082     0.58078E-02 
  38391.9704     0.58312E-02 
  38424.2326     0.58545E-02 
  38456.4947     0.58778E-02 
  38488.7569     0.59010E-02 
  38521.0190     0.59241E-02 
  38553.2812     0.59471E-02 
  38585.5434     0.59701E-02 
  38617.8055     0.59930E-02 
  38650.0677     0.60158E-02 
  38682.3298     0.60385E-02 
  38714.5920     0.60611E-02 
  38746.8542     0.60837E-02 
  38779.1163     0.61062E-02 
  38811.3785     0.61286E-02 
  38843.6406     0.61509E-02 
  38875.9028     0.61731E-02 
  38908.1650     0.61952E-02 
  38940.4271     0.62172E-02 
  38972.6893     0.62392E-02 
  39004.9514     0.62610E-02 
  39037.2136     0.62828E-02 
  39069.4758     0.63044E-02 
  39101.7379     0.63260E-02 
  39134.0001     0.63475E-02 
  39166.2622     0.63688E-02 
  39198.5244     0.63901E-02 
  39230.7866     0.64112E-02 
  39263.0487     0.64323E-02 
  39295.3109     0.64533E-02 
  39327.5730     0.64741E-02 
  39359.8352     0.64948E-02 
  39392.0974     0.65155E-02 
  39424.3595     0.65360E-02 
  39456.6217     0.65564E-02 
  39488.8838     0.65767E-02 
  39521.1460     0.65969E-02 
  39553.4082     0.66170E-02 
  39585.6703     0.66369E-02 
  39617.9325     0.66568E-02 
  39650.1946     0.66765E-02 
  39682.4568     0.66961E-02 
  39714.7190     0.67156E-02 
  39746.9811     0.67350E-02 
  39779.2433     0.67542E-02 
  39811.5054     0.67734E-02 
  39843.7676     0.67924E-02 
  39876.0298     0.68112E-02 
  39908.2919     0.68300E-02 
  39940.5541     0.68486E-02 
  39972.8162     0.68671E-02 
  40005.0784     0.68854E-02 
  40037.3406     0.69037E-02 
  40069.6027     0.69218E-02 
  40101.8649     0.69397E-02 
  40134.1270     0.69576E-02 
  40166.3892     0.69753E-02 
  40198.6514     0.69928E-02 
  40230.9135     0.70103E-02 
  40263.1757     0.70275E-02 
  40295.4378     0.70447E-02 
  40327.7000     0.70617E-02 
  40359.9622     0.70786E-02 
  40392.2243     0.70953E-02 
  40424.4865     0.71119E-02 
  40456.7486     0.71283E-02 
  40489.0108     0.71446E-02 
  40521.2730     0.71608E-02 
  40553.5351     0.71768E-02 
  40585.7973     0.71926E-02 
  40618.0594     0.72083E-02 
  40650.3216     0.72239E-02 
  40682.5838     0.72393E-02 
  40714.8459     0.72546E-02 
  40747.1081     0.72697E-02 
  40779.3702     0.72846E-02 
  40811.6324     0.72994E-02 
  40843.8946     0.73141E-02 
  40876.1567     0.73286E-02 
  40908.4189     0.73429E-02 
  40940.6810     0.73571E-02 
  40972.9432     0.73711E-02 
  41005.2054     0.73850E-02 
  41037.4675     0.73987E-02 
  41069.7297     0.74123E-02 
  41101.9918     0.74257E-02 
  41134.2540     0.74389E-02 
  41166.5162     0.74520E-02 
  41198.7783     0.74649E-02 
  41231.0405     0.74776E-02 
  41263.3026     0.74902E-02 
  41295.5648     0.75026E-02 
  41327.8270     0.75149E-02 
  41360.0891     0.75270E-02 
  41392.3513     0.75389E-02 
  41424.6134     0.75507E-02 
  41456.8756     0.75622E-02 
  41489.1378     0.75737E-02 
  41521.3999     0.75849E-02 
  41553.6621     0.75960E-02 
  41585.9242     0.76069E-02 
  41618.1864     0.76177E-02 
  41650.4486     0.76283E-02 
  41682.7107     0.76387E-02 
  41714.9729     0.76489E-02 
  41747.2350     0.76590E-02 
  41779.4972     0.76689E-02 
  41811.7594     0.76786E-02 
  41844.0215     0.76881E-02 
  41876.2837     0.76975E-02 
  41908.5458     0.77067E-02 
  41940.8080     0.77157E-02 
  41973.0702     0.77246E-02 
  42005.3323     0.77332E-02 
  42037.5945     0.77418E-02 
  42069.8566     0.77501E-02 
  42102.1188     0.77582E-02 
  42134.3810     0.77662E-02 
  42166.6431     0.77740E-02 
  42198.9053     0.77816E-02 
  42231.1674     0.77891E-02 
  42263.4296     0.77963E-02 
  42295.6918     0.78034E-02 
  42327.9539     0.78103E-02 
  42360.2161     0.78170E-02 
  42392.4782     0.78236E-02 
  42424.7404     0.78300E-02 
  42457.0026     0.78362E-02 
  42489.2647     0.78422E-02 
  42521.5269     0.78480E-02 
  42553.7890     0.78537E-02 
  42586.0512     0.78592E-02 
  42618.3134     0.78645E-02 
  42650.5755     0.78696E-02 
  42682.8377     0.78745E-02 
  42715.0998     0.78793E-02 
  42747.3620     0.78838E-02 
  42779.6242     0.78882E-02 
  42811.8863     0.78925E-02 
  42844.1485     0.78965E-02 
  42876.4106     0.79003E-02 
  42908.6728     0.79040E-02 
  42940.9350     0.79075E-02 
  42973.1971     0.79108E-02 
  43005.4593     0.79140E-02 
  43037.7214     0.79169E-02 
  43069.9836     0.79197E-02 
  43102.2458     0.79223E-02 
  43134.5079     0.79247E-02 
  43166.7701     0.79269E-02 
  43199.0322     0.79290E-02 
  43231.2944     0.79309E-02 
  43263.5566     0.79325E-02 
  43295.8187     0.79341E-02 
  43328.0809     0.79354E-02 
  43360.3430     0.79365E-02 
  43392.6052     0.79375E-02 
  43424.8674     0.79383E-02 
  43457.1295     0.79389E-02 
  43489.3917     0.79394E-02 
  43521.6538     0.79396E-02 
  43553.9160     0.79397E-02 
  43586.1782     0.79396E-02 
  43618.4403     0.79393E-02 
  43650.7025     0.79389E-02 
  43682.9646     0.79382E-02 
  43715.2268     0.79374E-02 
  43747.4890     0.79364E-02 
  43779.7511     0.79353E-02 
  43812.0133     0.79339E-02 
  43844.2754     0.79324E-02 
  43876.5376     0.79307E-02 
  43908.7998     0.79289E-02 
  43941.0619     0.79268E-02 
  43973.3241     0.79246E-02 
  44005.5862     0.79222E-02 
  44037.8484     0.79196E-02 
  44070.1106     0.79169E-02 
  44102.3727     0.79140E-02 
  44134.6349     0.79109E-02 
  44166.8970     0.79076E-02 
  44199.1592     0.79042E-02 
  44231.4214     0.79006E-02 
  44263.6835     0.78968E-02 
  44295.9457     0.78929E-02 
  44328.2078     0.78888E-02 
  44360.4700     0.78845E-02 
  44392.7322     0.78800E-02 
  44424.9943     0.78754E-02 
  44457.2565     0.78706E-02 
  44489.5186     0.78657E-02 
  44521.7808     0.78605E-02 
  44554.0430     0.78552E-02 
  44586.3051     0.78498E-02 
  44618.5673     0.78442E-02 
  44650.8294     0.78384E-02 
  44683.0916     0.78324E-02 
  44715.3538     0.78263E-02 
  44747.6159     0.78200E-02 
  44779.8781     0.78136E-02 
  44812.1402     0.78070E-02 
  44844.4024     0.78002E-02 
  44876.6646     0.77933E-02 
  44908.9267     0.77862E-02 
  44941.1889     0.77789E-02 
  44973.4510     0.77715E-02 
  45005.7132     0.77639E-02 
  45037.9754     0.77562E-02 
  45070.2375     0.77483E-02 
  45102.4997     0.77403E-02 
  45134.7618     0.77321E-02 
  45167.0240     0.77237E-02 
  45199.2862     0.77152E-02 
  45231.5483     0.77066E-02 
  45263.8105     0.76978E-02 
  45296.0726     0.76888E-02 
  45328.3348     0.76797E-02 
  45360.5970     0.76704E-02 
  45392.8591     0.76610E-02 
  45425.1213     0.76514E-02 
  45457.3834     0.76417E-02 
  45489.6456     0.76319E-02 
  45521.9078     0.76219E-02 
  45554.1699     0.76117E-02 
  45586.4321     0.76014E-02 
  45618.6942     0.75910E-02 
  45650.9564     0.75804E-02 
  45683.2186     0.75696E-02 
  45715.4807     0.75588E-02 
  45747.7429     0.75478E-02 
  45780.0050     0.75366E-02 
  45812.2672     0.75253E-02 
  45844.5294     0.75139E-02 
  45876.7915     0.75023E-02 
  45909.0537     0.74906E-02 
  45941.3158     0.74787E-02 
  45973.5780     0.74668E-02 
  46005.8402     0.74546E-02 
  46038.1023     0.74424E-02 
  46070.3645     0.74300E-02 
  46102.6266     0.74175E-02 
  46134.8888     0.74049E-02 
  46167.1510     0.73921E-02 
  46199.4131     0.73792E-02 
  46231.6753     0.73661E-02 
  46263.9374     0.73530E-02 
  46296.1996     0.73397E-02 
  46328.4618     0.73263E-02 
  46360.7239     0.73127E-02 
  46392.9861     0.72991E-02 
  46425.2482     0.72853E-02 
  46457.5104     0.72714E-02 
  46489.7726     0.72573E-02 
  46522.0347     0.72432E-02 
  46554.2969     0.72289E-02 
  46586.5590     0.72145E-02 
  46618.8212     0.72000E-02 
  46651.0834     0.71854E-02 
  46683.3455     0.71707E-02 
  46715.6077     0.71558E-02 
  46747.8698     0.71408E-02 
  46780.1320     0.71258E-02 
  46812.3942     0.71106E-02 
  46844.6563     0.70953E-02 
  46876.9185     0.70799E-02 
  46909.1806     0.70643E-02 
  46941.4428     0.70487E-02 
  46973.7050     0.70330E-02 
  47005.9671     0.70171E-02 
  47038.2293     0.70012E-02 
  47070.4914     0.69852E-02 
  47102.7536     0.69690E-02 
  47135.0158     0.69527E-02 
  47167.2779     0.69364E-02 
  47199.5401     0.69199E-02 
  47231.8022     0.69034E-02 
  47264.0644     0.68867E-02 
  47296.3266     0.68700E-02 
  47328.5887     0.68531E-02 
  47360.8509     0.68362E-02 
  47393.1130     0.68192E-02 
  47425.3752     0.68020E-02 
  47457.6374     0.67848E-02 
  47489.8995     0.67675E-02 
  47522.1617     0.67501E-02 
  47554.4238     0.67326E-02 
  47586.6860     0.67151E-02 
  47618.9482     0.66974E-02 
  47651.2103     0.66796E-02 
  47683.4725     0.66618E-02 
  47715.7346     0.66439E-02 
  47747.9968     0.66259E-02 
  47780.2590     0.66078E-02 
  47812.5211     0.65896E-02 
  47844.7833     0.65714E-02 
  47877.0454     0.65531E-02 
  47909.3076     0.65347E-02 
  47941.5698     0.65162E-02 
  47973.8319     0.64976E-02 
  48006.0941     0.64790E-02 
  48038.3562     0.64603E-02 
  48070.6184     0.64415E-02 
  48102.8806     0.64227E-02 
  48135.1427     0.64038E-02 
  48167.4049     0.63848E-02 
  48199.6670     0.63657E-02 
  48231.9292     0.63466E-02 
  48264.1914     0.63274E-02 
  48296.4535     0.63082E-02 
  48328.7157     0.62889E-02 
  48360.9778     0.62695E-02 
  48393.2400     0.62500E-02 
  48425.5022     0.62305E-02 
  48457.7643     0.62109E-02 
  48490.0265     0.61913E-02 
  48522.2886     0.61716E-02 
  48554.5508     0.61519E-02 
  48586.8130     0.61321E-02 
  48619.0751     0.61122E-02 
  48651.3373     0.60923E-02 
  48683.5994     0.60723E-02 
  48715.8616     0.60523E-02 
  48748.1238     0.60322E-02 
  48780.3859     0.60121E-02 
  48812.6481     0.59920E-02 
  48844.9102     0.59717E-02 
  48877.1724     0.59515E-02 
  48909.4346     0.59311E-02 
  48941.6967     0.59108E-02 
  48973.9589     0.58904E-02 
  49006.2210     0.58699E-02 
  49038.4832     0.58494E-02 
  49070.7454     0.58289E-02 
  49103.0075     0.58083E-02 
  49135.2697     0.57877E-02 
  49167.5318     0.57670E-02 
  49199.7940     0.57464E-02 
  49232.0562     0.57256E-02 
  49264.3183     0.57049E-02 
  49296.5805     0.56840E-02 
  49328.8426     0.56632E-02 
  49361.1048     0.56423E-02 
  49393.3670     0.56214E-02 
  49425.6291     0.56005E-02 
  49457.8913     0.55795E-02 
  49490.1534     0.55585E-02 
  49522.4156     0.55375E-02 
  49554.6778     0.55164E-02 
  49586.9399     0.54954E-02 
  49619.2021     0.54743E-02 
  49651.4642     0.54531E-02 
  49683.7264     0.54320E-02 
  49715.9886     0.54108E-02 
  49748.2507     0.53896E-02 
  49780.5129     0.53683E-02 
  49812.7750     0.53471E-02 
  49845.0372     0.53258E-02 
  49877.2994     0.53045E-02 
  49909.5615     0.52832E-02 
  49941.8237     0.52619E-02 
  49974.0858     0.52406E-02 
  50006.3480     0.52192E-02 
  50038.6102     0.51979E-02 
  50070.8723     0.51765E-02 
  50103.1345     0.51551E-02 
  50135.3966     0.51337E-02 
  50167.6588     0.51123E-02 
  50199.9210     0.50908E-02 
  50232.1831     0.50694E-02 
  50264.4453     0.50479E-02 
  50296.7074     0.50265E-02 
  50328.9696     0.50050E-02 
  50361.2318     0.49835E-02 
  50393.4939     0.49621E-02 
  50425.7561     0.49406E-02 
  50458.0182     0.49191E-02 
  50490.2804     0.48976E-02 
  50522.5426     0.48761E-02 
  50554.8047     0.48546E-02 
  50587.0669     0.48331E-02 
  50619.3290     0.48116E-02 
  50651.5912     0.47901E-02 
  50683.8534     0.47686E-02 
  50716.1155     0.47472E-02 
  50748.3777     0.47257E-02 
  50780.6398     0.47042E-02 
  50812.9020     0.46827E-02 
  50845.1642     0.46612E-02 
  50877.4263     0.46398E-02 
  50909.6885     0.46183E-02 
  50941.9506     0.45969E-02 
  50974.2128     0.45754E-02 
  51006.4750     0.45540E-02 
  51038.7371     0.45325E-02 
  51070.9993     0.45111E-02 
  51103.2614     0.44897E-02 
  51135.5236     0.44683E-02 
  51167.7858     0.44470E-02 
  51200.0479     0.44256E-02 
  51232.3101     0.44042E-02 
  51264.5722     0.43829E-02 
  51296.8344     0.43616E-02 
  51329.0966     0.43403E-02 
  51361.3587     0.43190E-02 
  51393.6209     0.42977E-02 
  51425.8830     0.42764E-02 
  51458.1452     0.42552E-02 
  51490.4074     0.42340E-02 
  51522.6695     0.42128E-02 
  51554.9317     0.41916E-02 
  51587.1938     0.41704E-02 
  51619.4560     0.41493E-02 
  51651.7182     0.41282E-02 
  51683.9803     0.41071E-02 
  51716.2425     0.40860E-02 
  51748.5046     0.40650E-02 
  51780.7668     0.40440E-02 
  51813.0290     0.40230E-02 
  51845.2911     0.40020E-02 
  51877.5533     0.39810E-02 
  51909.8154     0.39601E-02 
  51942.0776     0.39392E-02 
  51974.3398     0.39184E-02 
  52006.6019     0.38975E-02 
  52038.8641     0.38767E-02 
  52071.1262     0.38560E-02 
  52103.3884     0.38352E-02 
  52135.6506     0.38145E-02 
  52167.9127     0.37938E-02 
  52200.1749     0.37732E-02 
  52232.4370     0.37526E-02 
  52264.6992     0.37320E-02 
  52296.9614     0.37115E-02 
  52329.2235     0.36909E-02 
  52361.4857     0.36705E-02 
  52393.7478     0.36500E-02 
  52426.0100     0.36296E-02 
  52458.2722     0.36092E-02 
  52490.5343     0.35889E-02 
  52522.7965     0.35686E-02 
  52555.0586     0.35483E-02 
  52587.3208     0.35281E-02 
  52619.5830     0.35079E-02 
  52651.8451     0.34878E-02 
  52684.1073     0.34677E-02 
  52716.3694     0.34476E-02 
  52748.6316     0.34276E-02 
  52780.8938     0.34076E-02 
  52813.1559     0.33876E-02 
  52845.4181     0.33677E-02 
  52877.6802     0.33479E-02 
  52909.9424     0.33281E-02 
  52942.2046     0.33083E-02 
  52974.4667     0.32885E-02 
  53006.7289     0.32688E-02 
  53038.9910     0.32492E-02 
  53071.2532     0.32296E-02 
  53103.5154     0.32100E-02 
  53135.7775     0.31905E-02 
  53168.0397     0.31711E-02 
  53200.3018     0.31516E-02 
  53232.5640     0.31323E-02 
  53264.8262     0.31129E-02 
  53297.0883     0.30937E-02 
  53329.3505     0.30744E-02 
  53361.6126     0.30552E-02 
  53393.8748     0.30361E-02 
  53426.1370     0.30170E-02 
  53458.3991     0.29980E-02 
  53490.6613     0.29790E-02 
  53522.9234     0.29600E-02 
  53555.1856     0.29411E-02 
  53587.4478     0.29223E-02 
  53619.7099     0.29035E-02 
  53651.9721     0.28848E-02 
  53684.2342     0.28661E-02 
  53716.4964     0.28474E-02 
  53748.7586     0.28288E-02 
  53781.0207     0.28103E-02 
  53813.2829     0.27918E-02 
  53845.5450     0.27734E-02 
  53877.8072     0.27550E-02 
  53910.0694     0.27367E-02 
  53942.3315     0.27184E-02 
  53974.5937     0.27002E-02 
  54006.8558     0.26820E-02 
  54039.1180     0.26639E-02 
  54071.3802     0.26459E-02 
  54103.6423     0.26278E-02 
  54135.9045     0.26099E-02 
  54168.1666     0.25920E-02 
  54200.4288     0.25742E-02 
  54232.6910     0.25564E-02 
  54264.9531     0.25387E-02 
  54297.2153     0.25210E-02 
  54329.4774     0.25034E-02 
  54361.7396     0.24858E-02 
  54394.0018     0.24683E-02 
  54426.2639     0.24509E-02 
  54458.5261     0.24335E-02 
  54490.7882     0.24161E-02 
  54523.0504     0.23989E-02 
  54555.3126     0.23816E-02 
  54587.5747     0.23645E-02 
  54619.8369     0.23474E-02 
  54652.0990     0.23303E-02 
  54684.3612     0.23133E-02 
  54716.6234     0.22964E-02 
  54748.8855     0.22795E-02 
  54781.1477     0.22627E-02 
  54813.4098     0.22460E-02 
  54845.6720     0.22293E-02 
  54877.9342     0.22126E-02 
  54910.1963     0.21961E-02 
  54942.4585     0.21796E-02 
  54974.7206     0.21631E-02 
  55006.9828     0.21467E-02 
  55039.2450     0.21304E-02 
  55071.5071     0.21141E-02 
  55103.7693     0.20979E-02 
  55136.0314     0.20817E-02 
  55168.2936     0.20656E-02 
  55200.5558     0.20496E-02 
  55232.8179     0.20336E-02 
  55265.0801     0.20177E-02 
  55297.3422     0.20018E-02 
  55329.6044     0.19860E-02 
  55361.8666     0.19703E-02 
  55394.1287     0.19546E-02 
  55426.3909     0.19390E-02 
  55458.6530     0.19235E-02 
  55490.9152     0.19080E-02 
  55523.1774     0.18926E-02 
  55555.4395     0.18772E-02 
  55587.7017     0.18619E-02 
  55619.9638     0.18466E-02 
  55652.2260     0.18315E-02 
  55684.4882     0.18163E-02 
  55716.7503     0.18013E-02 
  55749.0125     0.17863E-02 
  55781.2746     0.17714E-02 
  55813.5368     0.17565E-02 
  55845.7990     0.17417E-02 
  55878.0611     0.17269E-02 
  55910.3233     0.17122E-02 
  55942.5854     0.16976E-02 
  55974.8476     0.16831E-02 
  56007.1098     0.16686E-02 
  56039.3719     0.16541E-02 
  56071.6341     0.16398E-02 
  56103.8962     0.16254E-02 
  56136.1584     0.16112E-02 
  56168.4206     0.15970E-02 
  56200.6827     0.15829E-02 
  56232.9449     0.15688E-02 
  56265.2070     0.15548E-02 
  56297.4692     0.15409E-02 
  56329.7314     0.15270E-02 
  56361.9935     0.15132E-02 
  56394.2557     0.14995E-02 
  56426.5178     0.14858E-02 
  56458.7800     0.14722E-02 
  56491.0422     0.14586E-02 
  56523.3043     0.14451E-02 
  56555.5665     0.14317E-02 
  56587.8286     0.14183E-02 
  56620.0908     0.14050E-02 
  56652.3530     0.13918E-02 
  56684.6151     0.13786E-02 
  56716.8773     0.13655E-02 
  56749.1394     0.13524E-02 
  56781.4016     0.13394E-02 
  56813.6638     0.13265E-02 
  56845.9259     0.13136E-02 
  56878.1881     0.13008E-02 
  56910.4502     0.12881E-02 
  56942.7124     0.12754E-02 
  56974.9746     0.12628E-02 
  57007.2367     0.12503E-02 
  57039.4989     0.12378E-02 
  57071.7610     0.12253E-02 
  57104.0232     0.12130E-02 
  57136.2854     0.12007E-02 
  57168.5475     0.11885E-02 
  57200.8097     0.11763E-02 
  57233.0718     0.11642E-02 
  57265.3340     0.11521E-02 
  57297.5962     0.11401E-02 
  57329.8583     0.11282E-02 
  57362.1205     0.11164E-02 
  57394.3826     0.11046E-02 
  57426.6448     0.10929E-02 
  57458.9070     0.10812E-02 
  57491.1691     0.10696E-02 
  57523.4313     0.10580E-02 
  57555.6934     0.10466E-02 
  57587.9556     0.10352E-02 
  57620.2178     0.10238E-02 
  57652.4799     0.10125E-02 
  57684.7421     0.10013E-02 
  57717.0042     0.99013E-03 
  57749.2664     0.97903E-03 
  57781.5286     0.96799E-03 
  57813.7907     0.95702E-03 
  57846.0529     0.94611E-03 
  57878.3150     0.93527E-03 
  57910.5772     0.92448E-03 
  57942.8394     0.91377E-03 
  57975.1015     0.90311E-03 
  58007.3637     0.89252E-03 
  58039.6258     0.88199E-03 
  58071.8880     0.87152E-03 
  58104.1502     0.86112E-03 
  58136.4123     0.85078E-03 
  58168.6745     0.84050E-03 
  58200.9366     0.83029E-03 
  58233.1988     0.82014E-03 
  58265.4610     0.81005E-03 
  58297.7231     0.80003E-03 
  58329.9853     0.79007E-03 
  58362.2474     0.78018E-03 
  58394.5096     0.77034E-03 
  58426.7718     0.76058E-03 
  58459.0339     0.75087E-03 
  58491.2961     0.74123E-03 
  58523.5582     0.73165E-03 
  58555.8204     0.72214E-03 
  58588.0826     0.71269E-03 
  58620.3447     0.70330E-03 
  58652.6069     0.69398E-03 
  58684.8690     0.68472E-03 
  58717.1312     0.67553E-03 
  58749.3934     0.66640E-03 
  58781.6555     0.65734E-03 
  58813.9177     0.64833E-03 
  58846.1798     0.63940E-03 
  58878.4420     0.63053E-03 
  58910.7042     0.62172E-03 
  58942.9663     0.61298E-03 
  58975.2285     0.60430E-03 
  59007.4906     0.59568E-03 
  59039.7528     0.58714E-03 
  59072.0150     0.57865E-03 
  59104.2771     0.57024E-03 
  59136.5393     0.56188E-03 
  59168.8014     0.55360E-03 
  59201.0636     0.54537E-03 
  59233.3258     0.53722E-03 
  59265.5879     0.52913E-03 
  59297.8501     0.52110E-03 
  59330.1122     0.51315E-03 
  59362.3744     0.50525E-03 
  59394.6366     0.49743E-03 
  59426.8987     0.48967E-03 
  59459.1609     0.48198E-03 
  59491.4230     0.47436E-03 
  59523.6852     0.46680E-03 
  59555.9474     0.45931E-03 
  59588.2095     0.45188E-03 
  59620.4717     0.44453E-03 
  59652.7338     0.43724E-03 
  59684.9960     0.43002E-03 
  59717.2582     0.42287E-03 
  59749.5203     0.41579E-03 
  59781.7825     0.40878E-03 
  59814.0446     0.40184E-03 
  59846.3068     0.39496E-03 
  59878.5690     0.38816E-03 
  59910.8311     0.38142E-03 
  59943.0933     0.37476E-03 
  59975.3554     0.36816E-03 
  60007.6176     0.36164E-03 
  60039.8798     0.35519E-03 
  60072.1419     0.34880E-03 
  60104.4041     0.34249E-03 
  60136.6662     0.33626E-03 
  60168.9284     0.33009E-03 
  60201.1906     0.32400E-03 
  60233.4527     0.31798E-03 
  60265.7149     0.31203E-03 
  60297.9770     0.30616E-03 
  60330.2392     0.30036E-03 
  60362.5014     0.29464E-03 
  60394.7635     0.28899E-03 
  60427.0257     0.28341E-03 
  60459.2878     0.27792E-03 
  60491.5500     0.27249E-03 
  60523.8122     0.26715E-03 
  60556.0743     0.26188E-03 
  60588.3365     0.25669E-03 
  60620.5986     0.25158E-03 
  60652.8608     0.24654E-03 
  60685.1230     0.24159E-03 
  60717.3851     0.23671E-03 
  60749.6473     0.23191E-03 
  60781.9094     0.22720E-03 
  60814.1716     0.22256E-03 
  60846.4338     0.21801E-03 
  60878.6959     0.21354E-03 
  60910.9581     0.20915E-03 
  60943.2202     0.20485E-03 
  60975.4824     0.20063E-03 
  61007.7446     0.19649E-03 
  61040.0067     0.19244E-03 
  61072.2689     0.18847E-03 
  61104.5310     0.18460E-03 
  61136.7932     0.18081E-03 
  61169.0554     0.17710E-03 
  61201.3175     0.17349E-03 
  61233.5797     0.16996E-03 
  61265.8418     0.16653E-03 
  61298.1040     0.16318E-03 
  61330.3662     0.15993E-03 
  61362.6283     0.15677E-03 
  61394.8905     0.15370E-03 
  61427.1526     0.15073E-03 
  61459.4148     0.14785E-03 
  61491.6770     0.14507E-03 
  61523.9391     0.14238E-03 
  61556.2013     0.13979E-03 
  61588.4634     0.13730E-03 
  61620.7256     0.13491E-03 
  61652.9878     0.13262E-03 
  61685.2499     0.13043E-03 
  61717.5121     0.12834E-03 
  61749.7742     0.12636E-03 
  61782.0364     0.12447E-03 
  61814.2986     0.12270E-03 
  61846.5607     0.12103E-03 
  61878.8229     0.11947E-03 
  61911.0850     0.11801E-03 
  61943.3472     0.11667E-03 
  61975.6094     0.11543E-03 
  62007.8715     0.11431E-03 
  62040.1337     0.11330E-03 
  62072.3958     0.11241E-03 
  62104.6580     0.11162E-03 
  62136.9202     0.11096E-03 
  62169.1823     0.11041E-03 
  62201.4445     0.10999E-03 
  62233.7066     0.10968E-03 
  62265.9688     0.10949E-03 
  62298.2310     0.10943E-03 
  62330.4931     0.10949E-03 
  62362.7553     0.10968E-03 
  62395.0174     0.11000E-03 
  62427.2796     0.11044E-03 
  62459.5418     0.11101E-03 
  62491.8039     0.11172E-03 
  62524.0661     0.11255E-03 
  62556.3282     0.11353E-03 
  62588.5904     0.11463E-03 
  62620.8526     0.11588E-03 
  62653.1147     0.11726E-03 
  62685.3769     0.11879E-03 
  62717.6390     0.12046E-03 
  62749.9012     0.12227E-03 
  62782.1634     0.12423E-03 
  62814.4255     0.12633E-03 
  62846.6877     0.12859E-03 
  62878.9498     0.13099E-03 
  62911.2120     0.13355E-03 
  62943.4742     0.13627E-03 
  62975.7363     0.13914E-03 
  63007.9985     0.14217E-03 
  63040.2606     0.14536E-03 
  63072.5228     0.14871E-03 
  63104.7850     0.15223E-03 
  63137.0471     0.15591E-03 
  63169.3093     0.15976E-03 
  63201.5714     0.16379E-03 
  63233.8336     0.16798E-03 
  63266.0958     0.17235E-03 
  63298.3579     0.17690E-03 
  63330.6201     0.18163E-03 
  63362.8822     0.18654E-03 
  63395.1444     0.19163E-03 
  63427.4066     0.19691E-03 
  63459.6687     0.20237E-03 
  63491.9309     0.20803E-03 
  63524.1930     0.21388E-03 
  63556.4552     0.21993E-03 
  63588.7174     0.22617E-03 
  63620.9795     0.23261E-03 
  63653.2417     0.23926E-03 
  63685.5038     0.24612E-03 
  63717.7660     0.25318E-03 
  63750.0282     0.26045E-03 
  63782.2903     0.26794E-03 
  63814.5525     0.27564E-03 
  63846.8146     0.28356E-03 
  63879.0768     0.29170E-03 
  63911.3390     0.30007E-03 
  63943.6011     0.30866E-03 
  63975.8633     0.31749E-03 
  64008.1254     0.32655E-03 
  64040.3876     0.33584E-03 
  64072.6498     0.34538E-03 
  64104.9119     0.35515E-03 
  64137.1741     0.36517E-03 
  64169.4362     0.37544E-03 
  64201.6984     0.38596E-03 
  64233.9606     0.39674E-03 
  64266.2227     0.40777E-03 
  64298.4849     0.41906E-03 
  64330.7470     0.43062E-03 
  64363.0092     0.44245E-03 
  64395.2714     0.45455E-03 
  64427.5335     0.46692E-03 
  64459.7957     0.47957E-03 
  64492.0578     0.49250E-03 
  64524.3200     0.50572E-03 
  64556.5822     0.51922E-03 
  64588.8443     0.53302E-03 
  64621.1065     0.54711E-03 
  64653.3686     0.56151E-03 
  64685.6308     0.57620E-03 
  64717.8930     0.59121E-03 
  64750.1551     0.60652E-03 
  64782.4173     0.62215E-03 
  64814.6794     0.63810E-03 
  64846.9416     0.65437E-03 
  64879.2038     0.67096E-03 
  64911.4659     0.68789E-03 
  64943.7281     0.70515E-03 
  64975.9902     0.72275E-03 
  65008.2524     0.74070E-03 
  65040.5146     0.75899E-03 
  65072.7767     0.77763E-03 
  65105.0389     0.79663E-03 
  65137.3010     0.81599E-03 
  65169.5632     0.83571E-03 
  65201.8254     0.85580E-03 
  65234.0875     0.87627E-03 
  65266.3497     0.89711E-03 
  65298.6118     0.91833E-03 
  65330.8740     0.93995E-03 
  65363.1362     0.96195E-03 
  65395.3983     0.98435E-03 
  65427.6605     0.10071E-02 
  65459.9226     0.10304E-02 
  65492.1848     0.10540E-02 
  65524.4470     0.10780E-02 
  65556.7091     0.11025E-02 
  65588.9713     0.11273E-02 
  65621.2334     0.11526E-02 
  65653.4956     0.11784E-02 
  65685.7578     0.12046E-02 
  65718.0199     0.12312E-02 
  65750.2821     0.12583E-02 
  65782.5442     0.12858E-02 
  65814.8064     0.13138E-02 
  65847.0686     0.13423E-02 
  65879.3307     0.13712E-02 
  65911.5929     0.14006E-02 
  65943.8550     0.14305E-02 
  65976.1172     0.14609E-02 
  66008.3794     0.14918E-02 
  66040.6415     0.15231E-02 
  66072.9037     0.15550E-02 
  66105.1658     0.15874E-02 
  66137.4280     0.16203E-02 
  66169.6902     0.16537E-02 
  66201.9523     0.16877E-02 
  66234.2145     0.17222E-02 
  66266.4766     0.17572E-02 
  66298.7388     0.17928E-02 
  66331.0010     0.18289E-02 
  66363.2631     0.18656E-02 
  66395.5253     0.19028E-02 
  66427.7874     0.19406E-02 
  66460.0496     0.19790E-02 
  66492.3118     0.20180E-02 
  66524.5739     0.20576E-02 
  66556.8361     0.20977E-02 
  66589.0982     0.21385E-02 
  66621.3604     0.21798E-02 
  66653.6226     0.22218E-02 
  66685.8847     0.22644E-02 
  66718.1469     0.23076E-02 
  66750.4090     0.23514E-02 
  66782.6712     0.23959E-02 
  66814.9334     0.24410E-02 
  66847.1955     0.24868E-02 
  66879.4577     0.25332E-02 
  66911.7198     0.25804E-02 
  66943.9820     0.26281E-02 
  66976.2442     0.26766E-02 
  67008.5063     0.27257E-02 
  67040.7685     0.27755E-02 
  67073.0306     0.28261E-02 
  67105.2928     0.28773E-02 
  67137.5550     0.29293E-02 
  67169.8171     0.29819E-02 
  67202.0793     0.30353E-02 
  67234.3414     0.30894E-02 
  67266.6036     0.31443E-02 
  67298.8658     0.31999E-02 
  67331.1279     0.32563E-02 
  67363.3901     0.33134E-02 
  67395.6522     0.33713E-02 
  67427.9144     0.34300E-02 
  67460.1766     0.34894E-02 
  67492.4387     0.35497E-02 
  67524.7009     0.36107E-02 
  67556.9630     0.36726E-02 
  67589.2252     0.37353E-02 
  67621.4874     0.37987E-02 
  67653.7495     0.38631E-02 
  67686.0117     0.39282E-02 
  67718.2738     0.39942E-02 
  67750.5360     0.40610E-02 
  67782.7982     0.41287E-02 
  67815.0603     0.41973E-02 
  67847.3225     0.42667E-02 
  67879.5846     0.43370E-02 
  67911.8468     0.44082E-02 
  67944.1090     0.44803E-02 
  67976.3711     0.45533E-02 
  68008.6333     0.46272E-02 
  68040.8954     0.47021E-02 
  68073.1576     0.47778E-02 
  68105.4198     0.48545E-02 
  68137.6819     0.49321E-02 
  68169.9441     0.50107E-02 
  68202.2062     0.50902E-02 
  68234.4684     0.51707E-02 
  68266.7306     0.52522E-02 
  68298.9927     0.53346E-02 
  68331.2549     0.54180E-02 
  68363.5170     0.55025E-02 
  68395.7792     0.55879E-02 
  68428.0414     0.56743E-02 
  68460.3035     0.57618E-02 
  68492.5657     0.58503E-02 
  68524.8278     0.59398E-02 
  68557.0900     0.60303E-02 
  68589.3522     0.61219E-02 
  68621.6143     0.62146E-02 
  68653.8765     0.63083E-02 
  68686.1386     0.64031E-02 
  68718.4008     0.64990E-02 
  68750.6630     0.65960E-02 
  68782.9251     0.66940E-02 
  68815.1873     0.67932E-02 
  68847.4494     0.68935E-02 
  68879.7116     0.69949E-02 
  68911.9738     0.70974E-02 
  68944.2359     0.72011E-02 
  68976.4981     0.73059E-02 
  69008.7602     0.74118E-02 
  69041.0224     0.75189E-02 
  69073.2846     0.76272E-02 
  69105.5467     0.77367E-02 
  69137.8089     0.78473E-02 
  69170.0710     0.79591E-02 
  69202.3332     0.80721E-02 
  69234.5954     0.81864E-02 
  69266.8575     0.83018E-02 
  69299.1197     0.84184E-02 
  69331.3818     0.85363E-02 
  69363.6440     0.86554E-02 
  69395.9062     0.87758E-02 
  69428.1683     0.88974E-02 
  69460.4305     0.90202E-02 
  69492.6926     0.91443E-02 
  69524.9548     0.92697E-02 
  69557.2170     0.93964E-02 
  69589.4791     0.95243E-02 
  69621.7413     0.96536E-02 
  69654.0034     0.97841E-02 
  69686.2656     0.99160E-02 
  69718.5278     0.10049E-01 
  69750.7899     0.10184E-01 
  69783.0521     0.10319E-01 
  69815.3142     0.10457E-01 
  69847.5764     0.10595E-01 
  69879.8386     0.10735E-01 
  69912.1007     0.10876E-01 
  69944.3629     0.11019E-01 
  69976.6250     0.11163E-01 
  70008.8872     0.11308E-01 
  70041.1494     0.11455E-01 
  70073.4115     0.11603E-01 
  70105.6737     0.11752E-01 
  70137.9358     0.11903E-01 
  70170.1980     0.12055E-01 
  70202.4602     0.12209E-01 
  70234.7223     0.12364E-01 
  70266.9845     0.12521E-01 
  70299.2466     0.12679E-01 
  70331.5088     0.12838E-01 
  70363.7710     0.12999E-01 
  70396.0331     0.13161E-01 
  70428.2953     0.13325E-01 
  70460.5574     0.13490E-01 
  70492.8196     0.13657E-01 
  70525.0818     0.13825E-01 
  70557.3439     0.13995E-01 
  70589.6061     0.14166E-01 
  70621.8682     0.14339E-01 
  70654.1304     0.14513E-01 
  70686.3926     0.14688E-01 
  70718.6547     0.14865E-01 
  70750.9169     0.15044E-01 
  70783.1790     0.15224E-01 
  70815.4412     0.15406E-01 
  70847.7034     0.15589E-01 
  70879.9655     0.15774E-01 
  70912.2277     0.15960E-01 
  70944.4898     0.16148E-01 
  70976.7520     0.16337E-01 
  71009.0142     0.16528E-01 
  71041.2763     0.16721E-01 
  71073.5385     0.16915E-01 
  71105.8006     0.17110E-01 
  71138.0628     0.17308E-01 
  71170.3250     0.17506E-01 
  71202.5871     0.17707E-01 
  71234.8493     0.17908E-01 
  71267.1114     0.18112E-01 
  71299.3736     0.18317E-01 
  71331.6358     0.18524E-01 
  71363.8979     0.18732E-01 
  71396.1601     0.18942E-01 
  71428.4222     0.19153E-01 
  71460.6844     0.19366E-01 
  71492.9466     0.19581E-01 
  71525.2087     0.19797E-01 
  71557.4709     0.20015E-01 
  71589.7330     0.20234E-01 
  71621.9952     0.20455E-01 
  71654.2574     0.20678E-01 
  71686.5195     0.20902E-01 
  71718.7817     0.21128E-01 
  71751.0438     0.21355E-01 
  71783.3060     0.21584E-01 
  71815.5682     0.21815E-01 
  71847.8303     0.22047E-01 
  71880.0925     0.22281E-01 
  71912.3546     0.22517E-01 
  71944.6168     0.22754E-01 
  71976.8790     0.22993E-01 
  72009.1411     0.23234E-01 
  72041.4033     0.23476E-01 
  72073.6654     0.23719E-01 
  72105.9276     0.23965E-01 
  72138.1898     0.24212E-01 
  72170.4519     0.24460E-01 
  72202.7141     0.24711E-01 
  72234.9762     0.24962E-01 
  72267.2384     0.25216E-01 
  72299.5006     0.25471E-01 
  72331.7627     0.25728E-01 
  72364.0249     0.25986E-01 
  72396.2870     0.26246E-01 
  72428.5492     0.26508E-01 
  72460.8114     0.26771E-01 
  72493.0735     0.27036E-01 
  72525.3357     0.27302E-01 
  72557.5978     0.27571E-01 
  72589.8600     0.27840E-01 
