  32262.1600     0.88024E+01 
  32294.4222     0.88774E+01 
  32326.6843     0.89528E+01 
  32358.9465     0.90285E+01 
  32391.2086     0.91047E+01 
  32423.4708     0.91813E+01 
  32455.7330     0.92582E+01 
  32487.9951     0.93356E+01 
  32520.2573     0.94133E+01 
  32552.5194     0.94915E+01 
  32584.7816     0.95701E+01 
  32617.0438     0.96490E+01 
  32649.3059     0.97284E+01 
  32681.5681     0.98081E+01 
  32713.8302     0.98883E+01 
  32746.0924     0.99688E+01 
  32778.3546     0.10050E+02 
  32810.6167     0.10131E+02 
  32842.8789     0.10213E+02 
  32875.1410     0.10295E+02 
  32907.4032     0.10377E+02 
  32939.6654     0.10460E+02 
  32971.9275     0.10544E+02 
  33004.1897     0.10627E+02 
  33036.4518     0.10711E+02 
  33068.7140     0.10796E+02 
  33100.9762     0.10881E+02 
  33133.2383     0.10966E+02 
  33165.5005     0.11051E+02 
  33197.7626     0.11137E+02 
  33230.0248     0.11224E+02 
  33262.2870     0.11311E+02 
  33294.5491     0.11398E+02 
  33326.8113     0.11485E+02 
  33359.0734     0.11573E+02 
  33391.3356     0.11662E+02 
  33423.5978     0.11750E+02 
  33455.8599     0.11839E+02 
  33488.1221     0.11929E+02 
  33520.3842     0.12018E+02 
  33552.6464     0.12109E+02 
  33584.9086     0.12199E+02 
  33617.1707     0.12290E+02 
  33649.4329     0.12381E+02 
  33681.6950     0.12473E+02 
  33713.9572     0.12565E+02 
  33746.2194     0.12657E+02 
  33778.4815     0.12750E+02 
  33810.7437     0.12843E+02 
  33843.0058     0.12937E+02 
  33875.2680     0.13030E+02 
  33907.5302     0.13124E+02 
  33939.7923     0.13219E+02 
  33972.0545     0.13314E+02 
  34004.3166     0.13409E+02 
  34036.5788     0.13505E+02 
  34068.8410     0.13601E+02 
  34101.1031     0.13697E+02 
  34133.3653     0.13793E+02 
  34165.6274     0.13890E+02 
  34197.8896     0.13988E+02 
  34230.1518     0.14085E+02 
  34262.4139     0.14183E+02 
  34294.6761     0.14281E+02 
  34326.9382     0.14380E+02 
  34359.2004     0.14479E+02 
  34391.4626     0.14578E+02 
  34423.7247     0.14678E+02 
  34455.9869     0.14778E+02 
  34488.2490     0.14878E+02 
  34520.5112     0.14979E+02 
  34552.7734     0.15080E+02 
  34585.0355     0.15181E+02 
  34617.2977     0.15282E+02 
  34649.5598     0.15384E+02 
  34681.8220     0.15486E+02 
  34714.0842     0.15589E+02 
  34746.3463     0.15691E+02 
  34778.6085     0.15794E+02 
  34810.8706     0.15898E+02 
  34843.1328     0.16001E+02 
  34875.3950     0.16105E+02 
  34907.6571     0.16210E+02 
  34939.9193     0.16314E+02 
  34972.1814     0.16419E+02 
  35004.4436     0.16524E+02 
  35036.7058     0.16629E+02 
  35068.9679     0.16735E+02 
  35101.2301     0.16841E+02 
  35133.4922     0.16947E+02 
  35165.7544     0.17053E+02 
  35198.0166     0.17160E+02 
  35230.2787     0.17267E+02 
  35262.5409     0.17374E+02 
  35294.8030     0.17482E+02 
  35327.0652     0.17589E+02 
  35359.3274     0.17697E+02 
  35391.5895     0.17806E+02 
  35423.8517     0.17914E+02 
  35456.1138     0.18023E+02 
  35488.3760     0.18132E+02 
  35520.6382     0.18241E+02 
  35552.9003     0.18350E+02 
  35585.1625     0.18460E+02 
  35617.4246     0.18570E+02 
  35649.6868     0.18680E+02 
  35681.9490     0.18790E+02 
  35714.2111     0.18901E+02 
  35746.4733     0.19012E+02 
  35778.7354     0.19123E+02 
  35810.9976     0.19234E+02 
  35843.2598     0.19345E+02 
  35875.5219     0.19457E+02 
  35907.7841     0.19569E+02 
  35940.0462     0.19681E+02 
  35972.3084     0.19793E+02 
  36004.5706     0.19905E+02 
  36036.8327     0.20018E+02 
  36069.0949     0.20130E+02 
  36101.3570     0.20243E+02 
  36133.6192     0.20356E+02 
  36165.8814     0.20470E+02 
  36198.1435     0.20583E+02 
  36230.4057     0.20696E+02 
  36262.6678     0.20810E+02 
  36294.9300     0.20924E+02 
  36327.1922     0.21038E+02 
  36359.4543     0.21152E+02 
  36391.7165     0.21266E+02 
  36423.9786     0.21381E+02 
  36456.2408     0.21495E+02 
  36488.5030     0.21610E+02 
  36520.7651     0.21725E+02 
  36553.0273     0.21840E+02 
  36585.2894     0.21955E+02 
  36617.5516     0.22070E+02 
  36649.8138     0.22185E+02 
  36682.0759     0.22301E+02 
  36714.3381     0.22416E+02 
  36746.6002     0.22532E+02 
  36778.8624     0.22648E+02 
  36811.1246     0.22763E+02 
  36843.3867     0.22879E+02 
  36875.6489     0.22995E+02 
  36907.9110     0.23111E+02 
  36940.1732     0.23227E+02 
  36972.4354     0.23343E+02 
  37004.6975     0.23460E+02 
  37036.9597     0.23576E+02 
  37069.2218     0.23692E+02 
  37101.4840     0.23809E+02 
  37133.7462     0.23925E+02 
  37166.0083     0.24042E+02 
  37198.2705     0.24158E+02 
  37230.5326     0.24275E+02 
  37262.7948     0.24391E+02 
  37295.0570     0.24508E+02 
  37327.3191     0.24625E+02 
  37359.5813     0.24741E+02 
  37391.8434     0.24858E+02 
  37424.1056     0.24975E+02 
  37456.3678     0.25091E+02 
  37488.6299     0.25208E+02 
  37520.8921     0.25325E+02 
  37553.1542     0.25441E+02 
  37585.4164     0.25558E+02 
  37617.6786     0.25675E+02 
  37649.9407     0.25791E+02 
  37682.2029     0.25908E+02 
  37714.4650     0.26024E+02 
  37746.7272     0.26141E+02 
  37778.9894     0.26257E+02 
  37811.2515     0.26374E+02 
  37843.5137     0.26490E+02 
  37875.7758     0.26606E+02 
  37908.0380     0.26723E+02 
  37940.3002     0.26839E+02 
  37972.5623     0.26955E+02 
  38004.8245     0.27071E+02 
  38037.0866     0.27187E+02 
  38069.3488     0.27303E+02 
  38101.6110     0.27419E+02 
  38133.8731     0.27535E+02 
  38166.1353     0.27650E+02 
  38198.3974     0.27766E+02 
  38230.6596     0.27881E+02 
  38262.9218     0.27996E+02 
  38295.1839     0.28112E+02 
  38327.4461     0.28227E+02 
  38359.7082     0.28342E+02 
  38391.9704     0.28457E+02 
  38424.2326     0.28571E+02 
  38456.4947     0.28686E+02 
  38488.7569     0.28800E+02 
  38521.0190     0.28914E+02 
  38553.2812     0.29028E+02 
  38585.5434     0.29142E+02 
  38617.8055     0.29256E+02 
  38650.0677     0.29370E+02 
  38682.3298     0.29483E+02 
  38714.5920     0.29596E+02 
  38746.8542     0.29710E+02 
  38779.1163     0.29822E+02 
  38811.3785     0.29935E+02 
  38843.6406     0.30048E+02 
  38875.9028     0.30160E+02 
  38908.1650     0.30272E+02 
  38940.4271     0.30384E+02 
  38972.6893     0.30496E+02 
  39004.9514     0.30607E+02 
  39037.2136     0.30718E+02 
  39069.4758     0.30829E+02 
  39101.7379     0.30940E+02 
  39134.0001     0.31050E+02 
  39166.2622     0.31161E+02 
  39198.5244     0.31271E+02 
  39230.7866     0.31381E+02 
  39263.0487     0.31490E+02 
  39295.3109     0.31599E+02 
  39327.5730     0.31708E+02 
  39359.8352     0.31817E+02 
  39392.0974     0.31925E+02 
  39424.3595     0.32034E+02 
  39456.6217     0.32141E+02 
  39488.8838     0.32249E+02 
  39521.1460     0.32356E+02 
  39553.4082     0.32463E+02 
  39585.6703     0.32570E+02 
  39617.9325     0.32676E+02 
  39650.1946     0.32782E+02 
  39682.4568     0.32888E+02 
  39714.7190     0.32993E+02 
  39746.9811     0.33098E+02 
  39779.2433     0.33203E+02 
  39811.5054     0.33307E+02 
  39843.7676     0.33411E+02 
  39876.0298     0.33515E+02 
  39908.2919     0.33619E+02 
  39940.5541     0.33721E+02 
  39972.8162     0.33824E+02 
  40005.0784     0.33926E+02 
  40037.3406     0.34028E+02 
  40069.6027     0.34130E+02 
  40101.8649     0.34231E+02 
  40134.1270     0.34332E+02 
  40166.3892     0.34432E+02 
  40198.6514     0.34532E+02 
  40230.9135     0.34631E+02 
  40263.1757     0.34731E+02 
  40295.4378     0.34829E+02 
  40327.7000     0.34928E+02 
  40359.9622     0.35026E+02 
  40392.2243     0.35123E+02 
  40424.4865     0.35220E+02 
  40456.7486     0.35317E+02 
  40489.0108     0.35413E+02 
  40521.2730     0.35509E+02 
  40553.5351     0.35604E+02 
  40585.7973     0.35699E+02 
  40618.0594     0.35794E+02 
  40650.3216     0.35888E+02 
  40682.5838     0.35981E+02 
  40714.8459     0.36074E+02 
  40747.1081     0.36167E+02 
  40779.3702     0.36259E+02 
  40811.6324     0.36350E+02 
  40843.8946     0.36442E+02 
  40876.1567     0.36532E+02 
  40908.4189     0.36622E+02 
  40940.6810     0.36712E+02 
  40972.9432     0.36801E+02 
  41005.2054     0.36890E+02 
  41037.4675     0.36978E+02 
  41069.7297     0.37066E+02 
  41101.9918     0.37153E+02 
  41134.2540     0.37240E+02 
  41166.5162     0.37326E+02 
  41198.7783     0.37412E+02 
  41231.0405     0.37497E+02 
  41263.3026     0.37581E+02 
  41295.5648     0.37665E+02 
  41327.8270     0.37749E+02 
  41360.0891     0.37832E+02 
  41392.3513     0.37914E+02 
  41424.6134     0.37996E+02 
  41456.8756     0.38077E+02 
  41489.1378     0.38158E+02 
  41521.3999     0.38238E+02 
  41553.6621     0.38317E+02 
  41585.9242     0.38397E+02 
  41618.1864     0.38475E+02 
  41650.4486     0.38553E+02 
  41682.7107     0.38630E+02 
  41714.9729     0.38707E+02 
  41747.2350     0.38783E+02 
  41779.4972     0.38858E+02 
  41811.7594     0.38933E+02 
  41844.0215     0.39008E+02 
  41876.2837     0.39081E+02 
  41908.5458     0.39155E+02 
  41940.8080     0.39227E+02 
  41973.0702     0.39299E+02 
  42005.3323     0.39370E+02 
  42037.5945     0.39441E+02 
  42069.8566     0.39511E+02 
  42102.1188     0.39580E+02 
  42134.3810     0.39649E+02 
  42166.6431     0.39717E+02 
  42198.9053     0.39785E+02 
  42231.1674     0.39852E+02 
  42263.4296     0.39918E+02 
  42295.6918     0.39984E+02 
  42327.9539     0.40049E+02 
  42360.2161     0.40113E+02 
  42392.4782     0.40177E+02 
  42424.7404     0.40240E+02 
  42457.0026     0.40302E+02 
  42489.2647     0.40364E+02 
  42521.5269     0.40425E+02 
  42553.7890     0.40485E+02 
  42586.0512     0.40545E+02 
  42618.3134     0.40604E+02 
  42650.5755     0.40663E+02 
  42682.8377     0.40720E+02 
  42715.0998     0.40777E+02 
  42747.3620     0.40834E+02 
  42779.6242     0.40889E+02 
  42811.8863     0.40944E+02 
  42844.1485     0.40999E+02 
  42876.4106     0.41052E+02 
  42908.6728     0.41105E+02 
  42940.9350     0.41157E+02 
  42973.1971     0.41209E+02 
  43005.4593     0.41260E+02 
  43037.7214     0.41310E+02 
  43069.9836     0.41359E+02 
  43102.2458     0.41408E+02 
  43134.5079     0.41456E+02 
  43166.7701     0.41503E+02 
  43199.0322     0.41550E+02 
  43231.2944     0.41596E+02 
  43263.5566     0.41641E+02 
  43295.8187     0.41686E+02 
  43328.0809     0.41729E+02 
  43360.3430     0.41772E+02 
  43392.6052     0.41815E+02 
  43424.8674     0.41856E+02 
  43457.1295     0.41897E+02 
  43489.3917     0.41937E+02 
  43521.6538     0.41977E+02 
  43553.9160     0.42015E+02 
  43586.1782     0.42053E+02 
  43618.4403     0.42090E+02 
  43650.7025     0.42127E+02 
  43682.9646     0.42163E+02 
  43715.2268     0.42198E+02 
  43747.4890     0.42232E+02 
  43779.7511     0.42265E+02 
  43812.0133     0.42298E+02 
  43844.2754     0.42330E+02 
  43876.5376     0.42361E+02 
  43908.7998     0.42392E+02 
  43941.0619     0.42422E+02 
  43973.3241     0.42451E+02 
  44005.5862     0.42479E+02 
  44037.8484     0.42507E+02 
  44070.1106     0.42533E+02 
  44102.3727     0.42559E+02 
  44134.6349     0.42585E+02 
  44166.8970     0.42609E+02 
  44199.1592     0.42633E+02 
  44231.4214     0.42656E+02 
  44263.6835     0.42678E+02 
  44295.9457     0.42700E+02 
  44328.2078     0.42721E+02 
  44360.4700     0.42741E+02 
  44392.7322     0.42760E+02 
  44424.9943     0.42778E+02 
  44457.2565     0.42796E+02 
  44489.5186     0.42813E+02 
  44521.7808     0.42829E+02 
  44554.0430     0.42845E+02 
  44586.3051     0.42859E+02 
  44618.5673     0.42873E+02 
  44650.8294     0.42886E+02 
  44683.0916     0.42899E+02 
  44715.3538     0.42910E+02 
  44747.6159     0.42921E+02 
  44779.8781     0.42931E+02 
  44812.1402     0.42941E+02 
  44844.4024     0.42949E+02 
  44876.6646     0.42957E+02 
  44908.9267     0.42964E+02 
  44941.1889     0.42971E+02 
  44973.4510     0.42976E+02 
  45005.7132     0.42981E+02 
  45037.9754     0.42985E+02 
  45070.2375     0.42988E+02 
  45102.4997     0.42991E+02 
  45134.7618     0.42992E+02 
  45167.0240     0.42993E+02 
  45199.2862     0.42993E+02 
  45231.5483     0.42993E+02 
  45263.8105     0.42992E+02 
  45296.0726     0.42990E+02 
  45328.3348     0.42987E+02 
  45360.5970     0.42983E+02 
  45392.8591     0.42979E+02 
  45425.1213     0.42974E+02 
  45457.3834     0.42968E+02 
  45489.6456     0.42961E+02 
  45521.9078     0.42954E+02 
  45554.1699     0.42946E+02 
  45586.4321     0.42937E+02 
  45618.6942     0.42927E+02 
  45650.9564     0.42917E+02 
  45683.2186     0.42906E+02 
  45715.4807     0.42894E+02 
  45747.7429     0.42881E+02 
  45780.0050     0.42868E+02 
  45812.2672     0.42853E+02 
  45844.5294     0.42839E+02 
  45876.7915     0.42823E+02 
  45909.0537     0.42807E+02 
  45941.3158     0.42789E+02 
  45973.5780     0.42772E+02 
  46005.8402     0.42753E+02 
  46038.1023     0.42734E+02 
  46070.3645     0.42714E+02 
  46102.6266     0.42693E+02 
  46134.8888     0.42671E+02 
  46167.1510     0.42649E+02 
  46199.4131     0.42626E+02 
  46231.6753     0.42602E+02 
  46263.9374     0.42578E+02 
  46296.1996     0.42552E+02 
  46328.4618     0.42526E+02 
  46360.7239     0.42500E+02 
  46392.9861     0.42472E+02 
  46425.2482     0.42444E+02 
  46457.5104     0.42415E+02 
  46489.7726     0.42386E+02 
  46522.0347     0.42356E+02 
  46554.2969     0.42325E+02 
  46586.5590     0.42293E+02 
  46618.8212     0.42261E+02 
  46651.0834     0.42227E+02 
  46683.3455     0.42194E+02 
  46715.6077     0.42159E+02 
  46747.8698     0.42124E+02 
  46780.1320     0.42088E+02 
  46812.3942     0.42051E+02 
  46844.6563     0.42014E+02 
  46876.9185     0.41976E+02 
  46909.1806     0.41937E+02 
  46941.4428     0.41898E+02 
  46973.7050     0.41858E+02 
  47005.9671     0.41817E+02 
  47038.2293     0.41775E+02 
  47070.4914     0.41733E+02 
  47102.7536     0.41690E+02 
  47135.0158     0.41647E+02 
  47167.2779     0.41603E+02 
  47199.5401     0.41558E+02 
  47231.8022     0.41512E+02 
  47264.0644     0.41466E+02 
  47296.3266     0.41419E+02 
  47328.5887     0.41372E+02 
  47360.8509     0.41323E+02 
  47393.1130     0.41275E+02 
  47425.3752     0.41225E+02 
  47457.6374     0.41175E+02 
  47489.8995     0.41124E+02 
  47522.1617     0.41073E+02 
  47554.4238     0.41021E+02 
  47586.6860     0.40968E+02 
  47618.9482     0.40914E+02 
  47651.2103     0.40860E+02 
  47683.4725     0.40806E+02 
  47715.7346     0.40750E+02 
  47747.9968     0.40694E+02 
  47780.2590     0.40638E+02 
  47812.5211     0.40581E+02 
  47844.7833     0.40523E+02 
  47877.0454     0.40464E+02 
  47909.3076     0.40405E+02 
  47941.5698     0.40346E+02 
  47973.8319     0.40285E+02 
  48006.0941     0.40225E+02 
  48038.3562     0.40163E+02 
  48070.6184     0.40101E+02 
  48102.8806     0.40038E+02 
  48135.1427     0.39975E+02 
  48167.4049     0.39911E+02 
  48199.6670     0.39847E+02 
  48231.9292     0.39782E+02 
  48264.1914     0.39716E+02 
  48296.4535     0.39650E+02 
  48328.7157     0.39583E+02 
  48360.9778     0.39516E+02 
  48393.2400     0.39448E+02 
  48425.5022     0.39379E+02 
  48457.7643     0.39310E+02 
  48490.0265     0.39241E+02 
  48522.2886     0.39171E+02 
  48554.5508     0.39100E+02 
  48586.8130     0.39029E+02 
  48619.0751     0.38957E+02 
  48651.3373     0.38884E+02 
  48683.5994     0.38812E+02 
  48715.8616     0.38738E+02 
  48748.1238     0.38664E+02 
  48780.3859     0.38590E+02 
  48812.6481     0.38515E+02 
  48844.9102     0.38439E+02 
  48877.1724     0.38363E+02 
  48909.4346     0.38286E+02 
  48941.6967     0.38209E+02 
  48973.9589     0.38132E+02 
  49006.2210     0.38054E+02 
  49038.4832     0.37975E+02 
  49070.7454     0.37896E+02 
  49103.0075     0.37816E+02 
  49135.2697     0.37736E+02 
  49167.5318     0.37655E+02 
  49199.7940     0.37574E+02 
  49232.0562     0.37493E+02 
  49264.3183     0.37411E+02 
  49296.5805     0.37328E+02 
  49328.8426     0.37245E+02 
  49361.1048     0.37162E+02 
  49393.3670     0.37078E+02 
  49425.6291     0.36993E+02 
  49457.8913     0.36909E+02 
  49490.1534     0.36823E+02 
  49522.4156     0.36738E+02 
  49554.6778     0.36651E+02 
  49586.9399     0.36565E+02 
  49619.2021     0.36478E+02 
  49651.4642     0.36390E+02 
  49683.7264     0.36302E+02 
  49715.9886     0.36214E+02 
  49748.2507     0.36125E+02 
  49780.5129     0.36036E+02 
  49812.7750     0.35946E+02 
  49845.0372     0.35856E+02 
  49877.2994     0.35766E+02 
  49909.5615     0.35675E+02 
  49941.8237     0.35583E+02 
  49974.0858     0.35492E+02 
  50006.3480     0.35400E+02 
  50038.6102     0.35307E+02 
  50070.8723     0.35214E+02 
  50103.1345     0.35121E+02 
  50135.3966     0.35028E+02 
  50167.6588     0.34934E+02 
  50199.9210     0.34839E+02 
  50232.1831     0.34745E+02 
  50264.4453     0.34649E+02 
  50296.7074     0.34554E+02 
  50328.9696     0.34458E+02 
  50361.2318     0.34362E+02 
  50393.4939     0.34266E+02 
  50425.7561     0.34169E+02 
  50458.0182     0.34072E+02 
  50490.2804     0.33974E+02 
  50522.5426     0.33876E+02 
  50554.8047     0.33778E+02 
  50587.0669     0.33679E+02 
  50619.3290     0.33581E+02 
  50651.5912     0.33481E+02 
  50683.8534     0.33382E+02 
  50716.1155     0.33282E+02 
  50748.3777     0.33182E+02 
  50780.6398     0.33082E+02 
  50812.9020     0.32981E+02 
  50845.1642     0.32880E+02 
  50877.4263     0.32779E+02 
  50909.6885     0.32677E+02 
  50941.9506     0.32575E+02 
  50974.2128     0.32473E+02 
  51006.4750     0.32371E+02 
  51038.7371     0.32268E+02 
  51070.9993     0.32165E+02 
  51103.2614     0.32062E+02 
  51135.5236     0.31958E+02 
  51167.7858     0.31854E+02 
  51200.0479     0.31750E+02 
  51232.3101     0.31646E+02 
  51264.5722     0.31542E+02 
  51296.8344     0.31437E+02 
  51329.0966     0.31332E+02 
  51361.3587     0.31227E+02 
  51393.6209     0.31121E+02 
  51425.8830     0.31016E+02 
  51458.1452     0.30910E+02 
  51490.4074     0.30804E+02 
  51522.6695     0.30697E+02 
  51554.9317     0.30591E+02 
  51587.1938     0.30484E+02 
  51619.4560     0.30377E+02 
  51651.7182     0.30270E+02 
  51683.9803     0.30162E+02 
  51716.2425     0.30055E+02 
  51748.5046     0.29947E+02 
  51780.7668     0.29839E+02 
  51813.0290     0.29731E+02 
  51845.2911     0.29623E+02 
  51877.5533     0.29514E+02 
  51909.8154     0.29406E+02 
  51942.0776     0.29297E+02 
  51974.3398     0.29188E+02 
  52006.6019     0.29079E+02 
  52038.8641     0.28969E+02 
  52071.1262     0.28860E+02 
  52103.3884     0.28750E+02 
  52135.6506     0.28640E+02 
  52167.9127     0.28531E+02 
  52200.1749     0.28420E+02 
  52232.4370     0.28310E+02 
  52264.6992     0.28200E+02 
  52296.9614     0.28090E+02 
  52329.2235     0.27979E+02 
  52361.4857     0.27868E+02 
  52393.7478     0.27758E+02 
  52426.0100     0.27647E+02 
  52458.2722     0.27536E+02 
  52490.5343     0.27424E+02 
  52522.7965     0.27313E+02 
  52555.0586     0.27202E+02 
  52587.3208     0.27090E+02 
  52619.5830     0.26979E+02 
  52651.8451     0.26867E+02 
  52684.1073     0.26756E+02 
  52716.3694     0.26644E+02 
  52748.6316     0.26532E+02 
  52780.8938     0.26420E+02 
  52813.1559     0.26308E+02 
  52845.4181     0.26196E+02 
  52877.6802     0.26084E+02 
  52909.9424     0.25972E+02 
  52942.2046     0.25859E+02 
  52974.4667     0.25747E+02 
  53006.7289     0.25635E+02 
  53038.9910     0.25522E+02 
  53071.2532     0.25410E+02 
  53103.5154     0.25297E+02 
  53135.7775     0.25185E+02 
  53168.0397     0.25072E+02 
  53200.3018     0.24960E+02 
  53232.5640     0.24847E+02 
  53264.8262     0.24734E+02 
  53297.0883     0.24622E+02 
  53329.3505     0.24509E+02 
  53361.6126     0.24396E+02 
  53393.8748     0.24284E+02 
  53426.1370     0.24171E+02 
  53458.3991     0.24058E+02 
  53490.6613     0.23945E+02 
  53522.9234     0.23833E+02 
  53555.1856     0.23720E+02 
  53587.4478     0.23607E+02 
  53619.7099     0.23495E+02 
  53651.9721     0.23382E+02 
  53684.2342     0.23269E+02 
  53716.4964     0.23157E+02 
  53748.7586     0.23044E+02 
  53781.0207     0.22932E+02 
  53813.2829     0.22819E+02 
  53845.5450     0.22707E+02 
  53877.8072     0.22594E+02 
  53910.0694     0.22482E+02 
  53942.3315     0.22369E+02 
  53974.5937     0.22257E+02 
  54006.8558     0.22145E+02 
  54039.1180     0.22032E+02 
  54071.3802     0.21920E+02 
  54103.6423     0.21808E+02 
  54135.9045     0.21696E+02 
  54168.1666     0.21584E+02 
  54200.4288     0.21472E+02 
  54232.6910     0.21360E+02 
  54264.9531     0.21249E+02 
  54297.2153     0.21137E+02 
  54329.4774     0.21025E+02 
  54361.7396     0.20914E+02 
  54394.0018     0.20803E+02 
  54426.2639     0.20691E+02 
  54458.5261     0.20580E+02 
  54490.7882     0.20469E+02 
  54523.0504     0.20358E+02 
  54555.3126     0.20247E+02 
  54587.5747     0.20136E+02 
  54619.8369     0.20025E+02 
  54652.0990     0.19915E+02 
  54684.3612     0.19804E+02 
  54716.6234     0.19694E+02 
  54748.8855     0.19584E+02 
  54781.1477     0.19474E+02 
  54813.4098     0.19364E+02 
  54845.6720     0.19254E+02 
  54877.9342     0.19144E+02 
  54910.1963     0.19035E+02 
  54942.4585     0.18925E+02 
  54974.7206     0.18816E+02 
  55006.9828     0.18707E+02 
  55039.2450     0.18598E+02 
  55071.5071     0.18489E+02 
  55103.7693     0.18380E+02 
  55136.0314     0.18272E+02 
  55168.2936     0.18163E+02 
  55200.5558     0.18055E+02 
  55232.8179     0.17947E+02 
  55265.0801     0.17839E+02 
  55297.3422     0.17732E+02 
  55329.6044     0.17624E+02 
  55361.8666     0.17517E+02 
  55394.1287     0.17410E+02 
  55426.3909     0.17303E+02 
  55458.6530     0.17196E+02 
  55490.9152     0.17089E+02 
  55523.1774     0.16983E+02 
  55555.4395     0.16877E+02 
  55587.7017     0.16771E+02 
  55619.9638     0.16665E+02 
  55652.2260     0.16559E+02 
  55684.4882     0.16454E+02 
  55716.7503     0.16349E+02 
  55749.0125     0.16244E+02 
  55781.2746     0.16139E+02 
  55813.5368     0.16035E+02 
  55845.7990     0.15930E+02 
  55878.0611     0.15826E+02 
  55910.3233     0.15722E+02 
  55942.5854     0.15619E+02 
  55974.8476     0.15515E+02 
  56007.1098     0.15412E+02 
  56039.3719     0.15309E+02 
  56071.6341     0.15207E+02 
  56103.8962     0.15104E+02 
  56136.1584     0.15002E+02 
  56168.4206     0.14900E+02 
  56200.6827     0.14798E+02 
  56232.9449     0.14697E+02 
  56265.2070     0.14596E+02 
  56297.4692     0.14495E+02 
  56329.7314     0.14394E+02 
  56361.9935     0.14294E+02 
  56394.2557     0.14194E+02 
  56426.5178     0.14094E+02 
  56458.7800     0.13994E+02 
  56491.0422     0.13895E+02 
  56523.3043     0.13796E+02 
  56555.5665     0.13698E+02 
  56587.8286     0.13599E+02 
  56620.0908     0.13501E+02 
  56652.3530     0.13403E+02 
  56684.6151     0.13306E+02 
  56716.8773     0.13209E+02 
  56749.1394     0.13112E+02 
  56781.4016     0.13015E+02 
  56813.6638     0.12919E+02 
  56845.9259     0.12823E+02 
  56878.1881     0.12727E+02 
  56910.4502     0.12632E+02 
  56942.7124     0.12537E+02 
  56974.9746     0.12442E+02 
  57007.2367     0.12348E+02 
  57039.4989     0.12254E+02 
  57071.7610     0.12160E+02 
  57104.0232     0.12067E+02 
  57136.2854     0.11974E+02 
  57168.5475     0.11881E+02 
  57200.8097     0.11789E+02 
  57233.0718     0.11697E+02 
  57265.3340     0.11605E+02 
  57297.5962     0.11514E+02 
  57329.8583     0.11423E+02 
  57362.1205     0.11332E+02 
  57394.3826     0.11242E+02 
  57426.6448     0.11152E+02 
  57458.9070     0.11063E+02 
  57491.1691     0.10974E+02 
  57523.4313     0.10885E+02 
  57555.6934     0.10797E+02 
  57587.9556     0.10709E+02 
  57620.2178     0.10621E+02 
  57652.4799     0.10534E+02 
  57684.7421     0.10447E+02 
  57717.0042     0.10361E+02 
  57749.2664     0.10275E+02 
  57781.5286     0.10190E+02 
  57813.7907     0.10105E+02 
  57846.0529     0.10020E+02 
  57878.3150     0.99355E+01 
  57910.5772     0.98517E+01 
  57942.8394     0.97682E+01 
  57975.1015     0.96852E+01 
  58007.3637     0.96027E+01 
  58039.6258     0.95205E+01 
  58071.8880     0.94388E+01 
  58104.1502     0.93575E+01 
  58136.4123     0.92767E+01 
  58168.6745     0.91964E+01 
  58200.9366     0.91165E+01 
  58233.1988     0.90370E+01 
  58265.4610     0.89580E+01 
  58297.7231     0.88795E+01 
  58329.9853     0.88015E+01 
  58362.2474     0.87239E+01 
  58394.5096     0.86468E+01 
  58426.7718     0.85701E+01 
  58459.0339     0.84940E+01 
  58491.2961     0.84184E+01 
  58523.5582     0.83432E+01 
  58555.8204     0.82686E+01 
  58588.0826     0.81944E+01 
  58620.3447     0.81208E+01 
  58652.6069     0.80476E+01 
  58684.8690     0.79750E+01 
  58717.1312     0.79029E+01 
  58749.3934     0.78313E+01 
  58781.6555     0.77603E+01 
  58813.9177     0.76898E+01 
  58846.1798     0.76198E+01 
  58878.4420     0.75503E+01 
  58910.7042     0.74814E+01 
  58942.9663     0.74131E+01 
  58975.2285     0.73453E+01 
  59007.4906     0.72781E+01 
  59039.7528     0.72114E+01 
  59072.0150     0.71453E+01 
  59104.2771     0.70798E+01 
  59136.5393     0.70148E+01 
  59168.8014     0.69505E+01 
  59201.0636     0.68867E+01 
  59233.3258     0.68235E+01 
  59265.5879     0.67609E+01 
  59297.8501     0.66990E+01 
  59330.1122     0.66376E+01 
  59362.3744     0.65768E+01 
  59394.6366     0.65167E+01 
  59426.8987     0.64572E+01 
  59459.1609     0.63983E+01 
  59491.4230     0.63400E+01 
  59523.6852     0.62824E+01 
  59555.9474     0.62254E+01 
  59588.2095     0.61691E+01 
  59620.4717     0.61135E+01 
  59652.7338     0.60585E+01 
  59684.9960     0.60041E+01 
  59717.2582     0.59505E+01 
  59749.5203     0.58975E+01 
  59781.7825     0.58452E+01 
  59814.0446     0.57936E+01 
  59846.3068     0.57427E+01 
  59878.5690     0.56925E+01 
  59910.8311     0.56430E+01 
  59943.0933     0.55942E+01 
  59975.3554     0.55461E+01 
  60007.6176     0.54988E+01 
  60039.8798     0.54522E+01 
  60072.1419     0.54063E+01 
  60104.4041     0.53612E+01 
  60136.6662     0.53168E+01 
  60168.9284     0.52732E+01 
  60201.1906     0.52303E+01 
  60233.4527     0.51883E+01 
  60265.7149     0.51470E+01 
  60297.9770     0.51065E+01 
  60330.2392     0.50667E+01 
  60362.5014     0.50278E+01 
  60394.7635     0.49897E+01 
  60427.0257     0.49524E+01 
  60459.2878     0.49159E+01 
  60491.5500     0.48802E+01 
  60523.8122     0.48454E+01 
  60556.0743     0.48114E+01 
  60588.3365     0.47783E+01 
  60620.5986     0.47460E+01 
  60652.8608     0.47146E+01 
  60685.1230     0.46841E+01 
  60717.3851     0.46544E+01 
  60749.6473     0.46256E+01 
  60781.9094     0.45977E+01 
  60814.1716     0.45707E+01 
  60846.4338     0.45446E+01 
  60878.6959     0.45195E+01 
  60910.9581     0.44952E+01 
  60943.2202     0.44719E+01 
  60975.4824     0.44496E+01 
  61007.7446     0.44282E+01 
  61040.0067     0.44077E+01 
  61072.2689     0.43882E+01 
  61104.5310     0.43697E+01 
  61136.7932     0.43522E+01 
  61169.0554     0.43357E+01 
  61201.3175     0.43201E+01 
  61233.5797     0.43056E+01 
  61265.8418     0.42921E+01 
  61298.1040     0.42796E+01 
  61330.3662     0.42682E+01 
  61362.6283     0.42578E+01 
  61394.8905     0.42484E+01 
  61427.1526     0.42402E+01 
  61459.4148     0.42329E+01 
  61491.6770     0.42268E+01 
  61523.9391     0.42218E+01 
  61556.2013     0.42179E+01 
  61588.4634     0.42151E+01 
  61620.7256     0.42134E+01 
  61652.9878     0.42128E+01 
  61685.2499     0.42134E+01 
  61717.5121     0.42151E+01 
  61749.7742     0.42180E+01 
  61782.0364     0.42221E+01 
  61814.2986     0.42273E+01 
  61846.5607     0.42338E+01 
  61878.8229     0.42414E+01 
  61911.0850     0.42502E+01 
  61943.3472     0.42603E+01 
  61975.6094     0.42716E+01 
  62007.8715     0.42842E+01 
  62040.1337     0.42980E+01 
  62072.3958     0.43131E+01 
  62104.6580     0.43295E+01 
  62136.9202     0.43471E+01 
  62169.1823     0.43661E+01 
  62201.4445     0.43863E+01 
  62233.7066     0.44079E+01 
  62265.9688     0.44308E+01 
  62298.2310     0.44551E+01 
  62330.4931     0.44807E+01 
  62362.7553     0.45077E+01 
  62395.0174     0.45361E+01 
  62427.2796     0.45659E+01 
  62459.5418     0.45971E+01 
  62491.8039     0.46297E+01 
  62524.0661     0.46637E+01 
  62556.3282     0.46992E+01 
  62588.5904     0.47361E+01 
  62620.8526     0.47745E+01 
  62653.1147     0.48144E+01 
  62685.3769     0.48558E+01 
  62717.6390     0.48987E+01 
  62749.9012     0.49431E+01 
  62782.1634     0.49890E+01 
  62814.4255     0.50365E+01 
  62846.6877     0.50855E+01 
  62878.9498     0.51361E+01 
  62911.2120     0.51883E+01 
  62943.4742     0.52421E+01 
  62975.7363     0.52975E+01 
  63007.9985     0.53546E+01 
  63040.2606     0.54132E+01 
  63072.5228     0.54736E+01 
  63104.7850     0.55356E+01 
  63137.0471     0.55993E+01 
  63169.3093     0.56646E+01 
  63201.5714     0.57317E+01 
  63233.8336     0.58005E+01 
  63266.0958     0.58711E+01 
  63298.3579     0.59434E+01 
  63330.6201     0.60175E+01 
  63362.8822     0.60934E+01 
  63395.1444     0.61710E+01 
  63427.4066     0.62505E+01 
  63459.6687     0.63318E+01 
  63491.9309     0.64150E+01 
  63524.1930     0.65000E+01 
  63556.4552     0.65869E+01 
  63588.7174     0.66756E+01 
  63620.9795     0.67663E+01 
  63653.2417     0.68589E+01 
  63685.5038     0.69535E+01 
  63717.7660     0.70499E+01 
  63750.0282     0.71484E+01 
  63782.2903     0.72489E+01 
  63814.5525     0.73513E+01 
  63846.8146     0.74558E+01 
  63879.0768     0.75623E+01 
  63911.3390     0.76708E+01 
  63943.6011     0.77814E+01 
  63975.8633     0.78941E+01 
  64008.1254     0.80089E+01 
  64040.3876     0.81259E+01 
  64072.6498     0.82449E+01 
  64104.9119     0.83661E+01 
  64137.1741     0.84895E+01 
  64169.4362     0.86150E+01 
  64201.6984     0.87428E+01 
  64233.9606     0.88728E+01 
  64266.2227     0.90050E+01 
  64298.4849     0.91394E+01 
  64330.7470     0.92762E+01 
  64363.0092     0.94152E+01 
  64395.2714     0.95565E+01 
  64427.5335     0.97002E+01 
  64459.7957     0.98462E+01 
  64492.0578     0.99946E+01 
  64524.3200     0.10145E+02 
  64556.5822     0.10298E+02 
  64588.8443     0.10454E+02 
  64621.1065     0.10612E+02 
  64653.3686     0.10772E+02 
  64685.6308     0.10935E+02 
  64717.8930     0.11101E+02 
  64750.1551     0.11269E+02 
  64782.4173     0.11439E+02 
  64814.6794     0.11612E+02 
  64846.9416     0.11788E+02 
  64879.2038     0.11966E+02 
  64911.4659     0.12147E+02 
  64943.7281     0.12330E+02 
  64975.9902     0.12516E+02 
  65008.2524     0.12705E+02 
  65040.5146     0.12896E+02 
  65072.7767     0.13090E+02 
  65105.0389     0.13287E+02 
  65137.3010     0.13486E+02 
  65169.5632     0.13689E+02 
  65201.8254     0.13894E+02 
  65234.0875     0.14102E+02 
  65266.3497     0.14312E+02 
  65298.6118     0.14526E+02 
  65330.8740     0.14742E+02 
  65363.1362     0.14961E+02 
  65395.3983     0.15184E+02 
  65427.6605     0.15409E+02 
  65459.9226     0.15637E+02 
  65492.1848     0.15868E+02 
  65524.4470     0.16102E+02 
  65556.7091     0.16339E+02 
  65588.9713     0.16579E+02 
  65621.2334     0.16822E+02 
  65653.4956     0.17068E+02 
  65685.7578     0.17317E+02 
  65718.0199     0.17569E+02 
  65750.2821     0.17824E+02 
  65782.5442     0.18083E+02 
  65814.8064     0.18345E+02 
  65847.0686     0.18610E+02 
  65879.3307     0.18878E+02 
  65911.5929     0.19149E+02 
  65943.8550     0.19424E+02 
  65976.1172     0.19702E+02 
  66008.3794     0.19983E+02 
  66040.6415     0.20267E+02 
  66072.9037     0.20555E+02 
  66105.1658     0.20846E+02 
  66137.4280     0.21141E+02 
  66169.6902     0.21439E+02 
  66201.9523     0.21740E+02 
  66234.2145     0.22045E+02 
  66266.4766     0.22353E+02 
  66298.7388     0.22665E+02 
  66331.0010     0.22980E+02 
  66363.2631     0.23299E+02 
  66395.5253     0.23622E+02 
  66427.7874     0.23947E+02 
  66460.0496     0.24277E+02 
  66492.3118     0.24610E+02 
  66524.5739     0.24947E+02 
  66556.8361     0.25287E+02 
  66589.0982     0.25632E+02 
  66621.3604     0.25979E+02 
  66653.6226     0.26331E+02 
  66685.8847     0.26686E+02 
  66718.1469     0.27045E+02 
  66750.4090     0.27408E+02 
  66782.6712     0.27775E+02 
  66814.9334     0.28145E+02 
  66847.1955     0.28520E+02 
  66879.4577     0.28898E+02 
  66911.7198     0.29280E+02 
  66943.9820     0.29666E+02 
  66976.2442     0.30056E+02 
  67008.5063     0.30450E+02 
  67040.7685     0.30848E+02 
  67073.0306     0.31250E+02 
  67105.2928     0.31656E+02 
  67137.5550     0.32066E+02 
  67169.8171     0.32480E+02 
  67202.0793     0.32899E+02 
  67234.3414     0.33321E+02 
  67266.6036     0.33747E+02 
  67298.8658     0.34178E+02 
  67331.1279     0.34613E+02 
  67363.3901     0.35052E+02 
  67395.6522     0.35495E+02 
  67427.9144     0.35943E+02 
  67460.1766     0.36394E+02 
  67492.4387     0.36850E+02 
  67524.7009     0.37311E+02 
  67556.9630     0.37776E+02 
  67589.2252     0.38245E+02 
  67621.4874     0.38718E+02 
  67653.7495     0.39196E+02 
  67686.0117     0.39678E+02 
  67718.2738     0.40165E+02 
  67750.5360     0.40656E+02 
  67782.7982     0.41151E+02 
  67815.0603     0.41651E+02 
  67847.3225     0.42156E+02 
  67879.5846     0.42665E+02 
  67911.8468     0.43179E+02 
  67944.1090     0.43697E+02 
  67976.3711     0.44220E+02 
  68008.6333     0.44747E+02 
  68040.8954     0.45280E+02 
  68073.1576     0.45816E+02 
  68105.4198     0.46358E+02 
  68137.6819     0.46904E+02 
  68169.9441     0.47455E+02 
  68202.2062     0.48011E+02 
  68234.4684     0.48571E+02 
  68266.7306     0.49136E+02 
  68298.9927     0.49706E+02 
  68331.2549     0.50281E+02 
  68363.5170     0.50861E+02 
  68395.7792     0.51445E+02 
  68428.0414     0.52035E+02 
  68460.3035     0.52629E+02 
  68492.5657     0.53228E+02 
  68524.8278     0.53832E+02 
  68557.0900     0.54441E+02 
  68589.3522     0.55055E+02 
  68621.6143     0.55674E+02 
  68653.8765     0.56298E+02 
  68686.1386     0.56927E+02 
  68718.4008     0.57562E+02 
  68750.6630     0.58201E+02 
  68782.9251     0.58845E+02 
  68815.1873     0.59494E+02 
  68847.4494     0.60149E+02 
  68879.7116     0.60808E+02 
  68911.9738     0.61473E+02 
  68944.2359     0.62143E+02 
  68976.4981     0.62818E+02 
  69008.7602     0.63498E+02 
  69041.0224     0.64184E+02 
  69073.2846     0.64874E+02 
  69105.5467     0.65570E+02 
  69137.8089     0.66272E+02 
  69170.0710     0.66978E+02 
  69202.3332     0.67690E+02 
  69234.5954     0.68407E+02 
  69266.8575     0.69129E+02 
  69299.1197     0.69857E+02 
  69331.3818     0.70590E+02 
  69363.6440     0.71329E+02 
  69395.9062     0.72073E+02 
  69428.1683     0.72822E+02 
  69460.4305     0.73577E+02 
  69492.6926     0.74337E+02 
  69524.9548     0.75102E+02 
  69557.2170     0.75873E+02 
  69589.4791     0.76650E+02 
  69621.7413     0.77432E+02 
  69654.0034     0.78219E+02 
  69686.2656     0.79012E+02 
  69718.5278     0.79810E+02 
  69750.7899     0.80614E+02 
  69783.0521     0.81424E+02 
  69815.3142     0.82239E+02 
  69847.5764     0.83059E+02 
  69879.8386     0.83886E+02 
  69912.1007     0.84717E+02 
  69944.3629     0.85555E+02 
  69976.6250     0.86398E+02 
  70008.8872     0.87246E+02 
  70041.1494     0.88101E+02 
  70073.4115     0.88960E+02 
  70105.6737     0.89826E+02 
  70137.9358     0.90697E+02 
  70170.1980     0.91574E+02 
  70202.4602     0.92456E+02 
  70234.7223     0.93344E+02 
  70266.9845     0.94238E+02 
  70299.2466     0.95138E+02 
  70331.5088     0.96043E+02 
  70363.7710     0.96954E+02 
  70396.0331     0.97871E+02 
  70428.2953     0.98793E+02 
  70460.5574     0.99721E+02 
  70492.8196     0.10066E+03 
  70525.0818     0.10159E+03 
  70557.3439     0.10254E+03 
  70589.6061     0.10349E+03 
  70621.8682     0.10445E+03 
  70654.1304     0.10541E+03 
  70686.3926     0.10638E+03 
  70718.6547     0.10735E+03 
  70750.9169     0.10833E+03 
  70783.1790     0.10932E+03 
  70815.4412     0.11031E+03 
  70847.7034     0.11131E+03 
  70879.9655     0.11231E+03 
  70912.2277     0.11332E+03 
  70944.4898     0.11433E+03 
  70976.7520     0.11535E+03 
  71009.0142     0.11638E+03 
  71041.2763     0.11741E+03 
  71073.5385     0.11845E+03 
  71105.8006     0.11949E+03 
  71138.0628     0.12054E+03 
  71170.3250     0.12160E+03 
  71202.5871     0.12266E+03 
  71234.8493     0.12373E+03 
  71267.1114     0.12480E+03 
  71299.3736     0.12588E+03 
  71331.6358     0.12696E+03 
  71363.8979     0.12805E+03 
  71396.1601     0.12915E+03 
  71428.4222     0.13025E+03 
  71460.6844     0.13136E+03 
  71492.9466     0.13247E+03 
  71525.2087     0.13359E+03 
  71557.4709     0.13471E+03 
  71589.7330     0.13584E+03 
  71621.9952     0.13698E+03 
  71654.2574     0.13812E+03 
  71686.5195     0.13927E+03 
  71718.7817     0.14042E+03 
  71751.0438     0.14158E+03 
  71783.3060     0.14275E+03 
  71815.5682     0.14392E+03 
  71847.8303     0.14509E+03 
  71880.0925     0.14628E+03 
  71912.3546     0.14746E+03 
  71944.6168     0.14866E+03 
  71976.8790     0.14986E+03 
  72009.1411     0.15106E+03 
  72041.4033     0.15227E+03 
  72073.6654     0.15349E+03 
  72105.9276     0.15471E+03 
  72138.1898     0.15593E+03 
  72170.4519     0.15717E+03 
  72202.7141     0.15841E+03 
  72234.9762     0.15965E+03 
  72267.2384     0.16090E+03 
  72299.5006     0.16215E+03 
  72331.7627     0.16342E+03 
  72364.0249     0.16468E+03 
  72396.2870     0.16595E+03 
  72428.5492     0.16723E+03 
  72460.8114     0.16851E+03 
  72493.0735     0.16980E+03 
  72525.3357     0.17109E+03 
  72557.5978     0.17239E+03 
  72589.8600     0.17370E+03 
