  32262.1600     0.24424E+02 
  32294.4222     0.24640E+02 
  32326.6843     0.24858E+02 
  32358.9465     0.25076E+02 
  32391.2086     0.25296E+02 
  32423.4708     0.25517E+02 
  32455.7330     0.25739E+02 
  32487.9951     0.25962E+02 
  32520.2573     0.26186E+02 
  32552.5194     0.26412E+02 
  32584.7816     0.26639E+02 
  32617.0438     0.26867E+02 
  32649.3059     0.27096E+02 
  32681.5681     0.27326E+02 
  32713.8302     0.27557E+02 
  32746.0924     0.27790E+02 
  32778.3546     0.28024E+02 
  32810.6167     0.28258E+02 
  32842.8789     0.28494E+02 
  32875.1410     0.28732E+02 
  32907.4032     0.28970E+02 
  32939.6654     0.29209E+02 
  32971.9275     0.29450E+02 
  33004.1897     0.29692E+02 
  33036.4518     0.29934E+02 
  33068.7140     0.30178E+02 
  33100.9762     0.30423E+02 
  33133.2383     0.30670E+02 
  33165.5005     0.30917E+02 
  33197.7626     0.31165E+02 
  33230.0248     0.31415E+02 
  33262.2870     0.31665E+02 
  33294.5491     0.31917E+02 
  33326.8113     0.32170E+02 
  33359.0734     0.32424E+02 
  33391.3356     0.32679E+02 
  33423.5978     0.32935E+02 
  33455.8599     0.33192E+02 
  33488.1221     0.33451E+02 
  33520.3842     0.33710E+02 
  33552.6464     0.33970E+02 
  33584.9086     0.34232E+02 
  33617.1707     0.34494E+02 
  33649.4329     0.34758E+02 
  33681.6950     0.35022E+02 
  33713.9572     0.35288E+02 
  33746.2194     0.35555E+02 
  33778.4815     0.35823E+02 
  33810.7437     0.36091E+02 
  33843.0058     0.36361E+02 
  33875.2680     0.36632E+02 
  33907.5302     0.36904E+02 
  33939.7923     0.37176E+02 
  33972.0545     0.37450E+02 
  34004.3166     0.37725E+02 
  34036.5788     0.38001E+02 
  34068.8410     0.38278E+02 
  34101.1031     0.38555E+02 
  34133.3653     0.38834E+02 
  34165.6274     0.39114E+02 
  34197.8896     0.39394E+02 
  34230.1518     0.39676E+02 
  34262.4139     0.39958E+02 
  34294.6761     0.40242E+02 
  34326.9382     0.40526E+02 
  34359.2004     0.40811E+02 
  34391.4626     0.41097E+02 
  34423.7247     0.41384E+02 
  34455.9869     0.41672E+02 
  34488.2490     0.41961E+02 
  34520.5112     0.42251E+02 
  34552.7734     0.42542E+02 
  34585.0355     0.42833E+02 
  34617.2977     0.43125E+02 
  34649.5598     0.43418E+02 
  34681.8220     0.43712E+02 
  34714.0842     0.44007E+02 
  34746.3463     0.44303E+02 
  34778.6085     0.44599E+02 
  34810.8706     0.44897E+02 
  34843.1328     0.45195E+02 
  34875.3950     0.45494E+02 
  34907.6571     0.45793E+02 
  34939.9193     0.46094E+02 
  34972.1814     0.46395E+02 
  35004.4436     0.46697E+02 
  35036.7058     0.47000E+02 
  35068.9679     0.47303E+02 
  35101.2301     0.47607E+02 
  35133.4922     0.47912E+02 
  35165.7544     0.48217E+02 
  35198.0166     0.48524E+02 
  35230.2787     0.48831E+02 
  35262.5409     0.49138E+02 
  35294.8030     0.49447E+02 
  35327.0652     0.49756E+02 
  35359.3274     0.50065E+02 
  35391.5895     0.50375E+02 
  35423.8517     0.50686E+02 
  35456.1138     0.50998E+02 
  35488.3760     0.51310E+02 
  35520.6382     0.51623E+02 
  35552.9003     0.51936E+02 
  35585.1625     0.52250E+02 
  35617.4246     0.52564E+02 
  35649.6868     0.52879E+02 
  35681.9490     0.53195E+02 
  35714.2111     0.53511E+02 
  35746.4733     0.53827E+02 
  35778.7354     0.54144E+02 
  35810.9976     0.54462E+02 
  35843.2598     0.54780E+02 
  35875.5219     0.55099E+02 
  35907.7841     0.55418E+02 
  35940.0462     0.55737E+02 
  35972.3084     0.56057E+02 
  36004.5706     0.56377E+02 
  36036.8327     0.56698E+02 
  36069.0949     0.57019E+02 
  36101.3570     0.57341E+02 
  36133.6192     0.57663E+02 
  36165.8814     0.57985E+02 
  36198.1435     0.58308E+02 
  36230.4057     0.58631E+02 
  36262.6678     0.58954E+02 
  36294.9300     0.59278E+02 
  36327.1922     0.59602E+02 
  36359.4543     0.59926E+02 
  36391.7165     0.60251E+02 
  36423.9786     0.60576E+02 
  36456.2408     0.60901E+02 
  36488.5030     0.61226E+02 
  36520.7651     0.61552E+02 
  36553.0273     0.61878E+02 
  36585.2894     0.62204E+02 
  36617.5516     0.62530E+02 
  36649.8138     0.62856E+02 
  36682.0759     0.63183E+02 
  36714.3381     0.63510E+02 
  36746.6002     0.63837E+02 
  36778.8624     0.64164E+02 
  36811.1246     0.64491E+02 
  36843.3867     0.64818E+02 
  36875.6489     0.65145E+02 
  36907.9110     0.65473E+02 
  36940.1732     0.65800E+02 
  36972.4354     0.66128E+02 
  37004.6975     0.66456E+02 
  37036.9597     0.66783E+02 
  37069.2218     0.67111E+02 
  37101.4840     0.67438E+02 
  37133.7462     0.67766E+02 
  37166.0083     0.68094E+02 
  37198.2705     0.68421E+02 
  37230.5326     0.68749E+02 
  37262.7948     0.69076E+02 
  37295.0570     0.69404E+02 
  37327.3191     0.69731E+02 
  37359.5813     0.70058E+02 
  37391.8434     0.70385E+02 
  37424.1056     0.70712E+02 
  37456.3678     0.71039E+02 
  37488.6299     0.71365E+02 
  37520.8921     0.71692E+02 
  37553.1542     0.72018E+02 
  37585.4164     0.72344E+02 
  37617.6786     0.72670E+02 
  37649.9407     0.72995E+02 
  37682.2029     0.73320E+02 
  37714.4650     0.73645E+02 
  37746.7272     0.73970E+02 
  37778.9894     0.74295E+02 
  37811.2515     0.74619E+02 
  37843.5137     0.74943E+02 
  37875.7758     0.75266E+02 
  37908.0380     0.75589E+02 
  37940.3002     0.75912E+02 
  37972.5623     0.76234E+02 
  38004.8245     0.76556E+02 
  38037.0866     0.76878E+02 
  38069.3488     0.77199E+02 
  38101.6110     0.77520E+02 
  38133.8731     0.77840E+02 
  38166.1353     0.78160E+02 
  38198.3974     0.78479E+02 
  38230.6596     0.78798E+02 
  38262.9218     0.79116E+02 
  38295.1839     0.79434E+02 
  38327.4461     0.79751E+02 
  38359.7082     0.80068E+02 
  38391.9704     0.80384E+02 
  38424.2326     0.80700E+02 
  38456.4947     0.81015E+02 
  38488.7569     0.81329E+02 
  38521.0190     0.81643E+02 
  38553.2812     0.81956E+02 
  38585.5434     0.82269E+02 
  38617.8055     0.82580E+02 
  38650.0677     0.82891E+02 
  38682.3298     0.83202E+02 
  38714.5920     0.83512E+02 
  38746.8542     0.83821E+02 
  38779.1163     0.84129E+02 
  38811.3785     0.84436E+02 
  38843.6406     0.84743E+02 
  38875.9028     0.85049E+02 
  38908.1650     0.85354E+02 
  38940.4271     0.85659E+02 
  38972.6893     0.85962E+02 
  39004.9514     0.86265E+02 
  39037.2136     0.86567E+02 
  39069.4758     0.86868E+02 
  39101.7379     0.87168E+02 
  39134.0001     0.87467E+02 
  39166.2622     0.87765E+02 
  39198.5244     0.88062E+02 
  39230.7866     0.88359E+02 
  39263.0487     0.88654E+02 
  39295.3109     0.88949E+02 
  39327.5730     0.89242E+02 
  39359.8352     0.89535E+02 
  39392.0974     0.89826E+02 
  39424.3595     0.90117E+02 
  39456.6217     0.90406E+02 
  39488.8838     0.90695E+02 
  39521.1460     0.90982E+02 
  39553.4082     0.91269E+02 
  39585.6703     0.91554E+02 
  39617.9325     0.91838E+02 
  39650.1946     0.92121E+02 
  39682.4568     0.92403E+02 
  39714.7190     0.92684E+02 
  39746.9811     0.92963E+02 
  39779.2433     0.93242E+02 
  39811.5054     0.93519E+02 
  39843.7676     0.93795E+02 
  39876.0298     0.94070E+02 
  39908.2919     0.94343E+02 
  39940.5541     0.94616E+02 
  39972.8162     0.94887E+02 
  40005.0784     0.95157E+02 
  40037.3406     0.95425E+02 
  40069.6027     0.95693E+02 
  40101.8649     0.95959E+02 
  40134.1270     0.96223E+02 
  40166.3892     0.96487E+02 
  40198.6514     0.96749E+02 
  40230.9135     0.97010E+02 
  40263.1757     0.97269E+02 
  40295.4378     0.97527E+02 
  40327.7000     0.97784E+02 
  40359.9622     0.98039E+02 
  40392.2243     0.98293E+02 
  40424.4865     0.98545E+02 
  40456.7486     0.98796E+02 
  40489.0108     0.99045E+02 
  40521.2730     0.99293E+02 
  40553.5351     0.99540E+02 
  40585.7973     0.99785E+02 
  40618.0594     0.10003E+03 
  40650.3216     0.10027E+03 
  40682.5838     0.10051E+03 
  40714.8459     0.10075E+03 
  40747.1081     0.10099E+03 
  40779.3702     0.10122E+03 
  40811.6324     0.10146E+03 
  40843.8946     0.10169E+03 
  40876.1567     0.10192E+03 
  40908.4189     0.10215E+03 
  40940.6810     0.10238E+03 
  40972.9432     0.10261E+03 
  41005.2054     0.10283E+03 
  41037.4675     0.10305E+03 
  41069.7297     0.10328E+03 
  41101.9918     0.10350E+03 
  41134.2540     0.10371E+03 
  41166.5162     0.10393E+03 
  41198.7783     0.10415E+03 
  41231.0405     0.10436E+03 
  41263.3026     0.10457E+03 
  41295.5648     0.10478E+03 
  41327.8270     0.10499E+03 
  41360.0891     0.10519E+03 
  41392.3513     0.10540E+03 
  41424.6134     0.10560E+03 
  41456.8756     0.10580E+03 
  41489.1378     0.10600E+03 
  41521.3999     0.10620E+03 
  41553.6621     0.10640E+03 
  41585.9242     0.10659E+03 
  41618.1864     0.10678E+03 
  41650.4486     0.10697E+03 
  41682.7107     0.10716E+03 
  41714.9729     0.10735E+03 
  41747.2350     0.10753E+03 
  41779.4972     0.10771E+03 
  41811.7594     0.10789E+03 
  41844.0215     0.10807E+03 
  41876.2837     0.10825E+03 
  41908.5458     0.10843E+03 
  41940.8080     0.10860E+03 
  41973.0702     0.10877E+03 
  42005.3323     0.10894E+03 
  42037.5945     0.10911E+03 
  42069.8566     0.10927E+03 
  42102.1188     0.10944E+03 
  42134.3810     0.10960E+03 
  42166.6431     0.10976E+03 
  42198.9053     0.10992E+03 
  42231.1674     0.11008E+03 
  42263.4296     0.11023E+03 
  42295.6918     0.11038E+03 
  42327.9539     0.11053E+03 
  42360.2161     0.11068E+03 
  42392.4782     0.11083E+03 
  42424.7404     0.11097E+03 
  42457.0026     0.11111E+03 
  42489.2647     0.11125E+03 
  42521.5269     0.11139E+03 
  42553.7890     0.11153E+03 
  42586.0512     0.11166E+03 
  42618.3134     0.11179E+03 
  42650.5755     0.11192E+03 
  42682.8377     0.11205E+03 
  42715.0998     0.11218E+03 
  42747.3620     0.11230E+03 
  42779.6242     0.11242E+03 
  42811.8863     0.11254E+03 
  42844.1485     0.11266E+03 
  42876.4106     0.11278E+03 
  42908.6728     0.11289E+03 
  42940.9350     0.11300E+03 
  42973.1971     0.11311E+03 
  43005.4593     0.11322E+03 
  43037.7214     0.11332E+03 
  43069.9836     0.11343E+03 
  43102.2458     0.11353E+03 
  43134.5079     0.11363E+03 
  43166.7701     0.11372E+03 
  43199.0322     0.11382E+03 
  43231.2944     0.11391E+03 
  43263.5566     0.11400E+03 
  43295.8187     0.11409E+03 
  43328.0809     0.11418E+03 
  43360.3430     0.11426E+03 
  43392.6052     0.11434E+03 
  43424.8674     0.11442E+03 
  43457.1295     0.11450E+03 
  43489.3917     0.11457E+03 
  43521.6538     0.11465E+03 
  43553.9160     0.11472E+03 
  43586.1782     0.11479E+03 
  43618.4403     0.11485E+03 
  43650.7025     0.11492E+03 
  43682.9646     0.11498E+03 
  43715.2268     0.11504E+03 
  43747.4890     0.11510E+03 
  43779.7511     0.11516E+03 
  43812.0133     0.11521E+03 
  43844.2754     0.11526E+03 
  43876.5376     0.11531E+03 
  43908.7998     0.11536E+03 
  43941.0619     0.11541E+03 
  43973.3241     0.11545E+03 
  44005.5862     0.11549E+03 
  44037.8484     0.11553E+03 
  44070.1106     0.11557E+03 
  44102.3727     0.11560E+03 
  44134.6349     0.11563E+03 
  44166.8970     0.11566E+03 
  44199.1592     0.11569E+03 
  44231.4214     0.11572E+03 
  44263.6835     0.11574E+03 
  44295.9457     0.11576E+03 
  44328.2078     0.11578E+03 
  44360.4700     0.11580E+03 
  44392.7322     0.11581E+03 
  44424.9943     0.11583E+03 
  44457.2565     0.11584E+03 
  44489.5186     0.11585E+03 
  44521.7808     0.11585E+03 
  44554.0430     0.11586E+03 
  44586.3051     0.11586E+03 
  44618.5673     0.11586E+03 
  44650.8294     0.11586E+03 
  44683.0916     0.11585E+03 
  44715.3538     0.11585E+03 
  44747.6159     0.11584E+03 
  44779.8781     0.11583E+03 
  44812.1402     0.11581E+03 
  44844.4024     0.11580E+03 
  44876.6646     0.11578E+03 
  44908.9267     0.11576E+03 
  44941.1889     0.11574E+03 
  44973.4510     0.11572E+03 
  45005.7132     0.11569E+03 
  45037.9754     0.11566E+03 
  45070.2375     0.11563E+03 
  45102.4997     0.11560E+03 
  45134.7618     0.11557E+03 
  45167.0240     0.11553E+03 
  45199.2862     0.11549E+03 
  45231.5483     0.11545E+03 
  45263.8105     0.11541E+03 
  45296.0726     0.11536E+03 
  45328.3348     0.11532E+03 
  45360.5970     0.11527E+03 
  45392.8591     0.11522E+03 
  45425.1213     0.11516E+03 
  45457.3834     0.11511E+03 
  45489.6456     0.11505E+03 
  45521.9078     0.11499E+03 
  45554.1699     0.11493E+03 
  45586.4321     0.11487E+03 
  45618.6942     0.11480E+03 
  45650.9564     0.11473E+03 
  45683.2186     0.11466E+03 
  45715.4807     0.11459E+03 
  45747.7429     0.11452E+03 
  45780.0050     0.11444E+03 
  45812.2672     0.11437E+03 
  45844.5294     0.11429E+03 
  45876.7915     0.11421E+03 
  45909.0537     0.11412E+03 
  45941.3158     0.11404E+03 
  45973.5780     0.11395E+03 
  46005.8402     0.11386E+03 
  46038.1023     0.11377E+03 
  46070.3645     0.11367E+03 
  46102.6266     0.11358E+03 
  46134.8888     0.11348E+03 
  46167.1510     0.11338E+03 
  46199.4131     0.11328E+03 
  46231.6753     0.11318E+03 
  46263.9374     0.11307E+03 
  46296.1996     0.11296E+03 
  46328.4618     0.11285E+03 
  46360.7239     0.11274E+03 
  46392.9861     0.11263E+03 
  46425.2482     0.11251E+03 
  46457.5104     0.11240E+03 
  46489.7726     0.11228E+03 
  46522.0347     0.11216E+03 
  46554.2969     0.11204E+03 
  46586.5590     0.11191E+03 
  46618.8212     0.11178E+03 
  46651.0834     0.11166E+03 
  46683.3455     0.11153E+03 
  46715.6077     0.11140E+03 
  46747.8698     0.11126E+03 
  46780.1320     0.11113E+03 
  46812.3942     0.11099E+03 
  46844.6563     0.11085E+03 
  46876.9185     0.11071E+03 
  46909.1806     0.11057E+03 
  46941.4428     0.11042E+03 
  46973.7050     0.11028E+03 
  47005.9671     0.11013E+03 
  47038.2293     0.10998E+03 
  47070.4914     0.10983E+03 
  47102.7536     0.10967E+03 
  47135.0158     0.10952E+03 
  47167.2779     0.10936E+03 
  47199.5401     0.10920E+03 
  47231.8022     0.10904E+03 
  47264.0644     0.10888E+03 
  47296.3266     0.10872E+03 
  47328.5887     0.10855E+03 
  47360.8509     0.10839E+03 
  47393.1130     0.10822E+03 
  47425.3752     0.10805E+03 
  47457.6374     0.10788E+03 
  47489.8995     0.10770E+03 
  47522.1617     0.10753E+03 
  47554.4238     0.10735E+03 
  47586.6860     0.10717E+03 
  47618.9482     0.10699E+03 
  47651.2103     0.10681E+03 
  47683.4725     0.10663E+03 
  47715.7346     0.10644E+03 
  47747.9968     0.10626E+03 
  47780.2590     0.10607E+03 
  47812.5211     0.10588E+03 
  47844.7833     0.10569E+03 
  47877.0454     0.10550E+03 
  47909.3076     0.10530E+03 
  47941.5698     0.10511E+03 
  47973.8319     0.10491E+03 
  48006.0941     0.10471E+03 
  48038.3562     0.10451E+03 
  48070.6184     0.10431E+03 
  48102.8806     0.10411E+03 
  48135.1427     0.10390E+03 
  48167.4049     0.10370E+03 
  48199.6670     0.10349E+03 
  48231.9292     0.10328E+03 
  48264.1914     0.10307E+03 
  48296.4535     0.10286E+03 
  48328.7157     0.10265E+03 
  48360.9778     0.10244E+03 
  48393.2400     0.10222E+03 
  48425.5022     0.10200E+03 
  48457.7643     0.10178E+03 
  48490.0265     0.10157E+03 
  48522.2886     0.10134E+03 
  48554.5508     0.10112E+03 
  48586.8130     0.10090E+03 
  48619.0751     0.10067E+03 
  48651.3373     0.10045E+03 
  48683.5994     0.10022E+03 
  48715.8616     0.99993E+02 
  48748.1238     0.99764E+02 
  48780.3859     0.99533E+02 
  48812.6481     0.99301E+02 
  48844.9102     0.99067E+02 
  48877.1724     0.98833E+02 
  48909.4346     0.98597E+02 
  48941.6967     0.98360E+02 
  48973.9589     0.98122E+02 
  49006.2210     0.97883E+02 
  49038.4832     0.97643E+02 
  49070.7454     0.97401E+02 
  49103.0075     0.97158E+02 
  49135.2697     0.96915E+02 
  49167.5318     0.96670E+02 
  49199.7940     0.96424E+02 
  49232.0562     0.96177E+02 
  49264.3183     0.95929E+02 
  49296.5805     0.95679E+02 
  49328.8426     0.95429E+02 
  49361.1048     0.95178E+02 
  49393.3670     0.94925E+02 
  49425.6291     0.94672E+02 
  49457.8913     0.94418E+02 
  49490.1534     0.94162E+02 
  49522.4156     0.93906E+02 
  49554.6778     0.93649E+02 
  49586.9399     0.93390E+02 
  49619.2021     0.93131E+02 
  49651.4642     0.92871E+02 
  49683.7264     0.92610E+02 
  49715.9886     0.92348E+02 
  49748.2507     0.92085E+02 
  49780.5129     0.91821E+02 
  49812.7750     0.91556E+02 
  49845.0372     0.91291E+02 
  49877.2994     0.91024E+02 
  49909.5615     0.90757E+02 
  49941.8237     0.90488E+02 
  49974.0858     0.90219E+02 
  50006.3480     0.89950E+02 
  50038.6102     0.89679E+02 
  50070.8723     0.89407E+02 
  50103.1345     0.89135E+02 
  50135.3966     0.88862E+02 
  50167.6588     0.88588E+02 
  50199.9210     0.88314E+02 
  50232.1831     0.88038E+02 
  50264.4453     0.87762E+02 
  50296.7074     0.87485E+02 
  50328.9696     0.87208E+02 
  50361.2318     0.86930E+02 
  50393.4939     0.86651E+02 
  50425.7561     0.86371E+02 
  50458.0182     0.86091E+02 
  50490.2804     0.85810E+02 
  50522.5426     0.85528E+02 
  50554.8047     0.85246E+02 
  50587.0669     0.84963E+02 
  50619.3290     0.84680E+02 
  50651.5912     0.84396E+02 
  50683.8534     0.84111E+02 
  50716.1155     0.83826E+02 
  50748.3777     0.83540E+02 
  50780.6398     0.83254E+02 
  50812.9020     0.82967E+02 
  50845.1642     0.82679E+02 
  50877.4263     0.82391E+02 
  50909.6885     0.82103E+02 
  50941.9506     0.81814E+02 
  50974.2128     0.81524E+02 
  51006.4750     0.81234E+02 
  51038.7371     0.80943E+02 
  51070.9993     0.80652E+02 
  51103.2614     0.80361E+02 
  51135.5236     0.80069E+02 
  51167.7858     0.79776E+02 
  51200.0479     0.79484E+02 
  51232.3101     0.79190E+02 
  51264.5722     0.78897E+02 
  51296.8344     0.78603E+02 
  51329.0966     0.78308E+02 
  51361.3587     0.78013E+02 
  51393.6209     0.77718E+02 
  51425.8830     0.77423E+02 
  51458.1452     0.77127E+02 
  51490.4074     0.76830E+02 
  51522.6695     0.76534E+02 
  51554.9317     0.76237E+02 
  51587.1938     0.75940E+02 
  51619.4560     0.75642E+02 
  51651.7182     0.75345E+02 
  51683.9803     0.75046E+02 
  51716.2425     0.74748E+02 
  51748.5046     0.74449E+02 
  51780.7668     0.74151E+02 
  51813.0290     0.73852E+02 
  51845.2911     0.73552E+02 
  51877.5533     0.73253E+02 
  51909.8154     0.72953E+02 
  51942.0776     0.72653E+02 
  51974.3398     0.72353E+02 
  52006.6019     0.72052E+02 
  52038.8641     0.71752E+02 
  52071.1262     0.71451E+02 
  52103.3884     0.71150E+02 
  52135.6506     0.70849E+02 
  52167.9127     0.70548E+02 
  52200.1749     0.70247E+02 
  52232.4370     0.69946E+02 
  52264.6992     0.69644E+02 
  52296.9614     0.69343E+02 
  52329.2235     0.69041E+02 
  52361.4857     0.68739E+02 
  52393.7478     0.68437E+02 
  52426.0100     0.68135E+02 
  52458.2722     0.67833E+02 
  52490.5343     0.67531E+02 
  52522.7965     0.67229E+02 
  52555.0586     0.66927E+02 
  52587.3208     0.66625E+02 
  52619.5830     0.66323E+02 
  52651.8451     0.66021E+02 
  52684.1073     0.65719E+02 
  52716.3694     0.65417E+02 
  52748.6316     0.65115E+02 
  52780.8938     0.64813E+02 
  52813.1559     0.64511E+02 
  52845.4181     0.64209E+02 
  52877.6802     0.63907E+02 
  52909.9424     0.63605E+02 
  52942.2046     0.63303E+02 
  52974.4667     0.63002E+02 
  53006.7289     0.62700E+02 
  53038.9910     0.62399E+02 
  53071.2532     0.62097E+02 
  53103.5154     0.61796E+02 
  53135.7775     0.61495E+02 
  53168.0397     0.61194E+02 
  53200.3018     0.60893E+02 
  53232.5640     0.60592E+02 
  53264.8262     0.60292E+02 
  53297.0883     0.59991E+02 
  53329.3505     0.59691E+02 
  53361.6126     0.59391E+02 
  53393.8748     0.59091E+02 
  53426.1370     0.58792E+02 
  53458.3991     0.58492E+02 
  53490.6613     0.58193E+02 
  53522.9234     0.57894E+02 
  53555.1856     0.57595E+02 
  53587.4478     0.57297E+02 
  53619.7099     0.56998E+02 
  53651.9721     0.56700E+02 
  53684.2342     0.56402E+02 
  53716.4964     0.56105E+02 
  53748.7586     0.55808E+02 
  53781.0207     0.55510E+02 
  53813.2829     0.55214E+02 
  53845.5450     0.54917E+02 
  53877.8072     0.54621E+02 
  53910.0694     0.54325E+02 
  53942.3315     0.54030E+02 
  53974.5937     0.53735E+02 
  54006.8558     0.53440E+02 
  54039.1180     0.53145E+02 
  54071.3802     0.52851E+02 
  54103.6423     0.52557E+02 
  54135.9045     0.52264E+02 
  54168.1666     0.51970E+02 
  54200.4288     0.51678E+02 
  54232.6910     0.51385E+02 
  54264.9531     0.51093E+02 
  54297.2153     0.50802E+02 
  54329.4774     0.50510E+02 
  54361.7396     0.50220E+02 
  54394.0018     0.49929E+02 
  54426.2639     0.49639E+02 
  54458.5261     0.49350E+02 
  54490.7882     0.49060E+02 
  54523.0504     0.48772E+02 
  54555.3126     0.48483E+02 
  54587.5747     0.48196E+02 
  54619.8369     0.47908E+02 
  54652.0990     0.47621E+02 
  54684.3612     0.47335E+02 
  54716.6234     0.47049E+02 
  54748.8855     0.46763E+02 
  54781.1477     0.46478E+02 
  54813.4098     0.46194E+02 
  54845.6720     0.45910E+02 
  54877.9342     0.45626E+02 
  54910.1963     0.45343E+02 
  54942.4585     0.45061E+02 
  54974.7206     0.44779E+02 
  55006.9828     0.44497E+02 
  55039.2450     0.44216E+02 
  55071.5071     0.43936E+02 
  55103.7693     0.43656E+02 
  55136.0314     0.43377E+02 
  55168.2936     0.43098E+02 
  55200.5558     0.42820E+02 
  55232.8179     0.42542E+02 
  55265.0801     0.42265E+02 
  55297.3422     0.41989E+02 
  55329.6044     0.41713E+02 
  55361.8666     0.41438E+02 
  55394.1287     0.41163E+02 
  55426.3909     0.40889E+02 
  55458.6530     0.40615E+02 
  55490.9152     0.40342E+02 
  55523.1774     0.40070E+02 
  55555.4395     0.39798E+02 
  55587.7017     0.39527E+02 
  55619.9638     0.39257E+02 
  55652.2260     0.38987E+02 
  55684.4882     0.38718E+02 
  55716.7503     0.38450E+02 
  55749.0125     0.38182E+02 
  55781.2746     0.37915E+02 
  55813.5368     0.37648E+02 
  55845.7990     0.37383E+02 
  55878.0611     0.37118E+02 
  55910.3233     0.36853E+02 
  55942.5854     0.36589E+02 
  55974.8476     0.36326E+02 
  56007.1098     0.36064E+02 
  56039.3719     0.35802E+02 
  56071.6341     0.35542E+02 
  56103.8962     0.35281E+02 
  56136.1584     0.35022E+02 
  56168.4206     0.34763E+02 
  56200.6827     0.34505E+02 
  56232.9449     0.34248E+02 
  56265.2070     0.33991E+02 
  56297.4692     0.33735E+02 
  56329.7314     0.33480E+02 
  56361.9935     0.33226E+02 
  56394.2557     0.32973E+02 
  56426.5178     0.32720E+02 
  56458.7800     0.32468E+02 
  56491.0422     0.32217E+02 
  56523.3043     0.31966E+02 
  56555.5665     0.31717E+02 
  56587.8286     0.31468E+02 
  56620.0908     0.31220E+02 
  56652.3530     0.30972E+02 
  56684.6151     0.30726E+02 
  56716.8773     0.30480E+02 
  56749.1394     0.30236E+02 
  56781.4016     0.29992E+02 
  56813.6638     0.29748E+02 
  56845.9259     0.29506E+02 
  56878.1881     0.29265E+02 
  56910.4502     0.29024E+02 
  56942.7124     0.28784E+02 
  56974.9746     0.28545E+02 
  57007.2367     0.28307E+02 
  57039.4989     0.28070E+02 
  57071.7610     0.27834E+02 
  57104.0232     0.27598E+02 
  57136.2854     0.27364E+02 
  57168.5475     0.27130E+02 
  57200.8097     0.26898E+02 
  57233.0718     0.26666E+02 
  57265.3340     0.26435E+02 
  57297.5962     0.26205E+02 
  57329.8583     0.25976E+02 
  57362.1205     0.25748E+02 
  57394.3826     0.25520E+02 
  57426.6448     0.25294E+02 
  57458.9070     0.25069E+02 
  57491.1691     0.24844E+02 
  57523.4313     0.24621E+02 
  57555.6934     0.24398E+02 
  57587.9556     0.24177E+02 
  57620.2178     0.23956E+02 
  57652.4799     0.23737E+02 
  57684.7421     0.23518E+02 
  57717.0042     0.23300E+02 
  57749.2664     0.23084E+02 
  57781.5286     0.22868E+02 
  57813.7907     0.22654E+02 
  57846.0529     0.22440E+02 
  57878.3150     0.22227E+02 
  57910.5772     0.22016E+02 
  57942.8394     0.21805E+02 
  57975.1015     0.21596E+02 
  58007.3637     0.21387E+02 
  58039.6258     0.21180E+02 
  58071.8880     0.20974E+02 
  58104.1502     0.20769E+02 
  58136.4123     0.20564E+02 
  58168.6745     0.20361E+02 
  58200.9366     0.20159E+02 
  58233.1988     0.19959E+02 
  58265.4610     0.19759E+02 
  58297.7231     0.19560E+02 
  58329.9853     0.19363E+02 
  58362.2474     0.19166E+02 
  58394.5096     0.18971E+02 
  58426.7718     0.18777E+02 
  58459.0339     0.18584E+02 
  58491.2961     0.18392E+02 
  58523.5582     0.18201E+02 
  58555.8204     0.18012E+02 
  58588.0826     0.17823E+02 
  58620.3447     0.17636E+02 
  58652.6069     0.17450E+02 
  58684.8690     0.17266E+02 
  58717.1312     0.17082E+02 
  58749.3934     0.16900E+02 
  58781.6555     0.16719E+02 
  58813.9177     0.16539E+02 
  58846.1798     0.16360E+02 
  58878.4420     0.16183E+02 
  58910.7042     0.16007E+02 
  58942.9663     0.15832E+02 
  58975.2285     0.15659E+02 
  59007.4906     0.15486E+02 
  59039.7528     0.15316E+02 
  59072.0150     0.15146E+02 
  59104.2771     0.14978E+02 
  59136.5393     0.14811E+02 
  59168.8014     0.14645E+02 
  59201.0636     0.14481E+02 
  59233.3258     0.14318E+02 
  59265.5879     0.14157E+02 
  59297.8501     0.13996E+02 
  59330.1122     0.13838E+02 
  59362.3744     0.13680E+02 
  59394.6366     0.13524E+02 
  59426.8987     0.13370E+02 
  59459.1609     0.13217E+02 
  59491.4230     0.13065E+02 
  59523.6852     0.12915E+02 
  59555.9474     0.12766E+02 
  59588.2095     0.12619E+02 
  59620.4717     0.12473E+02 
  59652.7338     0.12329E+02 
  59684.9960     0.12187E+02 
  59717.2582     0.12045E+02 
  59749.5203     0.11906E+02 
  59781.7825     0.11768E+02 
  59814.0446     0.11631E+02 
  59846.3068     0.11496E+02 
  59878.5690     0.11363E+02 
  59910.8311     0.11231E+02 
  59943.0933     0.11101E+02 
  59975.3554     0.10973E+02 
  60007.6176     0.10846E+02 
  60039.8798     0.10721E+02 
  60072.1419     0.10597E+02 
  60104.4041     0.10476E+02 
  60136.6662     0.10355E+02 
  60168.9284     0.10237E+02 
  60201.1906     0.10120E+02 
  60233.4527     0.10006E+02 
  60265.7149     0.98924E+01 
  60297.9770     0.97811E+01 
  60330.2392     0.96715E+01 
  60362.5014     0.95638E+01 
  60394.7635     0.94579E+01 
  60427.0257     0.93538E+01 
  60459.2878     0.92516E+01 
  60491.5500     0.91513E+01 
  60523.8122     0.90529E+01 
  60556.0743     0.89563E+01 
  60588.3365     0.88617E+01 
  60620.5986     0.87691E+01 
  60652.8608     0.86784E+01 
  60685.1230     0.85896E+01 
  60717.3851     0.85029E+01 
  60749.6473     0.84182E+01 
  60781.9094     0.83355E+01 
  60814.1716     0.82549E+01 
  60846.4338     0.81764E+01 
  60878.6959     0.80999E+01 
  60910.9581     0.80256E+01 
  60943.2202     0.79533E+01 
  60975.4824     0.78833E+01 
  61007.7446     0.78154E+01 
  61040.0067     0.77497E+01 
  61072.2689     0.76862E+01 
  61104.5310     0.76249E+01 
  61136.7932     0.75659E+01 
  61169.0554     0.75092E+01 
  61201.3175     0.74548E+01 
  61233.5797     0.74026E+01 
  61265.8418     0.73529E+01 
  61298.1040     0.73055E+01 
  61330.3662     0.72604E+01 
  61362.6283     0.72178E+01 
  61394.8905     0.71776E+01 
  61427.1526     0.71399E+01 
  61459.4148     0.71047E+01 
  61491.6770     0.70719E+01 
  61523.9391     0.70417E+01 
  61556.2013     0.70140E+01 
  61588.4634     0.69889E+01 
  61620.7256     0.69664E+01 
  61652.9878     0.69466E+01 
  61685.2499     0.69294E+01 
  61717.5121     0.69149E+01 
  61749.7742     0.69030E+01 
  61782.0364     0.68939E+01 
  61814.2986     0.68876E+01 
  61846.5607     0.68841E+01 
  61878.8229     0.68833E+01 
  61911.0850     0.68855E+01 
  61943.3472     0.68904E+01 
  61975.6094     0.68983E+01 
  62007.8715     0.69091E+01 
  62040.1337     0.69229E+01 
  62072.3958     0.69396E+01 
  62104.6580     0.69594E+01 
  62136.9202     0.69822E+01 
  62169.1823     0.70081E+01 
  62201.4445     0.70370E+01 
  62233.7066     0.70692E+01 
  62265.9688     0.71044E+01 
  62298.2310     0.71429E+01 
  62330.4931     0.71846E+01 
  62362.7553     0.72296E+01 
  62395.0174     0.72779E+01 
  62427.2796     0.73295E+01 
  62459.5418     0.73844E+01 
  62491.8039     0.74428E+01 
  62524.0661     0.75046E+01 
  62556.3282     0.75698E+01 
  62588.5904     0.76386E+01 
  62620.8526     0.77108E+01 
  62653.1147     0.77867E+01 
  62685.3769     0.78661E+01 
  62717.6390     0.79492E+01 
  62749.9012     0.80359E+01 
  62782.1634     0.81264E+01 
  62814.4255     0.82206E+01 
  62846.6877     0.83185E+01 
  62878.9498     0.84203E+01 
  62911.2120     0.85260E+01 
  62943.4742     0.86356E+01 
  62975.7363     0.87491E+01 
  63007.9985     0.88665E+01 
  63040.2606     0.89880E+01 
  63072.5228     0.91136E+01 
  63104.7850     0.92432E+01 
  63137.0471     0.93769E+01 
  63169.3093     0.95149E+01 
  63201.5714     0.96570E+01 
  63233.8336     0.98034E+01 
  63266.0958     0.99541E+01 
  63298.3579     0.10109E+02 
  63330.6201     0.10269E+02 
  63362.8822     0.10432E+02 
  63395.1444     0.10601E+02 
  63427.4066     0.10774E+02 
  63459.6687     0.10951E+02 
  63491.9309     0.11133E+02 
  63524.1930     0.11320E+02 
  63556.4552     0.11511E+02 
  63588.7174     0.11707E+02 
  63620.9795     0.11908E+02 
  63653.2417     0.12113E+02 
  63685.5038     0.12324E+02 
  63717.7660     0.12539E+02 
  63750.0282     0.12760E+02 
  63782.2903     0.12985E+02 
  63814.5525     0.13216E+02 
  63846.8146     0.13451E+02 
  63879.0768     0.13692E+02 
  63911.3390     0.13938E+02 
  63943.6011     0.14189E+02 
  63975.8633     0.14446E+02 
  64008.1254     0.14708E+02 
  64040.3876     0.14975E+02 
  64072.6498     0.15248E+02 
  64104.9119     0.15526E+02 
  64137.1741     0.15810E+02 
  64169.4362     0.16099E+02 
  64201.6984     0.16394E+02 
  64233.9606     0.16695E+02 
  64266.2227     0.17002E+02 
  64298.4849     0.17314E+02 
  64330.7470     0.17633E+02 
  64363.0092     0.17957E+02 
  64395.2714     0.18287E+02 
  64427.5335     0.18623E+02 
  64459.7957     0.18965E+02 
  64492.0578     0.19314E+02 
  64524.3200     0.19669E+02 
  64556.5822     0.20030E+02 
  64588.8443     0.20397E+02 
  64621.1065     0.20770E+02 
  64653.3686     0.21151E+02 
  64685.6308     0.21537E+02 
  64717.8930     0.21930E+02 
  64750.1551     0.22330E+02 
  64782.4173     0.22736E+02 
  64814.6794     0.23149E+02 
  64846.9416     0.23569E+02 
  64879.2038     0.23996E+02 
  64911.4659     0.24429E+02 
  64943.7281     0.24870E+02 
  64975.9902     0.25318E+02 
  65008.2524     0.25772E+02 
  65040.5146     0.26234E+02 
  65072.7767     0.26703E+02 
  65105.0389     0.27179E+02 
  65137.3010     0.27663E+02 
  65169.5632     0.28154E+02 
  65201.8254     0.28653E+02 
  65234.0875     0.29158E+02 
  65266.3497     0.29672E+02 
  65298.6118     0.30193E+02 
  65330.8740     0.30722E+02 
  65363.1362     0.31259E+02 
  65395.3983     0.31803E+02 
  65427.6605     0.32356E+02 
  65459.9226     0.32916E+02 
  65492.1848     0.33484E+02 
  65524.4470     0.34061E+02 
  65556.7091     0.34646E+02 
  65588.9713     0.35239E+02 
  65621.2334     0.35840E+02 
  65653.4956     0.36449E+02 
  65685.7578     0.37067E+02 
  65718.0199     0.37694E+02 
  65750.2821     0.38329E+02 
  65782.5442     0.38972E+02 
  65814.8064     0.39625E+02 
  65847.0686     0.40286E+02 
  65879.3307     0.40956E+02 
  65911.5929     0.41635E+02 
  65943.8550     0.42322E+02 
  65976.1172     0.43019E+02 
  66008.3794     0.43725E+02 
  66040.6415     0.44440E+02 
  66072.9037     0.45165E+02 
  66105.1658     0.45899E+02 
  66137.4280     0.46642E+02 
  66169.6902     0.47394E+02 
  66201.9523     0.48156E+02 
  66234.2145     0.48928E+02 
  66266.4766     0.49710E+02 
  66298.7388     0.50501E+02 
  66331.0010     0.51302E+02 
  66363.2631     0.52112E+02 
  66395.5253     0.52933E+02 
  66427.7874     0.53764E+02 
  66460.0496     0.54605E+02 
  66492.3118     0.55456E+02 
  66524.5739     0.56317E+02 
  66556.8361     0.57189E+02 
  66589.0982     0.58071E+02 
  66621.3604     0.58964E+02 
  66653.6226     0.59867E+02 
  66685.8847     0.60780E+02 
  66718.1469     0.61705E+02 
  66750.4090     0.62640E+02 
  66782.6712     0.63586E+02 
  66814.9334     0.64542E+02 
  66847.1955     0.65510E+02 
  66879.4577     0.66489E+02 
  66911.7198     0.67479E+02 
  66943.9820     0.68480E+02 
  66976.2442     0.69493E+02 
  67008.5063     0.70516E+02 
  67040.7685     0.71551E+02 
  67073.0306     0.72598E+02 
  67105.2928     0.73656E+02 
  67137.5550     0.74726E+02 
  67169.8171     0.75808E+02 
  67202.0793     0.76901E+02 
  67234.3414     0.78006E+02 
  67266.6036     0.79123E+02 
  67298.8658     0.80252E+02 
  67331.1279     0.81394E+02 
  67363.3901     0.82547E+02 
  67395.6522     0.83712E+02 
  67427.9144     0.84890E+02 
  67460.1766     0.86080E+02 
  67492.4387     0.87283E+02 
  67524.7009     0.88498E+02 
  67556.9630     0.89726E+02 
  67589.2252     0.90966E+02 
  67621.4874     0.92220E+02 
  67653.7495     0.93486E+02 
  67686.0117     0.94764E+02 
  67718.2738     0.96056E+02 
  67750.5360     0.97361E+02 
  67782.7982     0.98679E+02 
  67815.0603     0.10001E+03 
  67847.3225     0.10135E+03 
  67879.5846     0.10271E+03 
  67911.8468     0.10408E+03 
  67944.1090     0.10547E+03 
  67976.3711     0.10687E+03 
  68008.6333     0.10828E+03 
  68040.8954     0.10970E+03 
  68073.1576     0.11114E+03 
  68105.4198     0.11259E+03 
  68137.6819     0.11406E+03 
  68169.9441     0.11554E+03 
  68202.2062     0.11704E+03 
  68234.4684     0.11854E+03 
  68266.7306     0.12007E+03 
  68298.9927     0.12160E+03 
  68331.2549     0.12316E+03 
  68363.5170     0.12472E+03 
  68395.7792     0.12630E+03 
  68428.0414     0.12790E+03 
  68460.3035     0.12951E+03 
  68492.5657     0.13113E+03 
  68524.8278     0.13277E+03 
  68557.0900     0.13442E+03 
  68589.3522     0.13609E+03 
  68621.6143     0.13777E+03 
  68653.8765     0.13947E+03 
  68686.1386     0.14118E+03 
  68718.4008     0.14291E+03 
  68750.6630     0.14465E+03 
  68782.9251     0.14641E+03 
  68815.1873     0.14819E+03 
  68847.4494     0.14998E+03 
  68879.7116     0.15178E+03 
  68911.9738     0.15360E+03 
  68944.2359     0.15543E+03 
  68976.4981     0.15729E+03 
  69008.7602     0.15915E+03 
  69041.0224     0.16103E+03 
  69073.2846     0.16293E+03 
  69105.5467     0.16485E+03 
  69137.8089     0.16678E+03 
  69170.0710     0.16872E+03 
  69202.3332     0.17068E+03 
  69234.5954     0.17266E+03 
  69266.8575     0.17465E+03 
  69299.1197     0.17666E+03 
  69331.3818     0.17869E+03 
  69363.6440     0.18073E+03 
  69395.9062     0.18279E+03 
  69428.1683     0.18487E+03 
  69460.4305     0.18696E+03 
  69492.6926     0.18907E+03 
  69524.9548     0.19119E+03 
  69557.2170     0.19333E+03 
  69589.4791     0.19549E+03 
  69621.7413     0.19766E+03 
  69654.0034     0.19985E+03 
  69686.2656     0.20206E+03 
  69718.5278     0.20429E+03 
  69750.7899     0.20653E+03 
  69783.0521     0.20879E+03 
  69815.3142     0.21106E+03 
  69847.5764     0.21335E+03 
  69879.8386     0.21566E+03 
  69912.1007     0.21799E+03 
  69944.3629     0.22033E+03 
  69976.6250     0.22269E+03 
  70008.8872     0.22507E+03 
  70041.1494     0.22747E+03 
  70073.4115     0.22988E+03 
  70105.6737     0.23231E+03 
  70137.9358     0.23475E+03 
  70170.1980     0.23722E+03 
  70202.4602     0.23970E+03 
  70234.7223     0.24220E+03 
  70266.9845     0.24471E+03 
  70299.2466     0.24725E+03 
  70331.5088     0.24980E+03 
  70363.7710     0.25237E+03 
  70396.0331     0.25496E+03 
  70428.2953     0.25756E+03 
  70460.5574     0.26018E+03 
  70492.8196     0.26282E+03 
  70525.0818     0.26548E+03 
  70557.3439     0.26815E+03 
  70589.6061     0.27084E+03 
  70621.8682     0.27356E+03 
  70654.1304     0.27628E+03 
  70686.3926     0.27903E+03 
  70718.6547     0.28179E+03 
  70750.9169     0.28457E+03 
  70783.1790     0.28737E+03 
  70815.4412     0.29019E+03 
  70847.7034     0.29303E+03 
  70879.9655     0.29588E+03 
  70912.2277     0.29875E+03 
  70944.4898     0.30164E+03 
  70976.7520     0.30454E+03 
  71009.0142     0.30747E+03 
  71041.2763     0.31041E+03 
  71073.5385     0.31337E+03 
  71105.8006     0.31635E+03 
  71138.0628     0.31935E+03 
  71170.3250     0.32236E+03 
  71202.5871     0.32539E+03 
  71234.8493     0.32844E+03 
  71267.1114     0.33151E+03 
  71299.3736     0.33460E+03 
  71331.6358     0.33770E+03 
  71363.8979     0.34082E+03 
  71396.1601     0.34396E+03 
  71428.4222     0.34712E+03 
  71460.6844     0.35029E+03 
  71492.9466     0.35349E+03 
  71525.2087     0.35670E+03 
  71557.4709     0.35993E+03 
  71589.7330     0.36317E+03 
  71621.9952     0.36644E+03 
  71654.2574     0.36972E+03 
  71686.5195     0.37302E+03 
  71718.7817     0.37634E+03 
  71751.0438     0.37968E+03 
  71783.3060     0.38303E+03 
  71815.5682     0.38640E+03 
  71847.8303     0.38979E+03 
  71880.0925     0.39320E+03 
  71912.3546     0.39662E+03 
  71944.6168     0.40006E+03 
  71976.8790     0.40352E+03 
  72009.1411     0.40700E+03 
  72041.4033     0.41050E+03 
  72073.6654     0.41401E+03 
  72105.9276     0.41754E+03 
  72138.1898     0.42109E+03 
  72170.4519     0.42465E+03 
  72202.7141     0.42823E+03 
  72234.9762     0.43183E+03 
  72267.2384     0.43545E+03 
  72299.5006     0.43908E+03 
  72331.7627     0.44273E+03 
  72364.0249     0.44640E+03 
  72396.2870     0.45009E+03 
  72428.5492     0.45379E+03 
  72460.8114     0.45751E+03 
  72493.0735     0.46125E+03 
  72525.3357     0.46500E+03 
  72557.5978     0.46877E+03 
  72589.8600     0.47256E+03 
