  32262.1600     0.20724E-02 
  32294.4222     0.20929E-02 
  32326.6843     0.21136E-02 
  32358.9465     0.21344E-02 
  32391.2086     0.21553E-02 
  32423.4708     0.21764E-02 
  32455.7330     0.21976E-02 
  32487.9951     0.22189E-02 
  32520.2573     0.22403E-02 
  32552.5194     0.22619E-02 
  32584.7816     0.22836E-02 
  32617.0438     0.23054E-02 
  32649.3059     0.23273E-02 
  32681.5681     0.23494E-02 
  32713.8302     0.23716E-02 
  32746.0924     0.23940E-02 
  32778.3546     0.24164E-02 
  32810.6167     0.24390E-02 
  32842.8789     0.24617E-02 
  32875.1410     0.24846E-02 
  32907.4032     0.25076E-02 
  32939.6654     0.25306E-02 
  32971.9275     0.25539E-02 
  33004.1897     0.25772E-02 
  33036.4518     0.26007E-02 
  33068.7140     0.26243E-02 
  33100.9762     0.26480E-02 
  33133.2383     0.26718E-02 
  33165.5005     0.26958E-02 
  33197.7626     0.27199E-02 
  33230.0248     0.27441E-02 
  33262.2870     0.27684E-02 
  33294.5491     0.27929E-02 
  33326.8113     0.28175E-02 
  33359.0734     0.28422E-02 
  33391.3356     0.28670E-02 
  33423.5978     0.28919E-02 
  33455.8599     0.29170E-02 
  33488.1221     0.29422E-02 
  33520.3842     0.29675E-02 
  33552.6464     0.29929E-02 
  33584.9086     0.30184E-02 
  33617.1707     0.30441E-02 
  33649.4329     0.30698E-02 
  33681.6950     0.30957E-02 
  33713.9572     0.31217E-02 
  33746.2194     0.31478E-02 
  33778.4815     0.31740E-02 
  33810.7437     0.32004E-02 
  33843.0058     0.32268E-02 
  33875.2680     0.32534E-02 
  33907.5302     0.32801E-02 
  33939.7923     0.33069E-02 
  33972.0545     0.33338E-02 
  34004.3166     0.33608E-02 
  34036.5788     0.33879E-02 
  34068.8410     0.34151E-02 
  34101.1031     0.34424E-02 
  34133.3653     0.34699E-02 
  34165.6274     0.34974E-02 
  34197.8896     0.35251E-02 
  34230.1518     0.35528E-02 
  34262.4139     0.35807E-02 
  34294.6761     0.36086E-02 
  34326.9382     0.36367E-02 
  34359.2004     0.36648E-02 
  34391.4626     0.36931E-02 
  34423.7247     0.37215E-02 
  34455.9869     0.37499E-02 
  34488.2490     0.37785E-02 
  34520.5112     0.38071E-02 
  34552.7734     0.38359E-02 
  34585.0355     0.38647E-02 
  34617.2977     0.38937E-02 
  34649.5598     0.39227E-02 
  34681.8220     0.39518E-02 
  34714.0842     0.39810E-02 
  34746.3463     0.40103E-02 
  34778.6085     0.40397E-02 
  34810.8706     0.40692E-02 
  34843.1328     0.40987E-02 
  34875.3950     0.41284E-02 
  34907.6571     0.41581E-02 
  34939.9193     0.41879E-02 
  34972.1814     0.42178E-02 
  35004.4436     0.42478E-02 
  35036.7058     0.42779E-02 
  35068.9679     0.43080E-02 
  35101.2301     0.43382E-02 
  35133.4922     0.43685E-02 
  35165.7544     0.43989E-02 
  35198.0166     0.44293E-02 
  35230.2787     0.44598E-02 
  35262.5409     0.44904E-02 
  35294.8030     0.45211E-02 
  35327.0652     0.45518E-02 
  35359.3274     0.45826E-02 
  35391.5895     0.46135E-02 
  35423.8517     0.46444E-02 
  35456.1138     0.46754E-02 
  35488.3760     0.47065E-02 
  35520.6382     0.47376E-02 
  35552.9003     0.47688E-02 
  35585.1625     0.48000E-02 
  35617.4246     0.48313E-02 
  35649.6868     0.48627E-02 
  35681.9490     0.48941E-02 
  35714.2111     0.49255E-02 
  35746.4733     0.49571E-02 
  35778.7354     0.49886E-02 
  35810.9976     0.50203E-02 
  35843.2598     0.50519E-02 
  35875.5219     0.50837E-02 
  35907.7841     0.51154E-02 
  35940.0462     0.51472E-02 
  35972.3084     0.51791E-02 
  36004.5706     0.52110E-02 
  36036.8327     0.52429E-02 
  36069.0949     0.52749E-02 
  36101.3570     0.53069E-02 
  36133.6192     0.53389E-02 
  36165.8814     0.53710E-02 
  36198.1435     0.54031E-02 
  36230.4057     0.54353E-02 
  36262.6678     0.54675E-02 
  36294.9300     0.54997E-02 
  36327.1922     0.55319E-02 
  36359.4543     0.55642E-02 
  36391.7165     0.55964E-02 
  36423.9786     0.56287E-02 
  36456.2408     0.56611E-02 
  36488.5030     0.56934E-02 
  36520.7651     0.57258E-02 
  36553.0273     0.57582E-02 
  36585.2894     0.57906E-02 
  36617.5516     0.58230E-02 
  36649.8138     0.58554E-02 
  36682.0759     0.58878E-02 
  36714.3381     0.59203E-02 
  36746.6002     0.59527E-02 
  36778.8624     0.59852E-02 
  36811.1246     0.60176E-02 
  36843.3867     0.60501E-02 
  36875.6489     0.60825E-02 
  36907.9110     0.61150E-02 
  36940.1732     0.61474E-02 
  36972.4354     0.61799E-02 
  37004.6975     0.62123E-02 
  37036.9597     0.62448E-02 
  37069.2218     0.62772E-02 
  37101.4840     0.63096E-02 
  37133.7462     0.63420E-02 
  37166.0083     0.63744E-02 
  37198.2705     0.64068E-02 
  37230.5326     0.64391E-02 
  37262.7948     0.64715E-02 
  37295.0570     0.65038E-02 
  37327.3191     0.65361E-02 
  37359.5813     0.65683E-02 
  37391.8434     0.66006E-02 
  37424.1056     0.66328E-02 
  37456.3678     0.66650E-02 
  37488.6299     0.66971E-02 
  37520.8921     0.67293E-02 
  37553.1542     0.67613E-02 
  37585.4164     0.67934E-02 
  37617.6786     0.68254E-02 
  37649.9407     0.68574E-02 
  37682.2029     0.68893E-02 
  37714.4650     0.69212E-02 
  37746.7272     0.69531E-02 
  37778.9894     0.69849E-02 
  37811.2515     0.70166E-02 
  37843.5137     0.70483E-02 
  37875.7758     0.70800E-02 
  37908.0380     0.71116E-02 
  37940.3002     0.71431E-02 
  37972.5623     0.71746E-02 
  38004.8245     0.72060E-02 
  38037.0866     0.72374E-02 
  38069.3488     0.72687E-02 
  38101.6110     0.72999E-02 
  38133.8731     0.73311E-02 
  38166.1353     0.73622E-02 
  38198.3974     0.73932E-02 
  38230.6596     0.74242E-02 
  38262.9218     0.74551E-02 
  38295.1839     0.74859E-02 
  38327.4461     0.75167E-02 
  38359.7082     0.75474E-02 
  38391.9704     0.75780E-02 
  38424.2326     0.76085E-02 
  38456.4947     0.76389E-02 
  38488.7569     0.76693E-02 
  38521.0190     0.76995E-02 
  38553.2812     0.77297E-02 
  38585.5434     0.77598E-02 
  38617.8055     0.77898E-02 
  38650.0677     0.78197E-02 
  38682.3298     0.78495E-02 
  38714.5920     0.78792E-02 
  38746.8542     0.79088E-02 
  38779.1163     0.79383E-02 
  38811.3785     0.79678E-02 
  38843.6406     0.79971E-02 
  38875.9028     0.80263E-02 
  38908.1650     0.80554E-02 
  38940.4271     0.80844E-02 
  38972.6893     0.81133E-02 
  39004.9514     0.81421E-02 
  39037.2136     0.81707E-02 
  39069.4758     0.81993E-02 
  39101.7379     0.82277E-02 
  39134.0001     0.82561E-02 
  39166.2622     0.82843E-02 
  39198.5244     0.83124E-02 
  39230.7866     0.83403E-02 
  39263.0487     0.83682E-02 
  39295.3109     0.83959E-02 
  39327.5730     0.84235E-02 
  39359.8352     0.84509E-02 
  39392.0974     0.84783E-02 
  39424.3595     0.85055E-02 
  39456.6217     0.85325E-02 
  39488.8838     0.85595E-02 
  39521.1460     0.85863E-02 
  39553.4082     0.86129E-02 
  39585.6703     0.86395E-02 
  39617.9325     0.86659E-02 
  39650.1946     0.86921E-02 
  39682.4568     0.87182E-02 
  39714.7190     0.87442E-02 
  39746.9811     0.87700E-02 
  39779.2433     0.87956E-02 
  39811.5054     0.88212E-02 
  39843.7676     0.88465E-02 
  39876.0298     0.88717E-02 
  39908.2919     0.88968E-02 
  39940.5541     0.89217E-02 
  39972.8162     0.89465E-02 
  40005.0784     0.89711E-02 
  40037.3406     0.89955E-02 
  40069.6027     0.90198E-02 
  40101.8649     0.90439E-02 
  40134.1270     0.90679E-02 
  40166.3892     0.90917E-02 
  40198.6514     0.91153E-02 
  40230.9135     0.91387E-02 
  40263.1757     0.91620E-02 
  40295.4378     0.91852E-02 
  40327.7000     0.92081E-02 
  40359.9622     0.92309E-02 
  40392.2243     0.92535E-02 
  40424.4865     0.92759E-02 
  40456.7486     0.92982E-02 
  40489.0108     0.93203E-02 
  40521.2730     0.93422E-02 
  40553.5351     0.93639E-02 
  40585.7973     0.93855E-02 
  40618.0594     0.94068E-02 
  40650.3216     0.94280E-02 
  40682.5838     0.94490E-02 
  40714.8459     0.94698E-02 
  40747.1081     0.94905E-02 
  40779.3702     0.95109E-02 
  40811.6324     0.95311E-02 
  40843.8946     0.95512E-02 
  40876.1567     0.95711E-02 
  40908.4189     0.95908E-02 
  40940.6810     0.96103E-02 
  40972.9432     0.96296E-02 
  41005.2054     0.96487E-02 
  41037.4675     0.96676E-02 
  41069.7297     0.96863E-02 
  41101.9918     0.97048E-02 
  41134.2540     0.97231E-02 
  41166.5162     0.97412E-02 
  41198.7783     0.97592E-02 
  41231.0405     0.97769E-02 
  41263.3026     0.97944E-02 
  41295.5648     0.98117E-02 
  41327.8270     0.98288E-02 
  41360.0891     0.98457E-02 
  41392.3513     0.98624E-02 
  41424.6134     0.98789E-02 
  41456.8756     0.98952E-02 
  41489.1378     0.99113E-02 
  41521.3999     0.99271E-02 
  41553.6621     0.99428E-02 
  41585.9242     0.99583E-02 
  41618.1864     0.99735E-02 
  41650.4486     0.99885E-02 
  41682.7107     0.10003E-01 
  41714.9729     0.10018E-01 
  41747.2350     0.10032E-01 
  41779.4972     0.10046E-01 
  41811.7594     0.10060E-01 
  41844.0215     0.10074E-01 
  41876.2837     0.10088E-01 
  41908.5458     0.10101E-01 
  41940.8080     0.10114E-01 
  41973.0702     0.10127E-01 
  42005.3323     0.10140E-01 
  42037.5945     0.10152E-01 
  42069.8566     0.10164E-01 
  42102.1188     0.10176E-01 
  42134.3810     0.10188E-01 
  42166.6431     0.10200E-01 
  42198.9053     0.10211E-01 
  42231.1674     0.10222E-01 
  42263.4296     0.10233E-01 
  42295.6918     0.10244E-01 
  42327.9539     0.10254E-01 
  42360.2161     0.10264E-01 
  42392.4782     0.10274E-01 
  42424.7404     0.10284E-01 
  42457.0026     0.10293E-01 
  42489.2647     0.10303E-01 
  42521.5269     0.10312E-01 
  42553.7890     0.10321E-01 
  42586.0512     0.10329E-01 
  42618.3134     0.10338E-01 
  42650.5755     0.10346E-01 
  42682.8377     0.10354E-01 
  42715.0998     0.10362E-01 
  42747.3620     0.10369E-01 
  42779.6242     0.10376E-01 
  42811.8863     0.10383E-01 
  42844.1485     0.10390E-01 
  42876.4106     0.10397E-01 
  42908.6728     0.10403E-01 
  42940.9350     0.10409E-01 
  42973.1971     0.10415E-01 
  43005.4593     0.10421E-01 
  43037.7214     0.10426E-01 
  43069.9836     0.10431E-01 
  43102.2458     0.10436E-01 
  43134.5079     0.10441E-01 
  43166.7701     0.10446E-01 
  43199.0322     0.10450E-01 
  43231.2944     0.10454E-01 
  43263.5566     0.10458E-01 
  43295.8187     0.10461E-01 
  43328.0809     0.10465E-01 
  43360.3430     0.10468E-01 
  43392.6052     0.10471E-01 
  43424.8674     0.10473E-01 
  43457.1295     0.10476E-01 
  43489.3917     0.10478E-01 
  43521.6538     0.10480E-01 
  43553.9160     0.10482E-01 
  43586.1782     0.10483E-01 
  43618.4403     0.10485E-01 
  43650.7025     0.10486E-01 
  43682.9646     0.10486E-01 
  43715.2268     0.10487E-01 
  43747.4890     0.10487E-01 
  43779.7511     0.10488E-01 
  43812.0133     0.10488E-01 
  43844.2754     0.10487E-01 
  43876.5376     0.10487E-01 
  43908.7998     0.10486E-01 
  43941.0619     0.10485E-01 
  43973.3241     0.10484E-01 
  44005.5862     0.10482E-01 
  44037.8484     0.10481E-01 
  44070.1106     0.10479E-01 
  44102.3727     0.10477E-01 
  44134.6349     0.10474E-01 
  44166.8970     0.10472E-01 
  44199.1592     0.10469E-01 
  44231.4214     0.10466E-01 
  44263.6835     0.10463E-01 
  44295.9457     0.10459E-01 
  44328.2078     0.10456E-01 
  44360.4700     0.10452E-01 
  44392.7322     0.10448E-01 
  44424.9943     0.10443E-01 
  44457.2565     0.10439E-01 
  44489.5186     0.10434E-01 
  44521.7808     0.10429E-01 
  44554.0430     0.10424E-01 
  44586.3051     0.10418E-01 
  44618.5673     0.10413E-01 
  44650.8294     0.10407E-01 
  44683.0916     0.10401E-01 
  44715.3538     0.10394E-01 
  44747.6159     0.10388E-01 
  44779.8781     0.10381E-01 
  44812.1402     0.10374E-01 
  44844.4024     0.10367E-01 
  44876.6646     0.10360E-01 
  44908.9267     0.10352E-01 
  44941.1889     0.10344E-01 
  44973.4510     0.10337E-01 
  45005.7132     0.10328E-01 
  45037.9754     0.10320E-01 
  45070.2375     0.10311E-01 
  45102.4997     0.10302E-01 
  45134.7618     0.10293E-01 
  45167.0240     0.10284E-01 
  45199.2862     0.10275E-01 
  45231.5483     0.10265E-01 
  45263.8105     0.10255E-01 
  45296.0726     0.10245E-01 
  45328.3348     0.10235E-01 
  45360.5970     0.10225E-01 
  45392.8591     0.10214E-01 
  45425.1213     0.10203E-01 
  45457.3834     0.10192E-01 
  45489.6456     0.10181E-01 
  45521.9078     0.10169E-01 
  45554.1699     0.10158E-01 
  45586.4321     0.10146E-01 
  45618.6942     0.10134E-01 
  45650.9564     0.10122E-01 
  45683.2186     0.10109E-01 
  45715.4807     0.10097E-01 
  45747.7429     0.10084E-01 
  45780.0050     0.10071E-01 
  45812.2672     0.10058E-01 
  45844.5294     0.10044E-01 
  45876.7915     0.10031E-01 
  45909.0537     0.10017E-01 
  45941.3158     0.10003E-01 
  45973.5780     0.99891E-02 
  46005.8402     0.99748E-02 
  46038.1023     0.99604E-02 
  46070.3645     0.99457E-02 
  46102.6266     0.99309E-02 
  46134.8888     0.99159E-02 
  46167.1510     0.99008E-02 
  46199.4131     0.98854E-02 
  46231.6753     0.98699E-02 
  46263.9374     0.98542E-02 
  46296.1996     0.98384E-02 
  46328.4618     0.98223E-02 
  46360.7239     0.98061E-02 
  46392.9861     0.97897E-02 
  46425.2482     0.97732E-02 
  46457.5104     0.97565E-02 
  46489.7726     0.97396E-02 
  46522.0347     0.97226E-02 
  46554.2969     0.97054E-02 
  46586.5590     0.96880E-02 
  46618.8212     0.96705E-02 
  46651.0834     0.96528E-02 
  46683.3455     0.96349E-02 
  46715.6077     0.96169E-02 
  46747.8698     0.95987E-02 
  46780.1320     0.95804E-02 
  46812.3942     0.95619E-02 
  46844.6563     0.95433E-02 
  46876.9185     0.95245E-02 
  46909.1806     0.95056E-02 
  46941.4428     0.94865E-02 
  46973.7050     0.94673E-02 
  47005.9671     0.94479E-02 
  47038.2293     0.94284E-02 
  47070.4914     0.94087E-02 
  47102.7536     0.93889E-02 
  47135.0158     0.93689E-02 
  47167.2779     0.93488E-02 
  47199.5401     0.93286E-02 
  47231.8022     0.93082E-02 
  47264.0644     0.92877E-02 
  47296.3266     0.92670E-02 
  47328.5887     0.92462E-02 
  47360.8509     0.92253E-02 
  47393.1130     0.92043E-02 
  47425.3752     0.91831E-02 
  47457.6374     0.91617E-02 
  47489.8995     0.91403E-02 
  47522.1617     0.91187E-02 
  47554.4238     0.90970E-02 
  47586.6860     0.90752E-02 
  47618.9482     0.90532E-02 
  47651.2103     0.90311E-02 
  47683.4725     0.90089E-02 
  47715.7346     0.89866E-02 
  47747.9968     0.89642E-02 
  47780.2590     0.89416E-02 
  47812.5211     0.89189E-02 
  47844.7833     0.88961E-02 
  47877.0454     0.88732E-02 
  47909.3076     0.88502E-02 
  47941.5698     0.88271E-02 
  47973.8319     0.88038E-02 
  48006.0941     0.87805E-02 
  48038.3562     0.87570E-02 
  48070.6184     0.87335E-02 
  48102.8806     0.87098E-02 
  48135.1427     0.86860E-02 
  48167.4049     0.86621E-02 
  48199.6670     0.86382E-02 
  48231.9292     0.86141E-02 
  48264.1914     0.85899E-02 
  48296.4535     0.85656E-02 
  48328.7157     0.85412E-02 
  48360.9778     0.85168E-02 
  48393.2400     0.84922E-02 
  48425.5022     0.84675E-02 
  48457.7643     0.84428E-02 
  48490.0265     0.84179E-02 
  48522.2886     0.83930E-02 
  48554.5508     0.83680E-02 
  48586.8130     0.83429E-02 
  48619.0751     0.83177E-02 
  48651.3373     0.82924E-02 
  48683.5994     0.82671E-02 
  48715.8616     0.82416E-02 
  48748.1238     0.82161E-02 
  48780.3859     0.81905E-02 
  48812.6481     0.81648E-02 
  48844.9102     0.81391E-02 
  48877.1724     0.81133E-02 
  48909.4346     0.80874E-02 
  48941.6967     0.80614E-02 
  48973.9589     0.80353E-02 
  49006.2210     0.80092E-02 
  49038.4832     0.79830E-02 
  49070.7454     0.79568E-02 
  49103.0075     0.79305E-02 
  49135.2697     0.79041E-02 
  49167.5318     0.78776E-02 
  49199.7940     0.78511E-02 
  49232.0562     0.78245E-02 
  49264.3183     0.77979E-02 
  49296.5805     0.77712E-02 
  49328.8426     0.77445E-02 
  49361.1048     0.77177E-02 
  49393.3670     0.76908E-02 
  49425.6291     0.76639E-02 
  49457.8913     0.76369E-02 
  49490.1534     0.76099E-02 
  49522.4156     0.75828E-02 
  49554.6778     0.75557E-02 
  49586.9399     0.75285E-02 
  49619.2021     0.75013E-02 
  49651.4642     0.74740E-02 
  49683.7264     0.74467E-02 
  49715.9886     0.74193E-02 
  49748.2507     0.73919E-02 
  49780.5129     0.73645E-02 
  49812.7750     0.73370E-02 
  49845.0372     0.73095E-02 
  49877.2994     0.72820E-02 
  49909.5615     0.72544E-02 
  49941.8237     0.72267E-02 
  49974.0858     0.71991E-02 
  50006.3480     0.71714E-02 
  50038.6102     0.71436E-02 
  50070.8723     0.71159E-02 
  50103.1345     0.70881E-02 
  50135.3966     0.70603E-02 
  50167.6588     0.70324E-02 
  50199.9210     0.70046E-02 
  50232.1831     0.69767E-02 
  50264.4453     0.69487E-02 
  50296.7074     0.69208E-02 
  50328.9696     0.68928E-02 
  50361.2318     0.68648E-02 
  50393.4939     0.68368E-02 
  50425.7561     0.68088E-02 
  50458.0182     0.67808E-02 
  50490.2804     0.67527E-02 
  50522.5426     0.67246E-02 
  50554.8047     0.66965E-02 
  50587.0669     0.66684E-02 
  50619.3290     0.66403E-02 
  50651.5912     0.66122E-02 
  50683.8534     0.65840E-02 
  50716.1155     0.65559E-02 
  50748.3777     0.65277E-02 
  50780.6398     0.64995E-02 
  50812.9020     0.64714E-02 
  50845.1642     0.64432E-02 
  50877.4263     0.64150E-02 
  50909.6885     0.63868E-02 
  50941.9506     0.63586E-02 
  50974.2128     0.63305E-02 
  51006.4750     0.63023E-02 
  51038.7371     0.62741E-02 
  51070.9993     0.62459E-02 
  51103.2614     0.62177E-02 
  51135.5236     0.61895E-02 
  51167.7858     0.61613E-02 
  51200.0479     0.61332E-02 
  51232.3101     0.61050E-02 
  51264.5722     0.60769E-02 
  51296.8344     0.60487E-02 
  51329.0966     0.60206E-02 
  51361.3587     0.59924E-02 
  51393.6209     0.59643E-02 
  51425.8830     0.59362E-02 
  51458.1452     0.59081E-02 
  51490.4074     0.58800E-02 
  51522.6695     0.58520E-02 
  51554.9317     0.58239E-02 
  51587.1938     0.57959E-02 
  51619.4560     0.57679E-02 
  51651.7182     0.57399E-02 
  51683.9803     0.57119E-02 
  51716.2425     0.56839E-02 
  51748.5046     0.56560E-02 
  51780.7668     0.56281E-02 
  51813.0290     0.56002E-02 
  51845.2911     0.55723E-02 
  51877.5533     0.55444E-02 
  51909.8154     0.55166E-02 
  51942.0776     0.54888E-02 
  51974.3398     0.54610E-02 
  52006.6019     0.54333E-02 
  52038.8641     0.54056E-02 
  52071.1262     0.53779E-02 
  52103.3884     0.53502E-02 
  52135.6506     0.53226E-02 
  52167.9127     0.52950E-02 
  52200.1749     0.52674E-02 
  52232.4370     0.52399E-02 
  52264.6992     0.52124E-02 
  52296.9614     0.51849E-02 
  52329.2235     0.51575E-02 
  52361.4857     0.51301E-02 
  52393.7478     0.51028E-02 
  52426.0100     0.50754E-02 
  52458.2722     0.50481E-02 
  52490.5343     0.50209E-02 
  52522.7965     0.49937E-02 
  52555.0586     0.49665E-02 
  52587.3208     0.49394E-02 
  52619.5830     0.49123E-02 
  52651.8451     0.48853E-02 
  52684.1073     0.48583E-02 
  52716.3694     0.48313E-02 
  52748.6316     0.48044E-02 
  52780.8938     0.47775E-02 
  52813.1559     0.47507E-02 
  52845.4181     0.47239E-02 
  52877.6802     0.46972E-02 
  52909.9424     0.46705E-02 
  52942.2046     0.46438E-02 
  52974.4667     0.46172E-02 
  53006.7289     0.45907E-02 
  53038.9910     0.45642E-02 
  53071.2532     0.45378E-02 
  53103.5154     0.45114E-02 
  53135.7775     0.44850E-02 
  53168.0397     0.44587E-02 
  53200.3018     0.44325E-02 
  53232.5640     0.44063E-02 
  53264.8262     0.43802E-02 
  53297.0883     0.43541E-02 
  53329.3505     0.43281E-02 
  53361.6126     0.43021E-02 
  53393.8748     0.42762E-02 
  53426.1370     0.42503E-02 
  53458.3991     0.42245E-02 
  53490.6613     0.41988E-02 
  53522.9234     0.41731E-02 
  53555.1856     0.41474E-02 
  53587.4478     0.41219E-02 
  53619.7099     0.40964E-02 
  53651.9721     0.40709E-02 
  53684.2342     0.40455E-02 
  53716.4964     0.40202E-02 
  53748.7586     0.39949E-02 
  53781.0207     0.39697E-02 
  53813.2829     0.39445E-02 
  53845.5450     0.39194E-02 
  53877.8072     0.38944E-02 
  53910.0694     0.38694E-02 
  53942.3315     0.38445E-02 
  53974.5937     0.38197E-02 
  54006.8558     0.37949E-02 
  54039.1180     0.37702E-02 
  54071.3802     0.37456E-02 
  54103.6423     0.37210E-02 
  54135.9045     0.36965E-02 
  54168.1666     0.36720E-02 
  54200.4288     0.36477E-02 
  54232.6910     0.36233E-02 
  54264.9531     0.35991E-02 
  54297.2153     0.35749E-02 
  54329.4774     0.35508E-02 
  54361.7396     0.35268E-02 
  54394.0018     0.35028E-02 
  54426.2639     0.34789E-02 
  54458.5261     0.34550E-02 
  54490.7882     0.34313E-02 
  54523.0504     0.34076E-02 
  54555.3126     0.33840E-02 
  54587.5747     0.33604E-02 
  54619.8369     0.33369E-02 
  54652.0990     0.33135E-02 
  54684.3612     0.32902E-02 
  54716.6234     0.32669E-02 
  54748.8855     0.32437E-02 
  54781.1477     0.32206E-02 
  54813.4098     0.31975E-02 
  54845.6720     0.31745E-02 
  54877.9342     0.31516E-02 
  54910.1963     0.31288E-02 
  54942.4585     0.31060E-02 
  54974.7206     0.30834E-02 
  55006.9828     0.30607E-02 
  55039.2450     0.30382E-02 
  55071.5071     0.30157E-02 
  55103.7693     0.29934E-02 
  55136.0314     0.29710E-02 
  55168.2936     0.29488E-02 
  55200.5558     0.29267E-02 
  55232.8179     0.29046E-02 
  55265.0801     0.28826E-02 
  55297.3422     0.28606E-02 
  55329.6044     0.28388E-02 
  55361.8666     0.28170E-02 
  55394.1287     0.27953E-02 
  55426.3909     0.27737E-02 
  55458.6530     0.27521E-02 
  55490.9152     0.27307E-02 
  55523.1774     0.27093E-02 
  55555.4395     0.26879E-02 
  55587.7017     0.26667E-02 
  55619.9638     0.26456E-02 
  55652.2260     0.26245E-02 
  55684.4882     0.26035E-02 
  55716.7503     0.25825E-02 
  55749.0125     0.25617E-02 
  55781.2746     0.25409E-02 
  55813.5368     0.25203E-02 
  55845.7990     0.24997E-02 
  55878.0611     0.24791E-02 
  55910.3233     0.24587E-02 
  55942.5854     0.24383E-02 
  55974.8476     0.24180E-02 
  56007.1098     0.23978E-02 
  56039.3719     0.23777E-02 
  56071.6341     0.23577E-02 
  56103.8962     0.23377E-02 
  56136.1584     0.23178E-02 
  56168.4206     0.22980E-02 
  56200.6827     0.22783E-02 
  56232.9449     0.22586E-02 
  56265.2070     0.22391E-02 
  56297.4692     0.22196E-02 
  56329.7314     0.22002E-02 
  56361.9935     0.21809E-02 
  56394.2557     0.21616E-02 
  56426.5178     0.21425E-02 
  56458.7800     0.21234E-02 
  56491.0422     0.21044E-02 
  56523.3043     0.20855E-02 
  56555.5665     0.20667E-02 
  56587.8286     0.20480E-02 
  56620.0908     0.20293E-02 
  56652.3530     0.20107E-02 
  56684.6151     0.19922E-02 
  56716.8773     0.19738E-02 
  56749.1394     0.19555E-02 
  56781.4016     0.19372E-02 
  56813.6638     0.19191E-02 
  56845.9259     0.19010E-02 
  56878.1881     0.18830E-02 
  56910.4502     0.18651E-02 
  56942.7124     0.18472E-02 
  56974.9746     0.18295E-02 
  57007.2367     0.18118E-02 
  57039.4989     0.17942E-02 
  57071.7610     0.17767E-02 
  57104.0232     0.17593E-02 
  57136.2854     0.17420E-02 
  57168.5475     0.17247E-02 
  57200.8097     0.17075E-02 
  57233.0718     0.16905E-02 
  57265.3340     0.16735E-02 
  57297.5962     0.16565E-02 
  57329.8583     0.16397E-02 
  57362.1205     0.16230E-02 
  57394.3826     0.16063E-02 
  57426.6448     0.15897E-02 
  57458.9070     0.15732E-02 
  57491.1691     0.15568E-02 
  57523.4313     0.15405E-02 
  57555.6934     0.15243E-02 
  57587.9556     0.15081E-02 
  57620.2178     0.14920E-02 
  57652.4799     0.14760E-02 
  57684.7421     0.14601E-02 
  57717.0042     0.14443E-02 
  57749.2664     0.14286E-02 
  57781.5286     0.14129E-02 
  57813.7907     0.13974E-02 
  57846.0529     0.13819E-02 
  57878.3150     0.13665E-02 
  57910.5772     0.13512E-02 
  57942.8394     0.13360E-02 
  57975.1015     0.13209E-02 
  58007.3637     0.13058E-02 
  58039.6258     0.12908E-02 
  58071.8880     0.12760E-02 
  58104.1502     0.12612E-02 
  58136.4123     0.12465E-02 
  58168.6745     0.12319E-02 
  58200.9366     0.12173E-02 
  58233.1988     0.12029E-02 
  58265.4610     0.11885E-02 
  58297.7231     0.11743E-02 
  58329.9853     0.11601E-02 
  58362.2474     0.11460E-02 
  58394.5096     0.11320E-02 
  58426.7718     0.11180E-02 
  58459.0339     0.11042E-02 
  58491.2961     0.10905E-02 
  58523.5582     0.10768E-02 
  58555.8204     0.10632E-02 
  58588.0826     0.10497E-02 
  58620.3447     0.10364E-02 
  58652.6069     0.10230E-02 
  58684.8690     0.10098E-02 
  58717.1312     0.99670E-03 
  58749.3934     0.98366E-03 
  58781.6555     0.97071E-03 
  58813.9177     0.95785E-03 
  58846.1798     0.94508E-03 
  58878.4420     0.93240E-03 
  58910.7042     0.91980E-03 
  58942.9663     0.90730E-03 
  58975.2285     0.89489E-03 
  59007.4906     0.88257E-03 
  59039.7528     0.87034E-03 
  59072.0150     0.85820E-03 
  59104.2771     0.84615E-03 
  59136.5393     0.83420E-03 
  59168.8014     0.82233E-03 
  59201.0636     0.81056E-03 
  59233.3258     0.79888E-03 
  59265.5879     0.78729E-03 
  59297.8501     0.77580E-03 
  59330.1122     0.76440E-03 
  59362.3744     0.75309E-03 
  59394.6366     0.74188E-03 
  59426.8987     0.73076E-03 
  59459.1609     0.71974E-03 
  59491.4230     0.70881E-03 
  59523.6852     0.69797E-03 
  59555.9474     0.68724E-03 
  59588.2095     0.67659E-03 
  59620.4717     0.66605E-03 
  59652.7338     0.65560E-03 
  59684.9960     0.64525E-03 
  59717.2582     0.63499E-03 
  59749.5203     0.62484E-03 
  59781.7825     0.61478E-03 
  59814.0446     0.60482E-03 
  59846.3068     0.59496E-03 
  59878.5690     0.58520E-03 
  59910.8311     0.57554E-03 
  59943.0933     0.56598E-03 
  59975.3554     0.55652E-03 
  60007.6176     0.54716E-03 
  60039.8798     0.53791E-03 
  60072.1419     0.52876E-03 
  60104.4041     0.51971E-03 
  60136.6662     0.51077E-03 
  60168.9284     0.50193E-03 
  60201.1906     0.49319E-03 
  60233.4527     0.48456E-03 
  60265.7149     0.47604E-03 
  60297.9770     0.46762E-03 
  60330.2392     0.45931E-03 
  60362.5014     0.45111E-03 
  60394.7635     0.44302E-03 
  60427.0257     0.43504E-03 
  60459.2878     0.42716E-03 
  60491.5500     0.41940E-03 
  60523.8122     0.41175E-03 
  60556.0743     0.40421E-03 
  60588.3365     0.39679E-03 
  60620.5986     0.38947E-03 
  60652.8608     0.38228E-03 
  60685.1230     0.37519E-03 
  60717.3851     0.36823E-03 
  60749.6473     0.36138E-03 
  60781.9094     0.35465E-03 
  60814.1716     0.34804E-03 
  60846.4338     0.34154E-03 
  60878.6959     0.33517E-03 
  60910.9581     0.32892E-03 
  60943.2202     0.32279E-03 
  60975.4824     0.31679E-03 
  61007.7446     0.31090E-03 
  61040.0067     0.30515E-03 
  61072.2689     0.29952E-03 
  61104.5310     0.29402E-03 
  61136.7932     0.28864E-03 
  61169.0554     0.28340E-03 
  61201.3175     0.27828E-03 
  61233.5797     0.27330E-03 
  61265.8418     0.26845E-03 
  61298.1040     0.26374E-03 
  61330.3662     0.25916E-03 
  61362.6283     0.25471E-03 
  61394.8905     0.25040E-03 
  61427.1526     0.24624E-03 
  61459.4148     0.24221E-03 
  61491.6770     0.23832E-03 
  61523.9391     0.23458E-03 
  61556.2013     0.23098E-03 
  61588.4634     0.22752E-03 
  61620.7256     0.22421E-03 
  61652.9878     0.22105E-03 
  61685.2499     0.21804E-03 
  61717.5121     0.21518E-03 
  61749.7742     0.21248E-03 
  61782.0364     0.20992E-03 
  61814.2986     0.20753E-03 
  61846.5607     0.20528E-03 
  61878.8229     0.20320E-03 
  61911.0850     0.20128E-03 
  61943.3472     0.19952E-03 
  61975.6094     0.19793E-03 
  62007.8715     0.19649E-03 
  62040.1337     0.19523E-03 
  62072.3958     0.19414E-03 
  62104.6580     0.19321E-03 
  62136.9202     0.19246E-03 
  62169.1823     0.19188E-03 
  62201.4445     0.19148E-03 
  62233.7066     0.19126E-03 
  62265.9688     0.19121E-03 
  62298.2310     0.19135E-03 
  62330.4931     0.19167E-03 
  62362.7553     0.19218E-03 
  62395.0174     0.19287E-03 
  62427.2796     0.19376E-03 
  62459.5418     0.19484E-03 
  62491.8039     0.19611E-03 
  62524.0661     0.19758E-03 
  62556.3282     0.19924E-03 
  62588.5904     0.20111E-03 
  62620.8526     0.20318E-03 
  62653.1147     0.20546E-03 
  62685.3769     0.20794E-03 
  62717.6390     0.21063E-03 
  62749.9012     0.21354E-03 
  62782.1634     0.21666E-03 
  62814.4255     0.22000E-03 
  62846.6877     0.22356E-03 
  62878.9498     0.22734E-03 
  62911.2120     0.23135E-03 
  62943.4742     0.23559E-03 
  62975.7363     0.24005E-03 
  63007.9985     0.24475E-03 
  63040.2606     0.24969E-03 
  63072.5228     0.25486E-03 
  63104.7850     0.26028E-03 
  63137.0471     0.26594E-03 
  63169.3093     0.27184E-03 
  63201.5714     0.27800E-03 
  63233.8336     0.28441E-03 
  63266.0958     0.29108E-03 
  63298.3579     0.29800E-03 
  63330.6201     0.30519E-03 
  63362.8822     0.31265E-03 
  63395.1444     0.32037E-03 
  63427.4066     0.32836E-03 
  63459.6687     0.33663E-03 
  63491.9309     0.34518E-03 
  63524.1930     0.35401E-03 
  63556.4552     0.36313E-03 
  63588.7174     0.37253E-03 
  63620.9795     0.38223E-03 
  63653.2417     0.39222E-03 
  63685.5038     0.40251E-03 
  63717.7660     0.41311E-03 
  63750.0282     0.42401E-03 
  63782.2903     0.43522E-03 
  63814.5525     0.44674E-03 
  63846.8146     0.45858E-03 
  63879.0768     0.47075E-03 
  63911.3390     0.48324E-03 
  63943.6011     0.49606E-03 
  63975.8633     0.50921E-03 
  64008.1254     0.52270E-03 
  64040.3876     0.53653E-03 
  64072.6498     0.55070E-03 
  64104.9119     0.56523E-03 
  64137.1741     0.58011E-03 
  64169.4362     0.59534E-03 
  64201.6984     0.61094E-03 
  64233.9606     0.62691E-03 
  64266.2227     0.64325E-03 
  64298.4849     0.65996E-03 
  64330.7470     0.67705E-03 
  64363.0092     0.69453E-03 
  64395.2714     0.71240E-03 
  64427.5335     0.73066E-03 
  64459.7957     0.74931E-03 
  64492.0578     0.76838E-03 
  64524.3200     0.78784E-03 
  64556.5822     0.80773E-03 
  64588.8443     0.82803E-03 
  64621.1065     0.84875E-03 
  64653.3686     0.86990E-03 
  64685.6308     0.89148E-03 
  64717.8930     0.91350E-03 
  64750.1551     0.93596E-03 
  64782.4173     0.95887E-03 
  64814.6794     0.98224E-03 
  64846.9416     0.10061E-02 
  64879.2038     0.10303E-02 
  64911.4659     0.10551E-02 
  64943.7281     0.10803E-02 
  64975.9902     0.11060E-02 
  65008.2524     0.11322E-02 
  65040.5146     0.11589E-02 
  65072.7767     0.11861E-02 
  65105.0389     0.12138E-02 
  65137.3010     0.12420E-02 
  65169.5632     0.12707E-02 
  65201.8254     0.12999E-02 
  65234.0875     0.13297E-02 
  65266.3497     0.13600E-02 
  65298.6118     0.13908E-02 
  65330.8740     0.14222E-02 
  65363.1362     0.14541E-02 
  65395.3983     0.14865E-02 
  65427.6605     0.15196E-02 
  65459.9226     0.15532E-02 
  65492.1848     0.15874E-02 
  65524.4470     0.16221E-02 
  65556.7091     0.16575E-02 
  65588.9713     0.16934E-02 
  65621.2334     0.17300E-02 
  65653.4956     0.17671E-02 
  65685.7578     0.18049E-02 
  65718.0199     0.18433E-02 
  65750.2821     0.18823E-02 
  65782.5442     0.19219E-02 
  65814.8064     0.19622E-02 
  65847.0686     0.20031E-02 
  65879.3307     0.20447E-02 
  65911.5929     0.20870E-02 
  65943.8550     0.21299E-02 
  65976.1172     0.21735E-02 
  66008.3794     0.22178E-02 
  66040.6415     0.22628E-02 
  66072.9037     0.23084E-02 
  66105.1658     0.23548E-02 
  66137.4280     0.24019E-02 
  66169.6902     0.24497E-02 
  66201.9523     0.24982E-02 
  66234.2145     0.25475E-02 
  66266.4766     0.25975E-02 
  66298.7388     0.26483E-02 
  66331.0010     0.26998E-02 
  66363.2631     0.27520E-02 
  66395.5253     0.28051E-02 
  66427.7874     0.28589E-02 
  66460.0496     0.29135E-02 
  66492.3118     0.29690E-02 
  66524.5739     0.30252E-02 
  66556.8361     0.30822E-02 
  66589.0982     0.31401E-02 
  66621.3604     0.31987E-02 
  66653.6226     0.32583E-02 
  66685.8847     0.33186E-02 
  66718.1469     0.33798E-02 
  66750.4090     0.34419E-02 
  66782.6712     0.35048E-02 
  66814.9334     0.35687E-02 
  66847.1955     0.36334E-02 
  66879.4577     0.36990E-02 
  66911.7198     0.37655E-02 
  66943.9820     0.38329E-02 
  66976.2442     0.39012E-02 
  67008.5063     0.39704E-02 
  67040.7685     0.40406E-02 
  67073.0306     0.41118E-02 
  67105.2928     0.41839E-02 
  67137.5550     0.42569E-02 
  67169.8171     0.43309E-02 
  67202.0793     0.44059E-02 
  67234.3414     0.44819E-02 
  67266.6036     0.45589E-02 
  67298.8658     0.46369E-02 
  67331.1279     0.47159E-02 
  67363.3901     0.47959E-02 
  67395.6522     0.48770E-02 
  67427.9144     0.49591E-02 
  67460.1766     0.50422E-02 
  67492.4387     0.51265E-02 
  67524.7009     0.52117E-02 
  67556.9630     0.52981E-02 
  67589.2252     0.53855E-02 
  67621.4874     0.54741E-02 
  67653.7495     0.55637E-02 
  67686.0117     0.56545E-02 
  67718.2738     0.57464E-02 
  67750.5360     0.58394E-02 
  67782.7982     0.59336E-02 
  67815.0603     0.60289E-02 
  67847.3225     0.61253E-02 
  67879.5846     0.62230E-02 
  67911.8468     0.63218E-02 
  67944.1090     0.64218E-02 
  67976.3711     0.65230E-02 
  68008.6333     0.66254E-02 
  68040.8954     0.67290E-02 
  68073.1576     0.68339E-02 
  68105.4198     0.69400E-02 
  68137.6819     0.70473E-02 
  68169.9441     0.71559E-02 
  68202.2062     0.72657E-02 
  68234.4684     0.73769E-02 
  68266.7306     0.74893E-02 
  68298.9927     0.76030E-02 
  68331.2549     0.77180E-02 
  68363.5170     0.78343E-02 
  68395.7792     0.79519E-02 
  68428.0414     0.80708E-02 
  68460.3035     0.81911E-02 
  68492.5657     0.83128E-02 
  68524.8278     0.84358E-02 
  68557.0900     0.85601E-02 
  68589.3522     0.86859E-02 
  68621.6143     0.88130E-02 
  68653.8765     0.89415E-02 
  68686.1386     0.90715E-02 
  68718.4008     0.92028E-02 
  68750.6630     0.93356E-02 
  68782.9251     0.94697E-02 
  68815.1873     0.96054E-02 
  68847.4494     0.97425E-02 
  68879.7116     0.98810E-02 
  68911.9738     0.10021E-01 
  68944.2359     0.10163E-01 
  68976.4981     0.10306E-01 
  69008.7602     0.10450E-01 
  69041.0224     0.10596E-01 
  69073.2846     0.10743E-01 
  69105.5467     0.10893E-01 
  69137.8089     0.11043E-01 
  69170.0710     0.11195E-01 
  69202.3332     0.11349E-01 
  69234.5954     0.11504E-01 
  69266.8575     0.11661E-01 
  69299.1197     0.11819E-01 
  69331.3818     0.11979E-01 
  69363.6440     0.12141E-01 
  69395.9062     0.12304E-01 
  69428.1683     0.12469E-01 
  69460.4305     0.12635E-01 
  69492.6926     0.12803E-01 
  69524.9548     0.12973E-01 
  69557.2170     0.13144E-01 
  69589.4791     0.13317E-01 
  69621.7413     0.13492E-01 
  69654.0034     0.13668E-01 
  69686.2656     0.13846E-01 
  69718.5278     0.14026E-01 
  69750.7899     0.14207E-01 
  69783.0521     0.14390E-01 
  69815.3142     0.14575E-01 
  69847.5764     0.14761E-01 
  69879.8386     0.14950E-01 
  69912.1007     0.15140E-01 
  69944.3629     0.15331E-01 
  69976.6250     0.15525E-01 
  70008.8872     0.15720E-01 
  70041.1494     0.15917E-01 
  70073.4115     0.16116E-01 
  70105.6737     0.16316E-01 
  70137.9358     0.16519E-01 
  70170.1980     0.16723E-01 
  70202.4602     0.16929E-01 
  70234.7223     0.17137E-01 
  70266.9845     0.17346E-01 
  70299.2466     0.17558E-01 
  70331.5088     0.17771E-01 
  70363.7710     0.17986E-01 
  70396.0331     0.18203E-01 
  70428.2953     0.18422E-01 
  70460.5574     0.18643E-01 
  70492.8196     0.18865E-01 
  70525.0818     0.19090E-01 
  70557.3439     0.19316E-01 
  70589.6061     0.19544E-01 
  70621.8682     0.19774E-01 
  70654.1304     0.20006E-01 
  70686.3926     0.20240E-01 
  70718.6547     0.20476E-01 
  70750.9169     0.20713E-01 
  70783.1790     0.20953E-01 
  70815.4412     0.21195E-01 
  70847.7034     0.21438E-01 
  70879.9655     0.21684E-01 
  70912.2277     0.21931E-01 
  70944.4898     0.22180E-01 
  70976.7520     0.22432E-01 
  71009.0142     0.22685E-01 
  71041.2763     0.22940E-01 
  71073.5385     0.23197E-01 
  71105.8006     0.23456E-01 
  71138.0628     0.23717E-01 
  71170.3250     0.23980E-01 
  71202.5871     0.24245E-01 
  71234.8493     0.24512E-01 
  71267.1114     0.24781E-01 
  71299.3736     0.25052E-01 
  71331.6358     0.25325E-01 
  71363.8979     0.25600E-01 
  71396.1601     0.25877E-01 
  71428.4222     0.26156E-01 
  71460.6844     0.26437E-01 
  71492.9466     0.26721E-01 
  71525.2087     0.27006E-01 
  71557.4709     0.27293E-01 
  71589.7330     0.27582E-01 
  71621.9952     0.27873E-01 
  71654.2574     0.28166E-01 
  71686.5195     0.28461E-01 
  71718.7817     0.28758E-01 
  71751.0438     0.29057E-01 
  71783.3060     0.29359E-01 
  71815.5682     0.29662E-01 
  71847.8303     0.29967E-01 
  71880.0925     0.30274E-01 
  71912.3546     0.30584E-01 
  71944.6168     0.30895E-01 
  71976.8790     0.31209E-01 
  72009.1411     0.31524E-01 
  72041.4033     0.31841E-01 
  72073.6654     0.32161E-01 
  72105.9276     0.32482E-01 
  72138.1898     0.32806E-01 
  72170.4519     0.33132E-01 
  72202.7141     0.33459E-01 
  72234.9762     0.33789E-01 
  72267.2384     0.34120E-01 
  72299.5006     0.34454E-01 
  72331.7627     0.34790E-01 
  72364.0249     0.35128E-01 
  72396.2870     0.35467E-01 
  72428.5492     0.35809E-01 
  72460.8114     0.36153E-01 
  72493.0735     0.36499E-01 
  72525.3357     0.36847E-01 
  72557.5978     0.37196E-01 
  72589.8600     0.37548E-01 
