  32262.1600     0.93419E-04 
  32294.4222     0.94361E-04 
  32326.6843     0.95309E-04 
  32358.9465     0.96264E-04 
  32391.2086     0.97224E-04 
  32423.4708     0.98191E-04 
  32455.7330     0.99164E-04 
  32487.9951     0.10014E-03 
  32520.2573     0.10113E-03 
  32552.5194     0.10212E-03 
  32584.7816     0.10312E-03 
  32617.0438     0.10412E-03 
  32649.3059     0.10513E-03 
  32681.5681     0.10614E-03 
  32713.8302     0.10717E-03 
  32746.0924     0.10819E-03 
  32778.3546     0.10923E-03 
  32810.6167     0.11027E-03 
  32842.8789     0.11131E-03 
  32875.1410     0.11237E-03 
  32907.4032     0.11342E-03 
  32939.6654     0.11449E-03 
  32971.9275     0.11556E-03 
  33004.1897     0.11663E-03 
  33036.4518     0.11772E-03 
  33068.7140     0.11881E-03 
  33100.9762     0.11990E-03 
  33133.2383     0.12100E-03 
  33165.5005     0.12211E-03 
  33197.7626     0.12322E-03 
  33230.0248     0.12434E-03 
  33262.2870     0.12546E-03 
  33294.5491     0.12659E-03 
  33326.8113     0.12773E-03 
  33359.0734     0.12887E-03 
  33391.3356     0.13001E-03 
  33423.5978     0.13117E-03 
  33455.8599     0.13233E-03 
  33488.1221     0.13349E-03 
  33520.3842     0.13466E-03 
  33552.6464     0.13584E-03 
  33584.9086     0.13702E-03 
  33617.1707     0.13821E-03 
  33649.4329     0.13940E-03 
  33681.6950     0.14060E-03 
  33713.9572     0.14180E-03 
  33746.2194     0.14301E-03 
  33778.4815     0.14423E-03 
  33810.7437     0.14545E-03 
  33843.0058     0.14668E-03 
  33875.2680     0.14791E-03 
  33907.5302     0.14915E-03 
  33939.7923     0.15039E-03 
  33972.0545     0.15164E-03 
  34004.3166     0.15289E-03 
  34036.5788     0.15415E-03 
  34068.8410     0.15542E-03 
  34101.1031     0.15668E-03 
  34133.3653     0.15796E-03 
  34165.6274     0.15924E-03 
  34197.8896     0.16052E-03 
  34230.1518     0.16182E-03 
  34262.4139     0.16311E-03 
  34294.6761     0.16441E-03 
  34326.9382     0.16572E-03 
  34359.2004     0.16703E-03 
  34391.4626     0.16834E-03 
  34423.7247     0.16966E-03 
  34455.9869     0.17099E-03 
  34488.2490     0.17232E-03 
  34520.5112     0.17365E-03 
  34552.7734     0.17499E-03 
  34585.0355     0.17634E-03 
  34617.2977     0.17769E-03 
  34649.5598     0.17904E-03 
  34681.8220     0.18040E-03 
  34714.0842     0.18176E-03 
  34746.3463     0.18313E-03 
  34778.6085     0.18450E-03 
  34810.8706     0.18587E-03 
  34843.1328     0.18725E-03 
  34875.3950     0.18864E-03 
  34907.6571     0.19003E-03 
  34939.9193     0.19142E-03 
  34972.1814     0.19282E-03 
  35004.4436     0.19422E-03 
  35036.7058     0.19562E-03 
  35068.9679     0.19703E-03 
  35101.2301     0.19845E-03 
  35133.4922     0.19986E-03 
  35165.7544     0.20128E-03 
  35198.0166     0.20271E-03 
  35230.2787     0.20414E-03 
  35262.5409     0.20557E-03 
  35294.8030     0.20700E-03 
  35327.0652     0.20844E-03 
  35359.3274     0.20989E-03 
  35391.5895     0.21133E-03 
  35423.8517     0.21278E-03 
  35456.1138     0.21424E-03 
  35488.3760     0.21569E-03 
  35520.6382     0.21715E-03 
  35552.9003     0.21861E-03 
  35585.1625     0.22008E-03 
  35617.4246     0.22155E-03 
  35649.6868     0.22302E-03 
  35681.9490     0.22449E-03 
  35714.2111     0.22597E-03 
  35746.4733     0.22745E-03 
  35778.7354     0.22894E-03 
  35810.9976     0.23042E-03 
  35843.2598     0.23191E-03 
  35875.5219     0.23340E-03 
  35907.7841     0.23489E-03 
  35940.0462     0.23639E-03 
  35972.3084     0.23789E-03 
  36004.5706     0.23939E-03 
  36036.8327     0.24089E-03 
  36069.0949     0.24240E-03 
  36101.3570     0.24390E-03 
  36133.6192     0.24541E-03 
  36165.8814     0.24692E-03 
  36198.1435     0.24843E-03 
  36230.4057     0.24995E-03 
  36262.6678     0.25146E-03 
  36294.9300     0.25298E-03 
  36327.1922     0.25450E-03 
  36359.4543     0.25602E-03 
  36391.7165     0.25754E-03 
  36423.9786     0.25907E-03 
  36456.2408     0.26059E-03 
  36488.5030     0.26212E-03 
  36520.7651     0.26365E-03 
  36553.0273     0.26518E-03 
  36585.2894     0.26670E-03 
  36617.5516     0.26823E-03 
  36649.8138     0.26977E-03 
  36682.0759     0.27130E-03 
  36714.3381     0.27283E-03 
  36746.6002     0.27436E-03 
  36778.8624     0.27590E-03 
  36811.1246     0.27743E-03 
  36843.3867     0.27897E-03 
  36875.6489     0.28050E-03 
  36907.9110     0.28204E-03 
  36940.1732     0.28357E-03 
  36972.4354     0.28511E-03 
  37004.6975     0.28664E-03 
  37036.9597     0.28818E-03 
  37069.2218     0.28971E-03 
  37101.4840     0.29125E-03 
  37133.7462     0.29278E-03 
  37166.0083     0.29432E-03 
  37198.2705     0.29585E-03 
  37230.5326     0.29739E-03 
  37262.7948     0.29892E-03 
  37295.0570     0.30045E-03 
  37327.3191     0.30198E-03 
  37359.5813     0.30351E-03 
  37391.8434     0.30504E-03 
  37424.1056     0.30657E-03 
  37456.3678     0.30810E-03 
  37488.6299     0.30962E-03 
  37520.8921     0.31115E-03 
  37553.1542     0.31267E-03 
  37585.4164     0.31419E-03 
  37617.6786     0.31571E-03 
  37649.9407     0.31723E-03 
  37682.2029     0.31875E-03 
  37714.4650     0.32027E-03 
  37746.7272     0.32178E-03 
  37778.9894     0.32329E-03 
  37811.2515     0.32480E-03 
  37843.5137     0.32631E-03 
  37875.7758     0.32781E-03 
  37908.0380     0.32932E-03 
  37940.3002     0.33082E-03 
  37972.5623     0.33232E-03 
  38004.8245     0.33381E-03 
  38037.0866     0.33530E-03 
  38069.3488     0.33679E-03 
  38101.6110     0.33828E-03 
  38133.8731     0.33977E-03 
  38166.1353     0.34125E-03 
  38198.3974     0.34273E-03 
  38230.6596     0.34420E-03 
  38262.9218     0.34568E-03 
  38295.1839     0.34715E-03 
  38327.4461     0.34861E-03 
  38359.7082     0.35008E-03 
  38391.9704     0.35153E-03 
  38424.2326     0.35299E-03 
  38456.4947     0.35444E-03 
  38488.7569     0.35589E-03 
  38521.0190     0.35733E-03 
  38553.2812     0.35878E-03 
  38585.5434     0.36021E-03 
  38617.8055     0.36164E-03 
  38650.0677     0.36307E-03 
  38682.3298     0.36450E-03 
  38714.5920     0.36592E-03 
  38746.8542     0.36733E-03 
  38779.1163     0.36874E-03 
  38811.3785     0.37015E-03 
  38843.6406     0.37155E-03 
  38875.9028     0.37295E-03 
  38908.1650     0.37434E-03 
  38940.4271     0.37573E-03 
  38972.6893     0.37711E-03 
  39004.9514     0.37848E-03 
  39037.2136     0.37986E-03 
  39069.4758     0.38122E-03 
  39101.7379     0.38258E-03 
  39134.0001     0.38394E-03 
  39166.2622     0.38529E-03 
  39198.5244     0.38664E-03 
  39230.7866     0.38798E-03 
  39263.0487     0.38931E-03 
  39295.3109     0.39064E-03 
  39327.5730     0.39196E-03 
  39359.8352     0.39328E-03 
  39392.0974     0.39459E-03 
  39424.3595     0.39589E-03 
  39456.6217     0.39719E-03 
  39488.8838     0.39848E-03 
  39521.1460     0.39977E-03 
  39553.4082     0.40104E-03 
  39585.6703     0.40232E-03 
  39617.9325     0.40358E-03 
  39650.1946     0.40484E-03 
  39682.4568     0.40610E-03 
  39714.7190     0.40734E-03 
  39746.9811     0.40858E-03 
  39779.2433     0.40981E-03 
  39811.5054     0.41104E-03 
  39843.7676     0.41226E-03 
  39876.0298     0.41347E-03 
  39908.2919     0.41467E-03 
  39940.5541     0.41587E-03 
  39972.8162     0.41706E-03 
  40005.0784     0.41824E-03 
  40037.3406     0.41942E-03 
  40069.6027     0.42059E-03 
  40101.8649     0.42175E-03 
  40134.1270     0.42290E-03 
  40166.3892     0.42404E-03 
  40198.6514     0.42518E-03 
  40230.9135     0.42631E-03 
  40263.1757     0.42743E-03 
  40295.4378     0.42854E-03 
  40327.7000     0.42965E-03 
  40359.9622     0.43075E-03 
  40392.2243     0.43183E-03 
  40424.4865     0.43291E-03 
  40456.7486     0.43399E-03 
  40489.0108     0.43505E-03 
  40521.2730     0.43611E-03 
  40553.5351     0.43715E-03 
  40585.7973     0.43819E-03 
  40618.0594     0.43922E-03 
  40650.3216     0.44024E-03 
  40682.5838     0.44126E-03 
  40714.8459     0.44226E-03 
  40747.1081     0.44325E-03 
  40779.3702     0.44424E-03 
  40811.6324     0.44522E-03 
  40843.8946     0.44619E-03 
  40876.1567     0.44715E-03 
  40908.4189     0.44810E-03 
  40940.6810     0.44904E-03 
  40972.9432     0.44997E-03 
  41005.2054     0.45089E-03 
  41037.4675     0.45180E-03 
  41069.7297     0.45271E-03 
  41101.9918     0.45360E-03 
  41134.2540     0.45449E-03 
  41166.5162     0.45536E-03 
  41198.7783     0.45623E-03 
  41231.0405     0.45709E-03 
  41263.3026     0.45793E-03 
  41295.5648     0.45877E-03 
  41327.8270     0.45960E-03 
  41360.0891     0.46041E-03 
  41392.3513     0.46122E-03 
  41424.6134     0.46202E-03 
  41456.8756     0.46281E-03 
  41489.1378     0.46359E-03 
  41521.3999     0.46435E-03 
  41553.6621     0.46511E-03 
  41585.9242     0.46586E-03 
  41618.1864     0.46660E-03 
  41650.4486     0.46733E-03 
  41682.7107     0.46804E-03 
  41714.9729     0.46875E-03 
  41747.2350     0.46945E-03 
  41779.4972     0.47013E-03 
  41811.7594     0.47081E-03 
  41844.0215     0.47148E-03 
  41876.2837     0.47213E-03 
  41908.5458     0.47278E-03 
  41940.8080     0.47341E-03 
  41973.0702     0.47404E-03 
  42005.3323     0.47465E-03 
  42037.5945     0.47525E-03 
  42069.8566     0.47585E-03 
  42102.1188     0.47643E-03 
  42134.3810     0.47700E-03 
  42166.6431     0.47756E-03 
  42198.9053     0.47811E-03 
  42231.1674     0.47865E-03 
  42263.4296     0.47918E-03 
  42295.6918     0.47970E-03 
  42327.9539     0.48020E-03 
  42360.2161     0.48070E-03 
  42392.4782     0.48119E-03 
  42424.7404     0.48166E-03 
  42457.0026     0.48212E-03 
  42489.2647     0.48258E-03 
  42521.5269     0.48302E-03 
  42553.7890     0.48345E-03 
  42586.0512     0.48387E-03 
  42618.3134     0.48428E-03 
  42650.5755     0.48468E-03 
  42682.8377     0.48507E-03 
  42715.0998     0.48544E-03 
  42747.3620     0.48581E-03 
  42779.6242     0.48616E-03 
  42811.8863     0.48651E-03 
  42844.1485     0.48684E-03 
  42876.4106     0.48716E-03 
  42908.6728     0.48747E-03 
  42940.9350     0.48777E-03 
  42973.1971     0.48806E-03 
  43005.4593     0.48833E-03 
  43037.7214     0.48860E-03 
  43069.9836     0.48885E-03 
  43102.2458     0.48910E-03 
  43134.5079     0.48933E-03 
  43166.7701     0.48955E-03 
  43199.0322     0.48976E-03 
  43231.2944     0.48996E-03 
  43263.5566     0.49015E-03 
  43295.8187     0.49033E-03 
  43328.0809     0.49049E-03 
  43360.3430     0.49065E-03 
  43392.6052     0.49079E-03 
  43424.8674     0.49092E-03 
  43457.1295     0.49104E-03 
  43489.3917     0.49115E-03 
  43521.6538     0.49125E-03 
  43553.9160     0.49134E-03 
  43586.1782     0.49142E-03 
  43618.4403     0.49148E-03 
  43650.7025     0.49154E-03 
  43682.9646     0.49158E-03 
  43715.2268     0.49162E-03 
  43747.4890     0.49164E-03 
  43779.7511     0.49165E-03 
  43812.0133     0.49165E-03 
  43844.2754     0.49164E-03 
  43876.5376     0.49161E-03 
  43908.7998     0.49158E-03 
  43941.0619     0.49154E-03 
  43973.3241     0.49148E-03 
  44005.5862     0.49142E-03 
  44037.8484     0.49134E-03 
  44070.1106     0.49125E-03 
  44102.3727     0.49115E-03 
  44134.6349     0.49104E-03 
  44166.8970     0.49092E-03 
  44199.1592     0.49079E-03 
  44231.4214     0.49065E-03 
  44263.6835     0.49050E-03 
  44295.9457     0.49033E-03 
  44328.2078     0.49016E-03 
  44360.4700     0.48997E-03 
  44392.7322     0.48978E-03 
  44424.9943     0.48957E-03 
  44457.2565     0.48935E-03 
  44489.5186     0.48912E-03 
  44521.7808     0.48889E-03 
  44554.0430     0.48864E-03 
  44586.3051     0.48838E-03 
  44618.5673     0.48811E-03 
  44650.8294     0.48783E-03 
  44683.0916     0.48754E-03 
  44715.3538     0.48723E-03 
  44747.6159     0.48692E-03 
  44779.8781     0.48660E-03 
  44812.1402     0.48627E-03 
  44844.4024     0.48593E-03 
  44876.6646     0.48557E-03 
  44908.9267     0.48521E-03 
  44941.1889     0.48484E-03 
  44973.4510     0.48445E-03 
  45005.7132     0.48406E-03 
  45037.9754     0.48365E-03 
  45070.2375     0.48324E-03 
  45102.4997     0.48282E-03 
  45134.7618     0.48238E-03 
  45167.0240     0.48194E-03 
  45199.2862     0.48148E-03 
  45231.5483     0.48102E-03 
  45263.8105     0.48055E-03 
  45296.0726     0.48006E-03 
  45328.3348     0.47957E-03 
  45360.5970     0.47907E-03 
  45392.8591     0.47855E-03 
  45425.1213     0.47803E-03 
  45457.3834     0.47750E-03 
  45489.6456     0.47696E-03 
  45521.9078     0.47641E-03 
  45554.1699     0.47585E-03 
  45586.4321     0.47528E-03 
  45618.6942     0.47470E-03 
  45650.9564     0.47411E-03 
  45683.2186     0.47351E-03 
  45715.4807     0.47291E-03 
  45747.7429     0.47229E-03 
  45780.0050     0.47166E-03 
  45812.2672     0.47103E-03 
  45844.5294     0.47039E-03 
  45876.7915     0.46973E-03 
  45909.0537     0.46907E-03 
  45941.3158     0.46840E-03 
  45973.5780     0.46772E-03 
  46005.8402     0.46704E-03 
  46038.1023     0.46634E-03 
  46070.3645     0.46563E-03 
  46102.6266     0.46492E-03 
  46134.8888     0.46420E-03 
  46167.1510     0.46347E-03 
  46199.4131     0.46273E-03 
  46231.6753     0.46198E-03 
  46263.9374     0.46122E-03 
  46296.1996     0.46046E-03 
  46328.4618     0.45968E-03 
  46360.7239     0.45890E-03 
  46392.9861     0.45811E-03 
  46425.2482     0.45731E-03 
  46457.5104     0.45651E-03 
  46489.7726     0.45569E-03 
  46522.0347     0.45487E-03 
  46554.2969     0.45404E-03 
  46586.5590     0.45320E-03 
  46618.8212     0.45236E-03 
  46651.0834     0.45151E-03 
  46683.3455     0.45065E-03 
  46715.6077     0.44978E-03 
  46747.8698     0.44890E-03 
  46780.1320     0.44802E-03 
  46812.3942     0.44713E-03 
  46844.6563     0.44623E-03 
  46876.9185     0.44532E-03 
  46909.1806     0.44441E-03 
  46941.4428     0.44349E-03 
  46973.7050     0.44256E-03 
  47005.9671     0.44163E-03 
  47038.2293     0.44069E-03 
  47070.4914     0.43974E-03 
  47102.7536     0.43878E-03 
  47135.0158     0.43782E-03 
  47167.2779     0.43685E-03 
  47199.5401     0.43588E-03 
  47231.8022     0.43489E-03 
  47264.0644     0.43390E-03 
  47296.3266     0.43291E-03 
  47328.5887     0.43191E-03 
  47360.8509     0.43090E-03 
  47393.1130     0.42988E-03 
  47425.3752     0.42886E-03 
  47457.6374     0.42783E-03 
  47489.8995     0.42680E-03 
  47522.1617     0.42576E-03 
  47554.4238     0.42471E-03 
  47586.6860     0.42366E-03 
  47618.9482     0.42260E-03 
  47651.2103     0.42154E-03 
  47683.4725     0.42047E-03 
  47715.7346     0.41940E-03 
  47747.9968     0.41831E-03 
  47780.2590     0.41723E-03 
  47812.5211     0.41614E-03 
  47844.7833     0.41504E-03 
  47877.0454     0.41393E-03 
  47909.3076     0.41283E-03 
  47941.5698     0.41171E-03 
  47973.8319     0.41059E-03 
  48006.0941     0.40947E-03 
  48038.3562     0.40834E-03 
  48070.6184     0.40720E-03 
  48102.8806     0.40606E-03 
  48135.1427     0.40492E-03 
  48167.4049     0.40377E-03 
  48199.6670     0.40262E-03 
  48231.9292     0.40146E-03 
  48264.1914     0.40029E-03 
  48296.4535     0.39912E-03 
  48328.7157     0.39795E-03 
  48360.9778     0.39677E-03 
  48393.2400     0.39559E-03 
  48425.5022     0.39441E-03 
  48457.7643     0.39321E-03 
  48490.0265     0.39202E-03 
  48522.2886     0.39082E-03 
  48554.5508     0.38962E-03 
  48586.8130     0.38841E-03 
  48619.0751     0.38720E-03 
  48651.3373     0.38598E-03 
  48683.5994     0.38476E-03 
  48715.8616     0.38354E-03 
  48748.1238     0.38232E-03 
  48780.3859     0.38108E-03 
  48812.6481     0.37985E-03 
  48844.9102     0.37861E-03 
  48877.1724     0.37737E-03 
  48909.4346     0.37613E-03 
  48941.6967     0.37488E-03 
  48973.9589     0.37363E-03 
  49006.2210     0.37237E-03 
  49038.4832     0.37112E-03 
  49070.7454     0.36986E-03 
  49103.0075     0.36859E-03 
  49135.2697     0.36732E-03 
  49167.5318     0.36605E-03 
  49199.7940     0.36478E-03 
  49232.0562     0.36351E-03 
  49264.3183     0.36223E-03 
  49296.5805     0.36095E-03 
  49328.8426     0.35966E-03 
  49361.1048     0.35838E-03 
  49393.3670     0.35709E-03 
  49425.6291     0.35580E-03 
  49457.8913     0.35450E-03 
  49490.1534     0.35321E-03 
  49522.4156     0.35191E-03 
  49554.6778     0.35061E-03 
  49586.9399     0.34930E-03 
  49619.2021     0.34800E-03 
  49651.4642     0.34669E-03 
  49683.7264     0.34538E-03 
  49715.9886     0.34407E-03 
  49748.2507     0.34276E-03 
  49780.5129     0.34144E-03 
  49812.7750     0.34013E-03 
  49845.0372     0.33881E-03 
  49877.2994     0.33749E-03 
  49909.5615     0.33617E-03 
  49941.8237     0.33485E-03 
  49974.0858     0.33352E-03 
  50006.3480     0.33220E-03 
  50038.6102     0.33087E-03 
  50070.8723     0.32954E-03 
  50103.1345     0.32821E-03 
  50135.3966     0.32688E-03 
  50167.6588     0.32555E-03 
  50199.9210     0.32421E-03 
  50232.1831     0.32288E-03 
  50264.4453     0.32154E-03 
  50296.7074     0.32021E-03 
  50328.9696     0.31887E-03 
  50361.2318     0.31753E-03 
  50393.4939     0.31619E-03 
  50425.7561     0.31485E-03 
  50458.0182     0.31351E-03 
  50490.2804     0.31217E-03 
  50522.5426     0.31083E-03 
  50554.8047     0.30949E-03 
  50587.0669     0.30815E-03 
  50619.3290     0.30680E-03 
  50651.5912     0.30546E-03 
  50683.8534     0.30412E-03 
  50716.1155     0.30277E-03 
  50748.3777     0.30143E-03 
  50780.6398     0.30009E-03 
  50812.9020     0.29874E-03 
  50845.1642     0.29740E-03 
  50877.4263     0.29605E-03 
  50909.6885     0.29471E-03 
  50941.9506     0.29337E-03 
  50974.2128     0.29202E-03 
  51006.4750     0.29068E-03 
  51038.7371     0.28933E-03 
  51070.9993     0.28799E-03 
  51103.2614     0.28665E-03 
  51135.5236     0.28531E-03 
  51167.7858     0.28396E-03 
  51200.0479     0.28262E-03 
  51232.3101     0.28128E-03 
  51264.5722     0.27994E-03 
  51296.8344     0.27860E-03 
  51329.0966     0.27726E-03 
  51361.3587     0.27592E-03 
  51393.6209     0.27459E-03 
  51425.8830     0.27325E-03 
  51458.1452     0.27191E-03 
  51490.4074     0.27058E-03 
  51522.6695     0.26924E-03 
  51554.9317     0.26791E-03 
  51587.1938     0.26658E-03 
  51619.4560     0.26524E-03 
  51651.7182     0.26391E-03 
  51683.9803     0.26259E-03 
  51716.2425     0.26126E-03 
  51748.5046     0.25993E-03 
  51780.7668     0.25860E-03 
  51813.0290     0.25728E-03 
  51845.2911     0.25596E-03 
  51877.5533     0.25464E-03 
  51909.8154     0.25332E-03 
  51942.0776     0.25200E-03 
  51974.3398     0.25068E-03 
  52006.6019     0.24936E-03 
  52038.8641     0.24805E-03 
  52071.1262     0.24674E-03 
  52103.3884     0.24543E-03 
  52135.6506     0.24412E-03 
  52167.9127     0.24281E-03 
  52200.1749     0.24150E-03 
  52232.4370     0.24020E-03 
  52264.6992     0.23890E-03 
  52296.9614     0.23760E-03 
  52329.2235     0.23630E-03 
  52361.4857     0.23500E-03 
  52393.7478     0.23371E-03 
  52426.0100     0.23242E-03 
  52458.2722     0.23112E-03 
  52490.5343     0.22984E-03 
  52522.7965     0.22855E-03 
  52555.0586     0.22727E-03 
  52587.3208     0.22598E-03 
  52619.5830     0.22470E-03 
  52651.8451     0.22343E-03 
  52684.1073     0.22215E-03 
  52716.3694     0.22088E-03 
  52748.6316     0.21961E-03 
  52780.8938     0.21834E-03 
  52813.1559     0.21707E-03 
  52845.4181     0.21581E-03 
  52877.6802     0.21455E-03 
  52909.9424     0.21329E-03 
  52942.2046     0.21203E-03 
  52974.4667     0.21078E-03 
  53006.7289     0.20953E-03 
  53038.9910     0.20828E-03 
  53071.2532     0.20703E-03 
  53103.5154     0.20579E-03 
  53135.7775     0.20455E-03 
  53168.0397     0.20331E-03 
  53200.3018     0.20207E-03 
  53232.5640     0.20084E-03 
  53264.8262     0.19961E-03 
  53297.0883     0.19838E-03 
  53329.3505     0.19716E-03 
  53361.6126     0.19594E-03 
  53393.8748     0.19472E-03 
  53426.1370     0.19350E-03 
  53458.3991     0.19229E-03 
  53490.6613     0.19108E-03 
  53522.9234     0.18987E-03 
  53555.1856     0.18867E-03 
  53587.4478     0.18747E-03 
  53619.7099     0.18627E-03 
  53651.9721     0.18508E-03 
  53684.2342     0.18388E-03 
  53716.4964     0.18270E-03 
  53748.7586     0.18151E-03 
  53781.0207     0.18033E-03 
  53813.2829     0.17915E-03 
  53845.5450     0.17797E-03 
  53877.8072     0.17680E-03 
  53910.0694     0.17563E-03 
  53942.3315     0.17446E-03 
  53974.5937     0.17330E-03 
  54006.8558     0.17214E-03 
  54039.1180     0.17098E-03 
  54071.3802     0.16983E-03 
  54103.6423     0.16868E-03 
  54135.9045     0.16753E-03 
  54168.1666     0.16639E-03 
  54200.4288     0.16525E-03 
  54232.6910     0.16411E-03 
  54264.9531     0.16298E-03 
  54297.2153     0.16185E-03 
  54329.4774     0.16072E-03 
  54361.7396     0.15960E-03 
  54394.0018     0.15848E-03 
  54426.2639     0.15737E-03 
  54458.5261     0.15625E-03 
  54490.7882     0.15514E-03 
  54523.0504     0.15404E-03 
  54555.3126     0.15294E-03 
  54587.5747     0.15184E-03 
  54619.8369     0.15074E-03 
  54652.0990     0.14965E-03 
  54684.3612     0.14857E-03 
  54716.6234     0.14748E-03 
  54748.8855     0.14640E-03 
  54781.1477     0.14533E-03 
  54813.4098     0.14425E-03 
  54845.6720     0.14318E-03 
  54877.9342     0.14212E-03 
  54910.1963     0.14106E-03 
  54942.4585     0.14000E-03 
  54974.7206     0.13894E-03 
  55006.9828     0.13789E-03 
  55039.2450     0.13684E-03 
  55071.5071     0.13580E-03 
  55103.7693     0.13476E-03 
  55136.0314     0.13373E-03 
  55168.2936     0.13269E-03 
  55200.5558     0.13167E-03 
  55232.8179     0.13064E-03 
  55265.0801     0.12962E-03 
  55297.3422     0.12860E-03 
  55329.6044     0.12759E-03 
  55361.8666     0.12658E-03 
  55394.1287     0.12557E-03 
  55426.3909     0.12457E-03 
  55458.6530     0.12358E-03 
  55490.9152     0.12258E-03 
  55523.1774     0.12159E-03 
  55555.4395     0.12061E-03 
  55587.7017     0.11962E-03 
  55619.9638     0.11864E-03 
  55652.2260     0.11767E-03 
  55684.4882     0.11670E-03 
  55716.7503     0.11573E-03 
  55749.0125     0.11477E-03 
  55781.2746     0.11381E-03 
  55813.5368     0.11285E-03 
  55845.7990     0.11190E-03 
  55878.0611     0.11096E-03 
  55910.3233     0.11001E-03 
  55942.5854     0.10907E-03 
  55974.8476     0.10814E-03 
  56007.1098     0.10721E-03 
  56039.3719     0.10628E-03 
  56071.6341     0.10536E-03 
  56103.8962     0.10444E-03 
  56136.1584     0.10352E-03 
  56168.4206     0.10261E-03 
  56200.6827     0.10170E-03 
  56232.9449     0.10080E-03 
  56265.2070     0.99897E-04 
  56297.4692     0.99001E-04 
  56329.7314     0.98109E-04 
  56361.9935     0.97221E-04 
  56394.2557     0.96338E-04 
  56426.5178     0.95458E-04 
  56458.7800     0.94582E-04 
  56491.0422     0.93710E-04 
  56523.3043     0.92842E-04 
  56555.5665     0.91978E-04 
  56587.8286     0.91118E-04 
  56620.0908     0.90262E-04 
  56652.3530     0.89411E-04 
  56684.6151     0.88563E-04 
  56716.8773     0.87719E-04 
  56749.1394     0.86879E-04 
  56781.4016     0.86043E-04 
  56813.6638     0.85212E-04 
  56845.9259     0.84384E-04 
  56878.1881     0.83560E-04 
  56910.4502     0.82741E-04 
  56942.7124     0.81925E-04 
  56974.9746     0.81113E-04 
  57007.2367     0.80306E-04 
  57039.4989     0.79502E-04 
  57071.7610     0.78703E-04 
  57104.0232     0.77907E-04 
  57136.2854     0.77116E-04 
  57168.5475     0.76328E-04 
  57200.8097     0.75545E-04 
  57233.0718     0.74766E-04 
  57265.3340     0.73991E-04 
  57297.5962     0.73219E-04 
  57329.8583     0.72452E-04 
  57362.1205     0.71689E-04 
  57394.3826     0.70930E-04 
  57426.6448     0.70175E-04 
  57458.9070     0.69424E-04 
  57491.1691     0.68677E-04 
  57523.4313     0.67934E-04 
  57555.6934     0.67196E-04 
  57587.9556     0.66461E-04 
  57620.2178     0.65730E-04 
  57652.4799     0.65004E-04 
  57684.7421     0.64281E-04 
  57717.0042     0.63562E-04 
  57749.2664     0.62848E-04 
  57781.5286     0.62138E-04 
  57813.7907     0.61431E-04 
  57846.0529     0.60729E-04 
  57878.3150     0.60031E-04 
  57910.5772     0.59337E-04 
  57942.8394     0.58647E-04 
  57975.1015     0.57961E-04 
  58007.3637     0.57279E-04 
  58039.6258     0.56602E-04 
  58071.8880     0.55928E-04 
  58104.1502     0.55258E-04 
  58136.4123     0.54593E-04 
  58168.6745     0.53932E-04 
  58200.9366     0.53274E-04 
  58233.1988     0.52621E-04 
  58265.4610     0.51972E-04 
  58297.7231     0.51327E-04 
  58329.9853     0.50686E-04 
  58362.2474     0.50050E-04 
  58394.5096     0.49417E-04 
  58426.7718     0.48788E-04 
  58459.0339     0.48164E-04 
  58491.2961     0.47544E-04 
  58523.5582     0.46928E-04 
  58555.8204     0.46316E-04 
  58588.0826     0.45708E-04 
  58620.3447     0.45104E-04 
  58652.6069     0.44505E-04 
  58684.8690     0.43909E-04 
  58717.1312     0.43318E-04 
  58749.3934     0.42731E-04 
  58781.6555     0.42148E-04 
  58813.9177     0.41569E-04 
  58846.1798     0.40995E-04 
  58878.4420     0.40425E-04 
  58910.7042     0.39858E-04 
  58942.9663     0.39297E-04 
  58975.2285     0.38739E-04 
  59007.4906     0.38185E-04 
  59039.7528     0.37636E-04 
  59072.0150     0.37091E-04 
  59104.2771     0.36550E-04 
  59136.5393     0.36014E-04 
  59168.8014     0.35482E-04 
  59201.0636     0.34954E-04 
  59233.3258     0.34430E-04 
  59265.5879     0.33910E-04 
  59297.8501     0.33395E-04 
  59330.1122     0.32885E-04 
  59362.3744     0.32378E-04 
  59394.6366     0.31876E-04 
  59426.8987     0.31378E-04 
  59459.1609     0.30885E-04 
  59491.4230     0.30396E-04 
  59523.6852     0.29911E-04 
  59555.9474     0.29431E-04 
  59588.2095     0.28955E-04 
  59620.4717     0.28483E-04 
  59652.7338     0.28016E-04 
  59684.9960     0.27554E-04 
  59717.2582     0.27096E-04 
  59749.5203     0.26642E-04 
  59781.7825     0.26193E-04 
  59814.0446     0.25748E-04 
  59846.3068     0.25308E-04 
  59878.5690     0.24873E-04 
  59910.8311     0.24442E-04 
  59943.0933     0.24015E-04 
  59975.3554     0.23594E-04 
  60007.6176     0.23177E-04 
  60039.8798     0.22764E-04 
  60072.1419     0.22356E-04 
  60104.4041     0.21953E-04 
  60136.6662     0.21555E-04 
  60168.9284     0.21161E-04 
  60201.1906     0.20772E-04 
  60233.4527     0.20388E-04 
  60265.7149     0.20008E-04 
  60297.9770     0.19634E-04 
  60330.2392     0.19264E-04 
  60362.5014     0.18899E-04 
  60394.7635     0.18540E-04 
  60427.0257     0.18185E-04 
  60459.2878     0.17834E-04 
  60491.5500     0.17489E-04 
  60523.8122     0.17149E-04 
  60556.0743     0.16814E-04 
  60588.3365     0.16484E-04 
  60620.5986     0.16160E-04 
  60652.8608     0.15840E-04 
  60685.1230     0.15525E-04 
  60717.3851     0.15216E-04 
  60749.6473     0.14912E-04 
  60781.9094     0.14613E-04 
  60814.1716     0.14320E-04 
  60846.4338     0.14031E-04 
  60878.6959     0.13749E-04 
  60910.9581     0.13471E-04 
  60943.2202     0.13199E-04 
  60975.4824     0.12933E-04 
  61007.7446     0.12672E-04 
  61040.0067     0.12417E-04 
  61072.2689     0.12167E-04 
  61104.5310     0.11923E-04 
  61136.7932     0.11684E-04 
  61169.0554     0.11452E-04 
  61201.3175     0.11225E-04 
  61233.5797     0.11004E-04 
  61265.8418     0.10789E-04 
  61298.1040     0.10579E-04 
  61330.3662     0.10376E-04 
  61362.6283     0.10179E-04 
  61394.8905     0.99877E-05 
  61427.1526     0.98026E-05 
  61459.4148     0.96238E-05 
  61491.6770     0.94512E-05 
  61523.9391     0.92849E-05 
  61556.2013     0.91249E-05 
  61588.4634     0.89713E-05 
  61620.7256     0.88242E-05 
  61652.9878     0.86836E-05 
  61685.2499     0.85496E-05 
  61717.5121     0.84222E-05 
  61749.7742     0.83016E-05 
  61782.0364     0.81877E-05 
  61814.2986     0.80806E-05 
  61846.5607     0.79804E-05 
  61878.8229     0.78872E-05 
  61911.0850     0.78010E-05 
  61943.3472     0.77219E-05 
  61975.6094     0.76500E-05 
  62007.8715     0.75853E-05 
  62040.1337     0.75279E-05 
  62072.3958     0.74779E-05 
  62104.6580     0.74354E-05 
  62136.9202     0.74005E-05 
  62169.1823     0.73731E-05 
  62201.4445     0.73534E-05 
  62233.7066     0.73415E-05 
  62265.9688     0.73375E-05 
  62298.2310     0.73414E-05 
  62330.4931     0.73534E-05 
  62362.7553     0.73734E-05 
  62395.0174     0.74017E-05 
  62427.2796     0.74382E-05 
  62459.5418     0.74831E-05 
  62491.8039     0.75365E-05 
  62524.0661     0.75984E-05 
  62556.3282     0.76690E-05 
  62588.5904     0.77484E-05 
  62620.8526     0.78366E-05 
  62653.1147     0.79337E-05 
  62685.3769     0.80399E-05 
  62717.6390     0.81553E-05 
  62749.9012     0.82799E-05 
  62782.1634     0.84139E-05 
  62814.4255     0.85573E-05 
  62846.6877     0.87103E-05 
  62878.9498     0.88730E-05 
  62911.2120     0.90454E-05 
  62943.4742     0.92278E-05 
  62975.7363     0.94202E-05 
  63007.9985     0.96228E-05 
  63040.2606     0.98356E-05 
  63072.5228     0.10059E-04 
  63104.7850     0.10292E-04 
  63137.0471     0.10537E-04 
  63169.3093     0.10792E-04 
  63201.5714     0.11058E-04 
  63233.8336     0.11335E-04 
  63266.0958     0.11623E-04 
  63298.3579     0.11922E-04 
  63330.6201     0.12233E-04 
  63362.8822     0.12555E-04 
  63395.1444     0.12889E-04 
  63427.4066     0.13234E-04 
  63459.6687     0.13592E-04 
  63491.9309     0.13962E-04 
  63524.1930     0.14344E-04 
  63556.4552     0.14738E-04 
  63588.7174     0.15145E-04 
  63620.9795     0.15564E-04 
  63653.2417     0.15997E-04 
  63685.5038     0.16442E-04 
  63717.7660     0.16901E-04 
  63750.0282     0.17372E-04 
  63782.2903     0.17858E-04 
  63814.5525     0.18357E-04 
  63846.8146     0.18869E-04 
  63879.0768     0.19396E-04 
  63911.3390     0.19937E-04 
  63943.6011     0.20492E-04 
  63975.8633     0.21061E-04 
  64008.1254     0.21645E-04 
  64040.3876     0.22244E-04 
  64072.6498     0.22858E-04 
  64104.9119     0.23487E-04 
  64137.1741     0.24132E-04 
  64169.4362     0.24792E-04 
  64201.6984     0.25468E-04 
  64233.9606     0.26159E-04 
  64266.2227     0.26867E-04 
  64298.4849     0.27591E-04 
  64330.7470     0.28332E-04 
  64363.0092     0.29089E-04 
  64395.2714     0.29864E-04 
  64427.5335     0.30655E-04 
  64459.7957     0.31464E-04 
  64492.0578     0.32290E-04 
  64524.3200     0.33134E-04 
  64556.5822     0.33995E-04 
  64588.8443     0.34875E-04 
  64621.1065     0.35774E-04 
  64653.3686     0.36691E-04 
  64685.6308     0.37626E-04 
  64717.8930     0.38581E-04 
  64750.1551     0.39555E-04 
  64782.4173     0.40549E-04 
  64814.6794     0.41562E-04 
  64846.9416     0.42595E-04 
  64879.2038     0.43649E-04 
  64911.4659     0.44722E-04 
  64943.7281     0.45817E-04 
  64975.9902     0.46932E-04 
  65008.2524     0.48069E-04 
  65040.5146     0.49227E-04 
  65072.7767     0.50406E-04 
  65105.0389     0.51607E-04 
  65137.3010     0.52831E-04 
  65169.5632     0.54077E-04 
  65201.8254     0.55346E-04 
  65234.0875     0.56637E-04 
  65266.3497     0.57952E-04 
  65298.6118     0.59290E-04 
  65330.8740     0.60652E-04 
  65363.1362     0.62038E-04 
  65395.3983     0.63448E-04 
  65427.6605     0.64883E-04 
  65459.9226     0.66342E-04 
  65492.1848     0.67827E-04 
  65524.4470     0.69337E-04 
  65556.7091     0.70873E-04 
  65588.9713     0.72434E-04 
  65621.2334     0.74022E-04 
  65653.4956     0.75637E-04 
  65685.7578     0.77278E-04 
  65718.0199     0.78946E-04 
  65750.2821     0.80642E-04 
  65782.5442     0.82366E-04 
  65814.8064     0.84117E-04 
  65847.0686     0.85897E-04 
  65879.3307     0.87706E-04 
  65911.5929     0.89543E-04 
  65943.8550     0.91410E-04 
  65976.1172     0.93307E-04 
  66008.3794     0.95233E-04 
  66040.6415     0.97189E-04 
  66072.9037     0.99177E-04 
  66105.1658     0.10119E-03 
  66137.4280     0.10324E-03 
  66169.6902     0.10532E-03 
  66201.9523     0.10744E-03 
  66234.2145     0.10958E-03 
  66266.4766     0.11176E-03 
  66298.7388     0.11397E-03 
  66331.0010     0.11621E-03 
  66363.2631     0.11849E-03 
  66395.5253     0.12080E-03 
  66427.7874     0.12315E-03 
  66460.0496     0.12553E-03 
  66492.3118     0.12794E-03 
  66524.5739     0.13039E-03 
  66556.8361     0.13288E-03 
  66589.0982     0.13540E-03 
  66621.3604     0.13796E-03 
  66653.6226     0.14055E-03 
  66685.8847     0.14319E-03 
  66718.1469     0.14586E-03 
  66750.4090     0.14856E-03 
  66782.6712     0.15131E-03 
  66814.9334     0.15410E-03 
  66847.1955     0.15692E-03 
  66879.4577     0.15978E-03 
  66911.7198     0.16269E-03 
  66943.9820     0.16563E-03 
  66976.2442     0.16861E-03 
  67008.5063     0.17164E-03 
  67040.7685     0.17470E-03 
  67073.0306     0.17781E-03 
  67105.2928     0.18096E-03 
  67137.5550     0.18415E-03 
  67169.8171     0.18739E-03 
  67202.0793     0.19067E-03 
  67234.3414     0.19399E-03 
  67266.6036     0.19735E-03 
  67298.8658     0.20077E-03 
  67331.1279     0.20422E-03 
  67363.3901     0.20772E-03 
  67395.6522     0.21127E-03 
  67427.9144     0.21486E-03 
  67460.1766     0.21850E-03 
  67492.4387     0.22219E-03 
  67524.7009     0.22592E-03 
  67556.9630     0.22970E-03 
  67589.2252     0.23353E-03 
  67621.4874     0.23741E-03 
  67653.7495     0.24134E-03 
  67686.0117     0.24532E-03 
  67718.2738     0.24934E-03 
  67750.5360     0.25342E-03 
  67782.7982     0.25755E-03 
  67815.0603     0.26173E-03 
  67847.3225     0.26596E-03 
  67879.5846     0.27024E-03 
  67911.8468     0.27457E-03 
  67944.1090     0.27896E-03 
  67976.3711     0.28340E-03 
  68008.6333     0.28790E-03 
  68040.8954     0.29245E-03 
  68073.1576     0.29705E-03 
  68105.4198     0.30171E-03 
  68137.6819     0.30643E-03 
  68169.9441     0.31120E-03 
  68202.2062     0.31602E-03 
  68234.4684     0.32091E-03 
  68266.7306     0.32585E-03 
  68298.9927     0.33085E-03 
  68331.2549     0.33590E-03 
  68363.5170     0.34102E-03 
  68395.7792     0.34619E-03 
  68428.0414     0.35143E-03 
  68460.3035     0.35672E-03 
  68492.5657     0.36207E-03 
  68524.8278     0.36749E-03 
  68557.0900     0.37296E-03 
  68589.3522     0.37850E-03 
  68621.6143     0.38410E-03 
  68653.8765     0.38976E-03 
  68686.1386     0.39549E-03 
  68718.4008     0.40128E-03 
  68750.6630     0.40713E-03 
  68782.9251     0.41305E-03 
  68815.1873     0.41903E-03 
  68847.4494     0.42507E-03 
  68879.7116     0.43119E-03 
  68911.9738     0.43736E-03 
  68944.2359     0.44361E-03 
  68976.4981     0.44992E-03 
  69008.7602     0.45630E-03 
  69041.0224     0.46275E-03 
  69073.2846     0.46926E-03 
  69105.5467     0.47585E-03 
  69137.8089     0.48250E-03 
  69170.0710     0.48922E-03 
  69202.3332     0.49601E-03 
  69234.5954     0.50288E-03 
  69266.8575     0.50981E-03 
  69299.1197     0.51682E-03 
  69331.3818     0.52389E-03 
  69363.6440     0.53104E-03 
  69395.9062     0.53826E-03 
  69428.1683     0.54556E-03 
  69460.4305     0.55293E-03 
  69492.6926     0.56037E-03 
  69524.9548     0.56788E-03 
  69557.2170     0.57547E-03 
  69589.4791     0.58314E-03 
  69621.7413     0.59088E-03 
  69654.0034     0.59870E-03 
  69686.2656     0.60659E-03 
  69718.5278     0.61456E-03 
  69750.7899     0.62261E-03 
  69783.0521     0.63073E-03 
  69815.3142     0.63893E-03 
  69847.5764     0.64721E-03 
  69879.8386     0.65557E-03 
  69912.1007     0.66401E-03 
  69944.3629     0.67253E-03 
  69976.6250     0.68113E-03 
  70008.8872     0.68980E-03 
  70041.1494     0.69856E-03 
  70073.4115     0.70740E-03 
  70105.6737     0.71632E-03 
  70137.9358     0.72533E-03 
  70170.1980     0.73441E-03 
  70202.4602     0.74358E-03 
  70234.7223     0.75283E-03 
  70266.9845     0.76216E-03 
  70299.2466     0.77158E-03 
  70331.5088     0.78108E-03 
  70363.7710     0.79066E-03 
  70396.0331     0.80033E-03 
  70428.2953     0.81009E-03 
  70460.5574     0.81992E-03 
  70492.8196     0.82985E-03 
  70525.0818     0.83986E-03 
  70557.3439     0.84996E-03 
  70589.6061     0.86014E-03 
  70621.8682     0.87041E-03 
  70654.1304     0.88077E-03 
  70686.3926     0.89121E-03 
  70718.6547     0.90175E-03 
  70750.9169     0.91237E-03 
  70783.1790     0.92308E-03 
  70815.4412     0.93387E-03 
  70847.7034     0.94476E-03 
  70879.9655     0.95574E-03 
  70912.2277     0.96680E-03 
  70944.4898     0.97796E-03 
  70976.7520     0.98920E-03 
  71009.0142     0.10005E-02 
  71041.2763     0.10120E-02 
  71073.5385     0.10235E-02 
  71105.8006     0.10351E-02 
  71138.0628     0.10468E-02 
  71170.3250     0.10586E-02 
  71202.5871     0.10705E-02 
  71234.8493     0.10824E-02 
  71267.1114     0.10945E-02 
  71299.3736     0.11067E-02 
  71331.6358     0.11189E-02 
  71363.8979     0.11312E-02 
  71396.1601     0.11437E-02 
  71428.4222     0.11562E-02 
  71460.6844     0.11688E-02 
  71492.9466     0.11816E-02 
  71525.2087     0.11944E-02 
  71557.4709     0.12073E-02 
  71589.7330     0.12203E-02 
  71621.9952     0.12334E-02 
  71654.2574     0.12465E-02 
  71686.5195     0.12598E-02 
  71718.7817     0.12732E-02 
  71751.0438     0.12867E-02 
  71783.3060     0.13002E-02 
  71815.5682     0.13139E-02 
  71847.8303     0.13276E-02 
  71880.0925     0.13415E-02 
  71912.3546     0.13554E-02 
  71944.6168     0.13695E-02 
  71976.8790     0.13836E-02 
  72009.1411     0.13978E-02 
  72041.4033     0.14121E-02 
  72073.6654     0.14266E-02 
  72105.9276     0.14411E-02 
  72138.1898     0.14557E-02 
  72170.4519     0.14704E-02 
  72202.7141     0.14852E-02 
  72234.9762     0.15001E-02 
  72267.2384     0.15151E-02 
  72299.5006     0.15302E-02 
  72331.7627     0.15453E-02 
  72364.0249     0.15606E-02 
  72396.2870     0.15760E-02 
  72428.5492     0.15915E-02 
  72460.8114     0.16070E-02 
  72493.0735     0.16227E-02 
  72525.3357     0.16384E-02 
  72557.5978     0.16543E-02 
  72589.8600     0.16702E-02 
