  32262.1600     0.76483E-02 
  32294.4222     0.77235E-02 
  32326.6843     0.77992E-02 
  32358.9465     0.78753E-02 
  32391.2086     0.79520E-02 
  32423.4708     0.80290E-02 
  32455.7330     0.81066E-02 
  32487.9951     0.81846E-02 
  32520.2573     0.82631E-02 
  32552.5194     0.83421E-02 
  32584.7816     0.84215E-02 
  32617.0438     0.85015E-02 
  32649.3059     0.85818E-02 
  32681.5681     0.86627E-02 
  32713.8302     0.87440E-02 
  32746.0924     0.88258E-02 
  32778.3546     0.89081E-02 
  32810.6167     0.89908E-02 
  32842.8789     0.90740E-02 
  32875.1410     0.91576E-02 
  32907.4032     0.92417E-02 
  32939.6654     0.93263E-02 
  32971.9275     0.94114E-02 
  33004.1897     0.94969E-02 
  33036.4518     0.95828E-02 
  33068.7140     0.96692E-02 
  33100.9762     0.97561E-02 
  33133.2383     0.98435E-02 
  33165.5005     0.99313E-02 
  33197.7626     0.10020E-01 
  33230.0248     0.10108E-01 
  33262.2870     0.10197E-01 
  33294.5491     0.10287E-01 
  33326.8113     0.10377E-01 
  33359.0734     0.10468E-01 
  33391.3356     0.10558E-01 
  33423.5978     0.10650E-01 
  33455.8599     0.10742E-01 
  33488.1221     0.10834E-01 
  33520.3842     0.10927E-01 
  33552.6464     0.11020E-01 
  33584.9086     0.11113E-01 
  33617.1707     0.11207E-01 
  33649.4329     0.11302E-01 
  33681.6950     0.11397E-01 
  33713.9572     0.11492E-01 
  33746.2194     0.11588E-01 
  33778.4815     0.11684E-01 
  33810.7437     0.11781E-01 
  33843.0058     0.11878E-01 
  33875.2680     0.11975E-01 
  33907.5302     0.12073E-01 
  33939.7923     0.12171E-01 
  33972.0545     0.12270E-01 
  34004.3166     0.12369E-01 
  34036.5788     0.12469E-01 
  34068.8410     0.12568E-01 
  34101.1031     0.12669E-01 
  34133.3653     0.12769E-01 
  34165.6274     0.12870E-01 
  34197.8896     0.12972E-01 
  34230.1518     0.13074E-01 
  34262.4139     0.13176E-01 
  34294.6761     0.13279E-01 
  34326.9382     0.13382E-01 
  34359.2004     0.13485E-01 
  34391.4626     0.13589E-01 
  34423.7247     0.13693E-01 
  34455.9869     0.13798E-01 
  34488.2490     0.13903E-01 
  34520.5112     0.14008E-01 
  34552.7734     0.14114E-01 
  34585.0355     0.14220E-01 
  34617.2977     0.14326E-01 
  34649.5598     0.14433E-01 
  34681.8220     0.14540E-01 
  34714.0842     0.14647E-01 
  34746.3463     0.14755E-01 
  34778.6085     0.14863E-01 
  34810.8706     0.14971E-01 
  34843.1328     0.15080E-01 
  34875.3950     0.15189E-01 
  34907.6571     0.15298E-01 
  34939.9193     0.15408E-01 
  34972.1814     0.15518E-01 
  35004.4436     0.15629E-01 
  35036.7058     0.15739E-01 
  35068.9679     0.15850E-01 
  35101.2301     0.15961E-01 
  35133.4922     0.16073E-01 
  35165.7544     0.16185E-01 
  35198.0166     0.16297E-01 
  35230.2787     0.16409E-01 
  35262.5409     0.16522E-01 
  35294.8030     0.16635E-01 
  35327.0652     0.16748E-01 
  35359.3274     0.16862E-01 
  35391.5895     0.16976E-01 
  35423.8517     0.17090E-01 
  35456.1138     0.17204E-01 
  35488.3760     0.17319E-01 
  35520.6382     0.17433E-01 
  35552.9003     0.17548E-01 
  35585.1625     0.17664E-01 
  35617.4246     0.17779E-01 
  35649.6868     0.17895E-01 
  35681.9490     0.18011E-01 
  35714.2111     0.18127E-01 
  35746.4733     0.18243E-01 
  35778.7354     0.18360E-01 
  35810.9976     0.18477E-01 
  35843.2598     0.18594E-01 
  35875.5219     0.18711E-01 
  35907.7841     0.18829E-01 
  35940.0462     0.18946E-01 
  35972.3084     0.19064E-01 
  36004.5706     0.19182E-01 
  36036.8327     0.19300E-01 
  36069.0949     0.19418E-01 
  36101.3570     0.19537E-01 
  36133.6192     0.19655E-01 
  36165.8814     0.19774E-01 
  36198.1435     0.19893E-01 
  36230.4057     0.20012E-01 
  36262.6678     0.20131E-01 
  36294.9300     0.20250E-01 
  36327.1922     0.20370E-01 
  36359.4543     0.20489E-01 
  36391.7165     0.20609E-01 
  36423.9786     0.20729E-01 
  36456.2408     0.20848E-01 
  36488.5030     0.20968E-01 
  36520.7651     0.21088E-01 
  36553.0273     0.21209E-01 
  36585.2894     0.21329E-01 
  36617.5516     0.21449E-01 
  36649.8138     0.21569E-01 
  36682.0759     0.21690E-01 
  36714.3381     0.21810E-01 
  36746.6002     0.21931E-01 
  36778.8624     0.22051E-01 
  36811.1246     0.22172E-01 
  36843.3867     0.22293E-01 
  36875.6489     0.22413E-01 
  36907.9110     0.22534E-01 
  36940.1732     0.22655E-01 
  36972.4354     0.22775E-01 
  37004.6975     0.22896E-01 
  37036.9597     0.23017E-01 
  37069.2218     0.23138E-01 
  37101.4840     0.23258E-01 
  37133.7462     0.23379E-01 
  37166.0083     0.23500E-01 
  37198.2705     0.23620E-01 
  37230.5326     0.23741E-01 
  37262.7948     0.23861E-01 
  37295.0570     0.23982E-01 
  37327.3191     0.24102E-01 
  37359.5813     0.24223E-01 
  37391.8434     0.24343E-01 
  37424.1056     0.24463E-01 
  37456.3678     0.24583E-01 
  37488.6299     0.24704E-01 
  37520.8921     0.24824E-01 
  37553.1542     0.24943E-01 
  37585.4164     0.25063E-01 
  37617.6786     0.25183E-01 
  37649.9407     0.25302E-01 
  37682.2029     0.25422E-01 
  37714.4650     0.25541E-01 
  37746.7272     0.25660E-01 
  37778.9894     0.25779E-01 
  37811.2515     0.25898E-01 
  37843.5137     0.26017E-01 
  37875.7758     0.26136E-01 
  37908.0380     0.26254E-01 
  37940.3002     0.26372E-01 
  37972.5623     0.26490E-01 
  38004.8245     0.26608E-01 
  38037.0866     0.26726E-01 
  38069.3488     0.26843E-01 
  38101.6110     0.26961E-01 
  38133.8731     0.27078E-01 
  38166.1353     0.27195E-01 
  38198.3974     0.27311E-01 
  38230.6596     0.27428E-01 
  38262.9218     0.27544E-01 
  38295.1839     0.27660E-01 
  38327.4461     0.27776E-01 
  38359.7082     0.27891E-01 
  38391.9704     0.28006E-01 
  38424.2326     0.28121E-01 
  38456.4947     0.28236E-01 
  38488.7569     0.28350E-01 
  38521.0190     0.28464E-01 
  38553.2812     0.28578E-01 
  38585.5434     0.28692E-01 
  38617.8055     0.28805E-01 
  38650.0677     0.28918E-01 
  38682.3298     0.29030E-01 
  38714.5920     0.29143E-01 
  38746.8542     0.29255E-01 
  38779.1163     0.29366E-01 
  38811.3785     0.29477E-01 
  38843.6406     0.29588E-01 
  38875.9028     0.29699E-01 
  38908.1650     0.29809E-01 
  38940.4271     0.29919E-01 
  38972.6893     0.30028E-01 
  39004.9514     0.30138E-01 
  39037.2136     0.30246E-01 
  39069.4758     0.30355E-01 
  39101.7379     0.30463E-01 
  39134.0001     0.30570E-01 
  39166.2622     0.30677E-01 
  39198.5244     0.30784E-01 
  39230.7866     0.30890E-01 
  39263.0487     0.30996E-01 
  39295.3109     0.31102E-01 
  39327.5730     0.31207E-01 
  39359.8352     0.31311E-01 
  39392.0974     0.31415E-01 
  39424.3595     0.31519E-01 
  39456.6217     0.31622E-01 
  39488.8838     0.31725E-01 
  39521.1460     0.31827E-01 
  39553.4082     0.31929E-01 
  39585.6703     0.32030E-01 
  39617.9325     0.32131E-01 
  39650.1946     0.32232E-01 
  39682.4568     0.32331E-01 
  39714.7190     0.32431E-01 
  39746.9811     0.32530E-01 
  39779.2433     0.32628E-01 
  39811.5054     0.32726E-01 
  39843.7676     0.32823E-01 
  39876.0298     0.32920E-01 
  39908.2919     0.33016E-01 
  39940.5541     0.33112E-01 
  39972.8162     0.33207E-01 
  40005.0784     0.33301E-01 
  40037.3406     0.33395E-01 
  40069.6027     0.33489E-01 
  40101.8649     0.33582E-01 
  40134.1270     0.33674E-01 
  40166.3892     0.33766E-01 
  40198.6514     0.33857E-01 
  40230.9135     0.33947E-01 
  40263.1757     0.34037E-01 
  40295.4378     0.34127E-01 
  40327.7000     0.34215E-01 
  40359.9622     0.34304E-01 
  40392.2243     0.34391E-01 
  40424.4865     0.34478E-01 
  40456.7486     0.34564E-01 
  40489.0108     0.34650E-01 
  40521.2730     0.34735E-01 
  40553.5351     0.34820E-01 
  40585.7973     0.34903E-01 
  40618.0594     0.34986E-01 
  40650.3216     0.35069E-01 
  40682.5838     0.35151E-01 
  40714.8459     0.35232E-01 
  40747.1081     0.35312E-01 
  40779.3702     0.35392E-01 
  40811.6324     0.35471E-01 
  40843.8946     0.35550E-01 
  40876.1567     0.35628E-01 
  40908.4189     0.35705E-01 
  40940.6810     0.35781E-01 
  40972.9432     0.35857E-01 
  41005.2054     0.35932E-01 
  41037.4675     0.36006E-01 
  41069.7297     0.36080E-01 
  41101.9918     0.36153E-01 
  41134.2540     0.36225E-01 
  41166.5162     0.36296E-01 
  41198.7783     0.36367E-01 
  41231.0405     0.36437E-01 
  41263.3026     0.36506E-01 
  41295.5648     0.36575E-01 
  41327.8270     0.36643E-01 
  41360.0891     0.36710E-01 
  41392.3513     0.36776E-01 
  41424.6134     0.36842E-01 
  41456.8756     0.36907E-01 
  41489.1378     0.36971E-01 
  41521.3999     0.37034E-01 
  41553.6621     0.37097E-01 
  41585.9242     0.37158E-01 
  41618.1864     0.37219E-01 
  41650.4486     0.37280E-01 
  41682.7107     0.37339E-01 
  41714.9729     0.37398E-01 
  41747.2350     0.37456E-01 
  41779.4972     0.37513E-01 
  41811.7594     0.37569E-01 
  41844.0215     0.37625E-01 
  41876.2837     0.37680E-01 
  41908.5458     0.37734E-01 
  41940.8080     0.37787E-01 
  41973.0702     0.37839E-01 
  42005.3323     0.37891E-01 
  42037.5945     0.37942E-01 
  42069.8566     0.37992E-01 
  42102.1188     0.38041E-01 
  42134.3810     0.38089E-01 
  42166.6431     0.38137E-01 
  42198.9053     0.38184E-01 
  42231.1674     0.38230E-01 
  42263.4296     0.38275E-01 
  42295.6918     0.38319E-01 
  42327.9539     0.38363E-01 
  42360.2161     0.38405E-01 
  42392.4782     0.38447E-01 
  42424.7404     0.38488E-01 
  42457.0026     0.38528E-01 
  42489.2647     0.38568E-01 
  42521.5269     0.38606E-01 
  42553.7890     0.38644E-01 
  42586.0512     0.38681E-01 
  42618.3134     0.38717E-01 
  42650.5755     0.38752E-01 
  42682.8377     0.38786E-01 
  42715.0998     0.38820E-01 
  42747.3620     0.38852E-01 
  42779.6242     0.38884E-01 
  42811.8863     0.38915E-01 
  42844.1485     0.38945E-01 
  42876.4106     0.38975E-01 
  42908.6728     0.39003E-01 
  42940.9350     0.39031E-01 
  42973.1971     0.39057E-01 
  43005.4593     0.39083E-01 
  43037.7214     0.39108E-01 
  43069.9836     0.39132E-01 
  43102.2458     0.39156E-01 
  43134.5079     0.39178E-01 
  43166.7701     0.39200E-01 
  43199.0322     0.39220E-01 
  43231.2944     0.39240E-01 
  43263.5566     0.39259E-01 
  43295.8187     0.39277E-01 
  43328.0809     0.39295E-01 
  43360.3430     0.39311E-01 
  43392.6052     0.39327E-01 
  43424.8674     0.39341E-01 
  43457.1295     0.39355E-01 
  43489.3917     0.39368E-01 
  43521.6538     0.39381E-01 
  43553.9160     0.39392E-01 
  43586.1782     0.39402E-01 
  43618.4403     0.39412E-01 
  43650.7025     0.39421E-01 
  43682.9646     0.39428E-01 
  43715.2268     0.39436E-01 
  43747.4890     0.39442E-01 
  43779.7511     0.39447E-01 
  43812.0133     0.39451E-01 
  43844.2754     0.39455E-01 
  43876.5376     0.39458E-01 
  43908.7998     0.39460E-01 
  43941.0619     0.39461E-01 
  43973.3241     0.39461E-01 
  44005.5862     0.39460E-01 
  44037.8484     0.39459E-01 
  44070.1106     0.39456E-01 
  44102.3727     0.39453E-01 
  44134.6349     0.39449E-01 
  44166.8970     0.39444E-01 
  44199.1592     0.39439E-01 
  44231.4214     0.39432E-01 
  44263.6835     0.39425E-01 
  44295.9457     0.39416E-01 
  44328.2078     0.39407E-01 
  44360.4700     0.39397E-01 
  44392.7322     0.39387E-01 
  44424.9943     0.39375E-01 
  44457.2565     0.39363E-01 
  44489.5186     0.39349E-01 
  44521.7808     0.39335E-01 
  44554.0430     0.39320E-01 
  44586.3051     0.39304E-01 
  44618.5673     0.39288E-01 
  44650.8294     0.39271E-01 
  44683.0916     0.39252E-01 
  44715.3538     0.39233E-01 
  44747.6159     0.39213E-01 
  44779.8781     0.39193E-01 
  44812.1402     0.39171E-01 
  44844.4024     0.39149E-01 
  44876.6646     0.39126E-01 
  44908.9267     0.39102E-01 
  44941.1889     0.39077E-01 
  44973.4510     0.39052E-01 
  45005.7132     0.39025E-01 
  45037.9754     0.38998E-01 
  45070.2375     0.38970E-01 
  45102.4997     0.38942E-01 
  45134.7618     0.38912E-01 
  45167.0240     0.38882E-01 
  45199.2862     0.38851E-01 
  45231.5483     0.38819E-01 
  45263.8105     0.38786E-01 
  45296.0726     0.38753E-01 
  45328.3348     0.38719E-01 
  45360.5970     0.38684E-01 
  45392.8591     0.38648E-01 
  45425.1213     0.38612E-01 
  45457.3834     0.38575E-01 
  45489.6456     0.38537E-01 
  45521.9078     0.38498E-01 
  45554.1699     0.38458E-01 
  45586.4321     0.38418E-01 
  45618.6942     0.38377E-01 
  45650.9564     0.38335E-01 
  45683.2186     0.38293E-01 
  45715.4807     0.38250E-01 
  45747.7429     0.38206E-01 
  45780.0050     0.38161E-01 
  45812.2672     0.38116E-01 
  45844.5294     0.38070E-01 
  45876.7915     0.38023E-01 
  45909.0537     0.37975E-01 
  45941.3158     0.37927E-01 
  45973.5780     0.37878E-01 
  46005.8402     0.37828E-01 
  46038.1023     0.37778E-01 
  46070.3645     0.37727E-01 
  46102.6266     0.37675E-01 
  46134.8888     0.37622E-01 
  46167.1510     0.37569E-01 
  46199.4131     0.37515E-01 
  46231.6753     0.37461E-01 
  46263.9374     0.37405E-01 
  46296.1996     0.37350E-01 
  46328.4618     0.37293E-01 
  46360.7239     0.37236E-01 
  46392.9861     0.37178E-01 
  46425.2482     0.37119E-01 
  46457.5104     0.37060E-01 
  46489.7726     0.37000E-01 
  46522.0347     0.36940E-01 
  46554.2969     0.36878E-01 
  46586.5590     0.36817E-01 
  46618.8212     0.36754E-01 
  46651.0834     0.36691E-01 
  46683.3455     0.36627E-01 
  46715.6077     0.36563E-01 
  46747.8698     0.36498E-01 
  46780.1320     0.36433E-01 
  46812.3942     0.36367E-01 
  46844.6563     0.36300E-01 
  46876.9185     0.36232E-01 
  46909.1806     0.36164E-01 
  46941.4428     0.36096E-01 
  46973.7050     0.36027E-01 
  47005.9671     0.35957E-01 
  47038.2293     0.35887E-01 
  47070.4914     0.35816E-01 
  47102.7536     0.35744E-01 
  47135.0158     0.35672E-01 
  47167.2779     0.35600E-01 
  47199.5401     0.35527E-01 
  47231.8022     0.35453E-01 
  47264.0644     0.35379E-01 
  47296.3266     0.35304E-01 
  47328.5887     0.35229E-01 
  47360.8509     0.35153E-01 
  47393.1130     0.35076E-01 
  47425.3752     0.34999E-01 
  47457.6374     0.34922E-01 
  47489.8995     0.34844E-01 
  47522.1617     0.34766E-01 
  47554.4238     0.34687E-01 
  47586.6860     0.34607E-01 
  47618.9482     0.34527E-01 
  47651.2103     0.34447E-01 
  47683.4725     0.34366E-01 
  47715.7346     0.34284E-01 
  47747.9968     0.34202E-01 
  47780.2590     0.34120E-01 
  47812.5211     0.34037E-01 
  47844.7833     0.33954E-01 
  47877.0454     0.33870E-01 
  47909.3076     0.33785E-01 
  47941.5698     0.33701E-01 
  47973.8319     0.33616E-01 
  48006.0941     0.33530E-01 
  48038.3562     0.33444E-01 
  48070.6184     0.33357E-01 
  48102.8806     0.33270E-01 
  48135.1427     0.33183E-01 
  48167.4049     0.33095E-01 
  48199.6670     0.33007E-01 
  48231.9292     0.32919E-01 
  48264.1914     0.32830E-01 
  48296.4535     0.32740E-01 
  48328.7157     0.32650E-01 
  48360.9778     0.32560E-01 
  48393.2400     0.32470E-01 
  48425.5022     0.32379E-01 
  48457.7643     0.32287E-01 
  48490.0265     0.32196E-01 
  48522.2886     0.32103E-01 
  48554.5508     0.32011E-01 
  48586.8130     0.31918E-01 
  48619.0751     0.31825E-01 
  48651.3373     0.31732E-01 
  48683.5994     0.31638E-01 
  48715.8616     0.31544E-01 
  48748.1238     0.31449E-01 
  48780.3859     0.31354E-01 
  48812.6481     0.31259E-01 
  48844.9102     0.31164E-01 
  48877.1724     0.31068E-01 
  48909.4346     0.30972E-01 
  48941.6967     0.30875E-01 
  48973.9589     0.30778E-01 
  49006.2210     0.30681E-01 
  49038.4832     0.30584E-01 
  49070.7454     0.30486E-01 
  49103.0075     0.30389E-01 
  49135.2697     0.30290E-01 
  49167.5318     0.30192E-01 
  49199.7940     0.30093E-01 
  49232.0562     0.29994E-01 
  49264.3183     0.29895E-01 
  49296.5805     0.29796E-01 
  49328.8426     0.29696E-01 
  49361.1048     0.29596E-01 
  49393.3670     0.29496E-01 
  49425.6291     0.29395E-01 
  49457.8913     0.29294E-01 
  49490.1534     0.29194E-01 
  49522.4156     0.29092E-01 
  49554.6778     0.28991E-01 
  49586.9399     0.28889E-01 
  49619.2021     0.28788E-01 
  49651.4642     0.28686E-01 
  49683.7264     0.28584E-01 
  49715.9886     0.28481E-01 
  49748.2507     0.28379E-01 
  49780.5129     0.28276E-01 
  49812.7750     0.28173E-01 
  49845.0372     0.28070E-01 
  49877.2994     0.27966E-01 
  49909.5615     0.27863E-01 
  49941.8237     0.27759E-01 
  49974.0858     0.27656E-01 
  50006.3480     0.27552E-01 
  50038.6102     0.27448E-01 
  50070.8723     0.27343E-01 
  50103.1345     0.27239E-01 
  50135.3966     0.27134E-01 
  50167.6588     0.27030E-01 
  50199.9210     0.26925E-01 
  50232.1831     0.26820E-01 
  50264.4453     0.26715E-01 
  50296.7074     0.26610E-01 
  50328.9696     0.26505E-01 
  50361.2318     0.26399E-01 
  50393.4939     0.26294E-01 
  50425.7561     0.26188E-01 
  50458.0182     0.26083E-01 
  50490.2804     0.25977E-01 
  50522.5426     0.25871E-01 
  50554.8047     0.25765E-01 
  50587.0669     0.25659E-01 
  50619.3290     0.25553E-01 
  50651.5912     0.25447E-01 
  50683.8534     0.25341E-01 
  50716.1155     0.25235E-01 
  50748.3777     0.25128E-01 
  50780.6398     0.25022E-01 
  50812.9020     0.24915E-01 
  50845.1642     0.24809E-01 
  50877.4263     0.24702E-01 
  50909.6885     0.24596E-01 
  50941.9506     0.24489E-01 
  50974.2128     0.24383E-01 
  51006.4750     0.24276E-01 
  51038.7371     0.24169E-01 
  51070.9993     0.24063E-01 
  51103.2614     0.23956E-01 
  51135.5236     0.23849E-01 
  51167.7858     0.23743E-01 
  51200.0479     0.23636E-01 
  51232.3101     0.23529E-01 
  51264.5722     0.23422E-01 
  51296.8344     0.23316E-01 
  51329.0966     0.23209E-01 
  51361.3587     0.23102E-01 
  51393.6209     0.22996E-01 
  51425.8830     0.22889E-01 
  51458.1452     0.22782E-01 
  51490.4074     0.22676E-01 
  51522.6695     0.22569E-01 
  51554.9317     0.22463E-01 
  51587.1938     0.22356E-01 
  51619.4560     0.22250E-01 
  51651.7182     0.22143E-01 
  51683.9803     0.22037E-01 
  51716.2425     0.21931E-01 
  51748.5046     0.21825E-01 
  51780.7668     0.21718E-01 
  51813.0290     0.21612E-01 
  51845.2911     0.21506E-01 
  51877.5533     0.21400E-01 
  51909.8154     0.21294E-01 
  51942.0776     0.21189E-01 
  51974.3398     0.21083E-01 
  52006.6019     0.20977E-01 
  52038.8641     0.20872E-01 
  52071.1262     0.20766E-01 
  52103.3884     0.20661E-01 
  52135.6506     0.20555E-01 
  52167.9127     0.20450E-01 
  52200.1749     0.20345E-01 
  52232.4370     0.20240E-01 
  52264.6992     0.20135E-01 
  52296.9614     0.20031E-01 
  52329.2235     0.19926E-01 
  52361.4857     0.19821E-01 
  52393.7478     0.19717E-01 
  52426.0100     0.19613E-01 
  52458.2722     0.19508E-01 
  52490.5343     0.19404E-01 
  52522.7965     0.19300E-01 
  52555.0586     0.19197E-01 
  52587.3208     0.19093E-01 
  52619.5830     0.18989E-01 
  52651.8451     0.18886E-01 
  52684.1073     0.18783E-01 
  52716.3694     0.18680E-01 
  52748.6316     0.18577E-01 
  52780.8938     0.18474E-01 
  52813.1559     0.18371E-01 
  52845.4181     0.18269E-01 
  52877.6802     0.18167E-01 
  52909.9424     0.18065E-01 
  52942.2046     0.17963E-01 
  52974.4667     0.17861E-01 
  53006.7289     0.17759E-01 
  53038.9910     0.17658E-01 
  53071.2532     0.17556E-01 
  53103.5154     0.17455E-01 
  53135.7775     0.17354E-01 
  53168.0397     0.17254E-01 
  53200.3018     0.17153E-01 
  53232.5640     0.17053E-01 
  53264.8262     0.16952E-01 
  53297.0883     0.16852E-01 
  53329.3505     0.16753E-01 
  53361.6126     0.16653E-01 
  53393.8748     0.16553E-01 
  53426.1370     0.16454E-01 
  53458.3991     0.16355E-01 
  53490.6613     0.16256E-01 
  53522.9234     0.16158E-01 
  53555.1856     0.16059E-01 
  53587.4478     0.15961E-01 
  53619.7099     0.15863E-01 
  53651.9721     0.15765E-01 
  53684.2342     0.15668E-01 
  53716.4964     0.15571E-01 
  53748.7586     0.15473E-01 
  53781.0207     0.15376E-01 
  53813.2829     0.15280E-01 
  53845.5450     0.15183E-01 
  53877.8072     0.15087E-01 
  53910.0694     0.14991E-01 
  53942.3315     0.14895E-01 
  53974.5937     0.14800E-01 
  54006.8558     0.14705E-01 
  54039.1180     0.14609E-01 
  54071.3802     0.14515E-01 
  54103.6423     0.14420E-01 
  54135.9045     0.14326E-01 
  54168.1666     0.14232E-01 
  54200.4288     0.14138E-01 
  54232.6910     0.14044E-01 
  54264.9531     0.13951E-01 
  54297.2153     0.13858E-01 
  54329.4774     0.13765E-01 
  54361.7396     0.13672E-01 
  54394.0018     0.13580E-01 
  54426.2639     0.13488E-01 
  54458.5261     0.13396E-01 
  54490.7882     0.13304E-01 
  54523.0504     0.13213E-01 
  54555.3126     0.13122E-01 
  54587.5747     0.13031E-01 
  54619.8369     0.12940E-01 
  54652.0990     0.12850E-01 
  54684.3612     0.12760E-01 
  54716.6234     0.12670E-01 
  54748.8855     0.12581E-01 
  54781.1477     0.12492E-01 
  54813.4098     0.12403E-01 
  54845.6720     0.12314E-01 
  54877.9342     0.12226E-01 
  54910.1963     0.12138E-01 
  54942.4585     0.12050E-01 
  54974.7206     0.11962E-01 
  55006.9828     0.11875E-01 
  55039.2450     0.11788E-01 
  55071.5071     0.11701E-01 
  55103.7693     0.11615E-01 
  55136.0314     0.11528E-01 
  55168.2936     0.11442E-01 
  55200.5558     0.11357E-01 
  55232.8179     0.11271E-01 
  55265.0801     0.11186E-01 
  55297.3422     0.11102E-01 
  55329.6044     0.11017E-01 
  55361.8666     0.10933E-01 
  55394.1287     0.10849E-01 
  55426.3909     0.10766E-01 
  55458.6530     0.10682E-01 
  55490.9152     0.10599E-01 
  55523.1774     0.10516E-01 
  55555.4395     0.10434E-01 
  55587.7017     0.10352E-01 
  55619.9638     0.10270E-01 
  55652.2260     0.10188E-01 
  55684.4882     0.10107E-01 
  55716.7503     0.10026E-01 
  55749.0125     0.99456E-02 
  55781.2746     0.98652E-02 
  55813.5368     0.97852E-02 
  55845.7990     0.97054E-02 
  55878.0611     0.96259E-02 
  55910.3233     0.95468E-02 
  55942.5854     0.94679E-02 
  55974.8476     0.93894E-02 
  56007.1098     0.93111E-02 
  56039.3719     0.92332E-02 
  56071.6341     0.91555E-02 
  56103.8962     0.90782E-02 
  56136.1584     0.90012E-02 
  56168.4206     0.89244E-02 
  56200.6827     0.88480E-02 
  56232.9449     0.87719E-02 
  56265.2070     0.86961E-02 
  56297.4692     0.86206E-02 
  56329.7314     0.85455E-02 
  56361.9935     0.84706E-02 
  56394.2557     0.83960E-02 
  56426.5178     0.83218E-02 
  56458.7800     0.82479E-02 
  56491.0422     0.81742E-02 
  56523.3043     0.81009E-02 
  56555.5665     0.80279E-02 
  56587.8286     0.79552E-02 
  56620.0908     0.78829E-02 
  56652.3530     0.78108E-02 
  56684.6151     0.77391E-02 
  56716.8773     0.76677E-02 
  56749.1394     0.75966E-02 
  56781.4016     0.75258E-02 
  56813.6638     0.74553E-02 
  56845.9259     0.73851E-02 
  56878.1881     0.73153E-02 
  56910.4502     0.72458E-02 
  56942.7124     0.71766E-02 
  56974.9746     0.71077E-02 
  57007.2367     0.70391E-02 
  57039.4989     0.69709E-02 
  57071.7610     0.69030E-02 
  57104.0232     0.68353E-02 
  57136.2854     0.67681E-02 
  57168.5475     0.67011E-02 
  57200.8097     0.66345E-02 
  57233.0718     0.65681E-02 
  57265.3340     0.65022E-02 
  57297.5962     0.64365E-02 
  57329.8583     0.63711E-02 
  57362.1205     0.63061E-02 
  57394.3826     0.62414E-02 
  57426.6448     0.61770E-02 
  57458.9070     0.61130E-02 
  57491.1691     0.60493E-02 
  57523.4313     0.59859E-02 
  57555.6934     0.59228E-02 
  57587.9556     0.58600E-02 
  57620.2178     0.57976E-02 
  57652.4799     0.57355E-02 
  57684.7421     0.56738E-02 
  57717.0042     0.56123E-02 
  57749.2664     0.55512E-02 
  57781.5286     0.54904E-02 
  57813.7907     0.54300E-02 
  57846.0529     0.53699E-02 
  57878.3150     0.53101E-02 
  57910.5772     0.52506E-02 
  57942.8394     0.51915E-02 
  57975.1015     0.51327E-02 
  58007.3637     0.50743E-02 
  58039.6258     0.50161E-02 
  58071.8880     0.49583E-02 
  58104.1502     0.49009E-02 
  58136.4123     0.48437E-02 
  58168.6745     0.47870E-02 
  58200.9366     0.47305E-02 
  58233.1988     0.46744E-02 
  58265.4610     0.46186E-02 
  58297.7231     0.45632E-02 
  58329.9853     0.45080E-02 
  58362.2474     0.44533E-02 
  58394.5096     0.43989E-02 
  58426.7718     0.43448E-02 
  58459.0339     0.42910E-02 
  58491.2961     0.42376E-02 
  58523.5582     0.41845E-02 
  58555.8204     0.41318E-02 
  58588.0826     0.40794E-02 
  58620.3447     0.40274E-02 
  58652.6069     0.39757E-02 
  58684.8690     0.39244E-02 
  58717.1312     0.38734E-02 
  58749.3934     0.38227E-02 
  58781.6555     0.37724E-02 
  58813.9177     0.37224E-02 
  58846.1798     0.36728E-02 
  58878.4420     0.36236E-02 
  58910.7042     0.35747E-02 
  58942.9663     0.35261E-02 
  58975.2285     0.34779E-02 
  59007.4906     0.34301E-02 
  59039.7528     0.33826E-02 
  59072.0150     0.33354E-02 
  59104.2771     0.32887E-02 
  59136.5393     0.32422E-02 
  59168.8014     0.31962E-02 
  59201.0636     0.31505E-02 
  59233.3258     0.31052E-02 
  59265.5879     0.30602E-02 
  59297.8501     0.30156E-02 
  59330.1122     0.29713E-02 
  59362.3744     0.29274E-02 
  59394.6366     0.28839E-02 
  59426.8987     0.28408E-02 
  59459.1609     0.27980E-02 
  59491.4230     0.27556E-02 
  59523.6852     0.27136E-02 
  59555.9474     0.26720E-02 
  59588.2095     0.26307E-02 
  59620.4717     0.25898E-02 
  59652.7338     0.25493E-02 
  59684.9960     0.25091E-02 
  59717.2582     0.24694E-02 
  59749.5203     0.24300E-02 
  59781.7825     0.23911E-02 
  59814.0446     0.23525E-02 
  59846.3068     0.23143E-02 
  59878.5690     0.22765E-02 
  59910.8311     0.22390E-02 
  59943.0933     0.22020E-02 
  59975.3554     0.21654E-02 
  60007.6176     0.21292E-02 
  60039.8798     0.20934E-02 
  60072.1419     0.20580E-02 
  60104.4041     0.20229E-02 
  60136.6662     0.19883E-02 
  60168.9284     0.19542E-02 
  60201.1906     0.19204E-02 
  60233.4527     0.18870E-02 
  60265.7149     0.18541E-02 
  60297.9770     0.18216E-02 
  60330.2392     0.17895E-02 
  60362.5014     0.17578E-02 
  60394.7635     0.17265E-02 
  60427.0257     0.16957E-02 
  60459.2878     0.16653E-02 
  60491.5500     0.16354E-02 
  60523.8122     0.16059E-02 
  60556.0743     0.15768E-02 
  60588.3365     0.15482E-02 
  60620.5986     0.15200E-02 
  60652.8608     0.14923E-02 
  60685.1230     0.14650E-02 
  60717.3851     0.14382E-02 
  60749.6473     0.14119E-02 
  60781.9094     0.13860E-02 
  60814.1716     0.13606E-02 
  60846.4338     0.13356E-02 
  60878.6959     0.13112E-02 
  60910.9581     0.12872E-02 
  60943.2202     0.12636E-02 
  60975.4824     0.12406E-02 
  61007.7446     0.12181E-02 
  61040.0067     0.11960E-02 
  61072.2689     0.11745E-02 
  61104.5310     0.11535E-02 
  61136.7932     0.11329E-02 
  61169.0554     0.11129E-02 
  61201.3175     0.10934E-02 
  61233.5797     0.10744E-02 
  61265.8418     0.10559E-02 
  61298.1040     0.10379E-02 
  61330.3662     0.10205E-02 
  61362.6283     0.10036E-02 
  61394.8905     0.98731E-03 
  61427.1526     0.97152E-03 
  61459.4148     0.95628E-03 
  61491.6770     0.94159E-03 
  61523.9391     0.92747E-03 
  61556.2013     0.91391E-03 
  61588.4634     0.90092E-03 
  61620.7256     0.88851E-03 
  61652.9878     0.87668E-03 
  61685.2499     0.86544E-03 
  61717.5121     0.85479E-03 
  61749.7742     0.84474E-03 
  61782.0364     0.83530E-03 
  61814.2986     0.82647E-03 
  61846.5607     0.81825E-03 
  61878.8229     0.81066E-03 
  61911.0850     0.80370E-03 
  61943.3472     0.79737E-03 
  61975.6094     0.79168E-03 
  62007.8715     0.78664E-03 
  62040.1337     0.78226E-03 
  62072.3958     0.77854E-03 
  62104.6580     0.77549E-03 
  62136.9202     0.77311E-03 
  62169.1823     0.77142E-03 
  62201.4445     0.77041E-03 
  62233.7066     0.77010E-03 
  62265.9688     0.77050E-03 
  62298.2310     0.77161E-03 
  62330.4931     0.77343E-03 
  62362.7553     0.77599E-03 
  62395.0174     0.77928E-03 
  62427.2796     0.78331E-03 
  62459.5418     0.78809E-03 
  62491.8039     0.79363E-03 
  62524.0661     0.79994E-03 
  62556.3282     0.80703E-03 
  62588.5904     0.81490E-03 
  62620.8526     0.82356E-03 
  62653.1147     0.83302E-03 
  62685.3769     0.84330E-03 
  62717.6390     0.85439E-03 
  62749.9012     0.86631E-03 
  62782.1634     0.87907E-03 
  62814.4255     0.89268E-03 
  62846.6877     0.90715E-03 
  62878.9498     0.92248E-03 
  62911.2120     0.93869E-03 
  62943.4742     0.95578E-03 
  62975.7363     0.97377E-03 
  63007.9985     0.99267E-03 
  63040.2606     0.10125E-02 
  63072.5228     0.10332E-02 
  63104.7850     0.10549E-02 
  63137.0471     0.10775E-02 
  63169.3093     0.11011E-02 
  63201.5714     0.11257E-02 
  63233.8336     0.11512E-02 
  63266.0958     0.11778E-02 
  63298.3579     0.12053E-02 
  63330.6201     0.12339E-02 
  63362.8822     0.12634E-02 
  63395.1444     0.12941E-02 
  63427.4066     0.13258E-02 
  63459.6687     0.13585E-02 
  63491.9309     0.13923E-02 
  63524.1930     0.14272E-02 
  63556.4552     0.14632E-02 
  63588.7174     0.15004E-02 
  63620.9795     0.15386E-02 
  63653.2417     0.15780E-02 
  63685.5038     0.16185E-02 
  63717.7660     0.16603E-02 
  63750.0282     0.17032E-02 
  63782.2903     0.17472E-02 
  63814.5525     0.17925E-02 
  63846.8146     0.18391E-02 
  63879.0768     0.18868E-02 
  63911.3390     0.19358E-02 
  63943.6011     0.19861E-02 
  63975.8633     0.20377E-02 
  64008.1254     0.20905E-02 
  64040.3876     0.21447E-02 
  64072.6498     0.22002E-02 
  64104.9119     0.22570E-02 
  64137.1741     0.23152E-02 
  64169.4362     0.23748E-02 
  64201.6984     0.24357E-02 
  64233.9606     0.24981E-02 
  64266.2227     0.25618E-02 
  64298.4849     0.26270E-02 
  64330.7470     0.26937E-02 
  64363.0092     0.27618E-02 
  64395.2714     0.28315E-02 
  64427.5335     0.29026E-02 
  64459.7957     0.29752E-02 
  64492.0578     0.30494E-02 
  64524.3200     0.31252E-02 
  64556.5822     0.32025E-02 
  64588.8443     0.32814E-02 
  64621.1065     0.33619E-02 
  64653.3686     0.34441E-02 
  64685.6308     0.35279E-02 
  64717.8930     0.36133E-02 
  64750.1551     0.37005E-02 
  64782.4173     0.37893E-02 
  64814.6794     0.38799E-02 
  64846.9416     0.39722E-02 
  64879.2038     0.40663E-02 
  64911.4659     0.41622E-02 
  64943.7281     0.42598E-02 
  64975.9902     0.43593E-02 
  65008.2524     0.44606E-02 
  65040.5146     0.45638E-02 
  65072.7767     0.46689E-02 
  65105.0389     0.47759E-02 
  65137.3010     0.48848E-02 
  65169.5632     0.49956E-02 
  65201.8254     0.51084E-02 
  65234.0875     0.52232E-02 
  65266.3497     0.53400E-02 
  65298.6118     0.54589E-02 
  65330.8740     0.55798E-02 
  65363.1362     0.57028E-02 
  65395.3983     0.58278E-02 
  65427.6605     0.59550E-02 
  65459.9226     0.60844E-02 
  65492.1848     0.62159E-02 
  65524.4470     0.63496E-02 
  65556.7091     0.64855E-02 
  65588.9713     0.66236E-02 
  65621.2334     0.67640E-02 
  65653.4956     0.69067E-02 
  65685.7578     0.70517E-02 
  65718.0199     0.71991E-02 
  65750.2821     0.73488E-02 
  65782.5442     0.75008E-02 
  65814.8064     0.76553E-02 
  65847.0686     0.78122E-02 
  65879.3307     0.79716E-02 
  65911.5929     0.81334E-02 
  65943.8550     0.82978E-02 
  65976.1172     0.84647E-02 
  66008.3794     0.86341E-02 
  66040.6415     0.88062E-02 
  66072.9037     0.89808E-02 
  66105.1658     0.91581E-02 
  66137.4280     0.93380E-02 
  66169.6902     0.95207E-02 
  66201.9523     0.97060E-02 
  66234.2145     0.98941E-02 
  66266.4766     0.10085E-01 
  66298.7388     0.10279E-01 
  66331.0010     0.10475E-01 
  66363.2631     0.10674E-01 
  66395.5253     0.10877E-01 
  66427.7874     0.11082E-01 
  66460.0496     0.11290E-01 
  66492.3118     0.11501E-01 
  66524.5739     0.11715E-01 
  66556.8361     0.11932E-01 
  66589.0982     0.12152E-01 
  66621.3604     0.12375E-01 
  66653.6226     0.12601E-01 
  66685.8847     0.12831E-01 
  66718.1469     0.13063E-01 
  66750.4090     0.13299E-01 
  66782.6712     0.13538E-01 
  66814.9334     0.13780E-01 
  66847.1955     0.14026E-01 
  66879.4577     0.14275E-01 
  66911.7198     0.14527E-01 
  66943.9820     0.14783E-01 
  66976.2442     0.15042E-01 
  67008.5063     0.15304E-01 
  67040.7685     0.15570E-01 
  67073.0306     0.15839E-01 
  67105.2928     0.16112E-01 
  67137.5550     0.16389E-01 
  67169.8171     0.16669E-01 
  67202.0793     0.16952E-01 
  67234.3414     0.17240E-01 
  67266.6036     0.17530E-01 
  67298.8658     0.17825E-01 
  67331.1279     0.18124E-01 
  67363.3901     0.18426E-01 
  67395.6522     0.18732E-01 
  67427.9144     0.19042E-01 
  67460.1766     0.19356E-01 
  67492.4387     0.19673E-01 
  67524.7009     0.19995E-01 
  67556.9630     0.20320E-01 
  67589.2252     0.20650E-01 
  67621.4874     0.20983E-01 
  67653.7495     0.21321E-01 
  67686.0117     0.21663E-01 
  67718.2738     0.22009E-01 
  67750.5360     0.22359E-01 
  67782.7982     0.22713E-01 
  67815.0603     0.23071E-01 
  67847.3225     0.23434E-01 
  67879.5846     0.23801E-01 
  67911.8468     0.24172E-01 
  67944.1090     0.24548E-01 
  67976.3711     0.24928E-01 
  68008.6333     0.25313E-01 
  68040.8954     0.25702E-01 
  68073.1576     0.26095E-01 
  68105.4198     0.26493E-01 
  68137.6819     0.26896E-01 
  68169.9441     0.27303E-01 
  68202.2062     0.27715E-01 
  68234.4684     0.28131E-01 
  68266.7306     0.28552E-01 
  68298.9927     0.28978E-01 
  68331.2549     0.29409E-01 
  68363.5170     0.29844E-01 
  68395.7792     0.30284E-01 
  68428.0414     0.30729E-01 
  68460.3035     0.31179E-01 
  68492.5657     0.31634E-01 
  68524.8278     0.32094E-01 
  68557.0900     0.32559E-01 
  68589.3522     0.33029E-01 
  68621.6143     0.33504E-01 
  68653.8765     0.33984E-01 
  68686.1386     0.34469E-01 
  68718.4008     0.34959E-01 
  68750.6630     0.35454E-01 
  68782.9251     0.35955E-01 
  68815.1873     0.36461E-01 
  68847.4494     0.36972E-01 
  68879.7116     0.37489E-01 
  68911.9738     0.38011E-01 
  68944.2359     0.38538E-01 
  68976.4981     0.39070E-01 
  69008.7602     0.39609E-01 
  69041.0224     0.40152E-01 
  69073.2846     0.40701E-01 
  69105.5467     0.41256E-01 
  69137.8089     0.41816E-01 
  69170.0710     0.42382E-01 
  69202.3332     0.42953E-01 
  69234.5954     0.43530E-01 
  69266.8575     0.44113E-01 
  69299.1197     0.44702E-01 
  69331.3818     0.45296E-01 
  69363.6440     0.45896E-01 
  69395.9062     0.46502E-01 
  69428.1683     0.47114E-01 
  69460.4305     0.47732E-01 
  69492.6926     0.48355E-01 
  69524.9548     0.48985E-01 
  69557.2170     0.49620E-01 
  69589.4791     0.50262E-01 
  69621.7413     0.50909E-01 
  69654.0034     0.51563E-01 
  69686.2656     0.52223E-01 
  69718.5278     0.52889E-01 
  69750.7899     0.53561E-01 
  69783.0521     0.54239E-01 
  69815.3142     0.54923E-01 
  69847.5764     0.55614E-01 
  69879.8386     0.56311E-01 
  69912.1007     0.57014E-01 
  69944.3629     0.57723E-01 
  69976.6250     0.58439E-01 
  70008.8872     0.59161E-01 
  70041.1494     0.59890E-01 
  70073.4115     0.60625E-01 
  70105.6737     0.61366E-01 
  70137.9358     0.62114E-01 
  70170.1980     0.62869E-01 
  70202.4602     0.63630E-01 
  70234.7223     0.64397E-01 
  70266.9845     0.65171E-01 
  70299.2466     0.65952E-01 
  70331.5088     0.66739E-01 
  70363.7710     0.67533E-01 
  70396.0331     0.68334E-01 
  70428.2953     0.69141E-01 
  70460.5574     0.69956E-01 
  70492.8196     0.70776E-01 
  70525.0818     0.71604E-01 
  70557.3439     0.72438E-01 
  70589.6061     0.73280E-01 
  70621.8682     0.74128E-01 
  70654.1304     0.74982E-01 
  70686.3926     0.75844E-01 
  70718.6547     0.76713E-01 
  70750.9169     0.77588E-01 
  70783.1790     0.78471E-01 
  70815.4412     0.79360E-01 
  70847.7034     0.80257E-01 
  70879.9655     0.81160E-01 
  70912.2277     0.82070E-01 
  70944.4898     0.82988E-01 
  70976.7520     0.83912E-01 
  71009.0142     0.84844E-01 
  71041.2763     0.85782E-01 
  71073.5385     0.86728E-01 
  71105.8006     0.87680E-01 
  71138.0628     0.88640E-01 
  71170.3250     0.89607E-01 
  71202.5871     0.90581E-01 
  71234.8493     0.91563E-01 
  71267.1114     0.92551E-01 
  71299.3736     0.93547E-01 
  71331.6358     0.94549E-01 
  71363.8979     0.95559E-01 
  71396.1601     0.96577E-01 
  71428.4222     0.97601E-01 
  71460.6844     0.98633E-01 
  71492.9466     0.99672E-01 
  71525.2087     0.10072E+00 
  71557.4709     0.10177E+00 
  71589.7330     0.10283E+00 
  71621.9952     0.10390E+00 
  71654.2574     0.10498E+00 
  71686.5195     0.10606E+00 
  71718.7817     0.10715E+00 
  71751.0438     0.10824E+00 
  71783.3060     0.10935E+00 
  71815.5682     0.11046E+00 
  71847.8303     0.11158E+00 
  71880.0925     0.11271E+00 
  71912.3546     0.11384E+00 
  71944.6168     0.11498E+00 
  71976.8790     0.11613E+00 
  72009.1411     0.11728E+00 
  72041.4033     0.11845E+00 
  72073.6654     0.11962E+00 
  72105.9276     0.12080E+00 
  72138.1898     0.12198E+00 
  72170.4519     0.12317E+00 
  72202.7141     0.12437E+00 
  72234.9762     0.12558E+00 
  72267.2384     0.12679E+00 
  72299.5006     0.12801E+00 
  72331.7627     0.12924E+00 
  72364.0249     0.13048E+00 
  72396.2870     0.13172E+00 
  72428.5492     0.13297E+00 
  72460.8114     0.13423E+00 
  72493.0735     0.13550E+00 
  72525.3357     0.13677E+00 
  72557.5978     0.13805E+00 
  72589.8600     0.13933E+00 
