  32262.1600     0.54347E-04 
  32294.4222     0.55022E-04 
  32326.6843     0.55702E-04 
  32358.9465     0.56388E-04 
  32391.2086     0.57080E-04 
  32423.4708     0.57777E-04 
  32455.7330     0.58480E-04 
  32487.9951     0.59189E-04 
  32520.2573     0.59903E-04 
  32552.5194     0.60623E-04 
  32584.7816     0.61349E-04 
  32617.0438     0.62080E-04 
  32649.3059     0.62817E-04 
  32681.5681     0.63560E-04 
  32713.8302     0.64308E-04 
  32746.0924     0.65062E-04 
  32778.3546     0.65822E-04 
  32810.6167     0.66587E-04 
  32842.8789     0.67358E-04 
  32875.1410     0.68134E-04 
  32907.4032     0.68917E-04 
  32939.6654     0.69704E-04 
  32971.9275     0.70498E-04 
  33004.1897     0.71297E-04 
  33036.4518     0.72101E-04 
  33068.7140     0.72911E-04 
  33100.9762     0.73727E-04 
  33133.2383     0.74548E-04 
  33165.5005     0.75375E-04 
  33197.7626     0.76207E-04 
  33230.0248     0.77045E-04 
  33262.2870     0.77889E-04 
  33294.5491     0.78737E-04 
  33326.8113     0.79592E-04 
  33359.0734     0.80451E-04 
  33391.3356     0.81317E-04 
  33423.5978     0.82187E-04 
  33455.8599     0.83063E-04 
  33488.1221     0.83944E-04 
  33520.3842     0.84831E-04 
  33552.6464     0.85723E-04 
  33584.9086     0.86620E-04 
  33617.1707     0.87523E-04 
  33649.4329     0.88431E-04 
  33681.6950     0.89344E-04 
  33713.9572     0.90262E-04 
  33746.2194     0.91185E-04 
  33778.4815     0.92114E-04 
  33810.7437     0.93047E-04 
  33843.0058     0.93986E-04 
  33875.2680     0.94930E-04 
  33907.5302     0.95879E-04 
  33939.7923     0.96833E-04 
  33972.0545     0.97791E-04 
  34004.3166     0.98755E-04 
  34036.5788     0.99723E-04 
  34068.8410     0.10070E-03 
  34101.1031     0.10168E-03 
  34133.3653     0.10266E-03 
  34165.6274     0.10365E-03 
  34197.8896     0.10464E-03 
  34230.1518     0.10564E-03 
  34262.4139     0.10664E-03 
  34294.6761     0.10764E-03 
  34326.9382     0.10865E-03 
  34359.2004     0.10967E-03 
  34391.4626     0.11069E-03 
  34423.7247     0.11171E-03 
  34455.9869     0.11274E-03 
  34488.2490     0.11377E-03 
  34520.5112     0.11481E-03 
  34552.7734     0.11585E-03 
  34585.0355     0.11690E-03 
  34617.2977     0.11795E-03 
  34649.5598     0.11900E-03 
  34681.8220     0.12006E-03 
  34714.0842     0.12112E-03 
  34746.3463     0.12219E-03 
  34778.6085     0.12326E-03 
  34810.8706     0.12433E-03 
  34843.1328     0.12541E-03 
  34875.3950     0.12649E-03 
  34907.6571     0.12757E-03 
  34939.9193     0.12866E-03 
  34972.1814     0.12975E-03 
  35004.4436     0.13084E-03 
  35036.7058     0.13194E-03 
  35068.9679     0.13304E-03 
  35101.2301     0.13415E-03 
  35133.4922     0.13526E-03 
  35165.7544     0.13637E-03 
  35198.0166     0.13748E-03 
  35230.2787     0.13860E-03 
  35262.5409     0.13972E-03 
  35294.8030     0.14084E-03 
  35327.0652     0.14197E-03 
  35359.3274     0.14310E-03 
  35391.5895     0.14423E-03 
  35423.8517     0.14536E-03 
  35456.1138     0.14650E-03 
  35488.3760     0.14764E-03 
  35520.6382     0.14878E-03 
  35552.9003     0.14992E-03 
  35585.1625     0.15107E-03 
  35617.4246     0.15222E-03 
  35649.6868     0.15337E-03 
  35681.9490     0.15452E-03 
  35714.2111     0.15568E-03 
  35746.4733     0.15683E-03 
  35778.7354     0.15799E-03 
  35810.9976     0.15915E-03 
  35843.2598     0.16032E-03 
  35875.5219     0.16148E-03 
  35907.7841     0.16264E-03 
  35940.0462     0.16381E-03 
  35972.3084     0.16498E-03 
  36004.5706     0.16615E-03 
  36036.8327     0.16732E-03 
  36069.0949     0.16849E-03 
  36101.3570     0.16966E-03 
  36133.6192     0.17084E-03 
  36165.8814     0.17201E-03 
  36198.1435     0.17319E-03 
  36230.4057     0.17436E-03 
  36262.6678     0.17554E-03 
  36294.9300     0.17672E-03 
  36327.1922     0.17790E-03 
  36359.4543     0.17908E-03 
  36391.7165     0.18026E-03 
  36423.9786     0.18143E-03 
  36456.2408     0.18261E-03 
  36488.5030     0.18379E-03 
  36520.7651     0.18497E-03 
  36553.0273     0.18615E-03 
  36585.2894     0.18733E-03 
  36617.5516     0.18851E-03 
  36649.8138     0.18969E-03 
  36682.0759     0.19087E-03 
  36714.3381     0.19205E-03 
  36746.6002     0.19323E-03 
  36778.8624     0.19440E-03 
  36811.1246     0.19558E-03 
  36843.3867     0.19675E-03 
  36875.6489     0.19793E-03 
  36907.9110     0.19910E-03 
  36940.1732     0.20028E-03 
  36972.4354     0.20145E-03 
  37004.6975     0.20262E-03 
  37036.9597     0.20379E-03 
  37069.2218     0.20495E-03 
  37101.4840     0.20612E-03 
  37133.7462     0.20728E-03 
  37166.0083     0.20844E-03 
  37198.2705     0.20961E-03 
  37230.5326     0.21076E-03 
  37262.7948     0.21192E-03 
  37295.0570     0.21308E-03 
  37327.3191     0.21423E-03 
  37359.5813     0.21538E-03 
  37391.8434     0.21653E-03 
  37424.1056     0.21767E-03 
  37456.3678     0.21882E-03 
  37488.6299     0.21996E-03 
  37520.8921     0.22110E-03 
  37553.1542     0.22223E-03 
  37585.4164     0.22336E-03 
  37617.6786     0.22449E-03 
  37649.9407     0.22562E-03 
  37682.2029     0.22674E-03 
  37714.4650     0.22787E-03 
  37746.7272     0.22898E-03 
  37778.9894     0.23010E-03 
  37811.2515     0.23121E-03 
  37843.5137     0.23231E-03 
  37875.7758     0.23342E-03 
  37908.0380     0.23452E-03 
  37940.3002     0.23561E-03 
  37972.5623     0.23671E-03 
  38004.8245     0.23779E-03 
  38037.0866     0.23888E-03 
  38069.3488     0.23996E-03 
  38101.6110     0.24103E-03 
  38133.8731     0.24211E-03 
  38166.1353     0.24317E-03 
  38198.3974     0.24424E-03 
  38230.6596     0.24530E-03 
  38262.9218     0.24635E-03 
  38295.1839     0.24740E-03 
  38327.4461     0.24844E-03 
  38359.7082     0.24948E-03 
  38391.9704     0.25052E-03 
  38424.2326     0.25155E-03 
  38456.4947     0.25257E-03 
  38488.7569     0.25359E-03 
  38521.0190     0.25461E-03 
  38553.2812     0.25561E-03 
  38585.5434     0.25662E-03 
  38617.8055     0.25762E-03 
  38650.0677     0.25861E-03 
  38682.3298     0.25960E-03 
  38714.5920     0.26058E-03 
  38746.8542     0.26155E-03 
  38779.1163     0.26252E-03 
  38811.3785     0.26349E-03 
  38843.6406     0.26444E-03 
  38875.9028     0.26540E-03 
  38908.1650     0.26634E-03 
  38940.4271     0.26728E-03 
  38972.6893     0.26821E-03 
  39004.9514     0.26914E-03 
  39037.2136     0.27006E-03 
  39069.4758     0.27098E-03 
  39101.7379     0.27188E-03 
  39134.0001     0.27278E-03 
  39166.2622     0.27368E-03 
  39198.5244     0.27457E-03 
  39230.7866     0.27545E-03 
  39263.0487     0.27632E-03 
  39295.3109     0.27719E-03 
  39327.5730     0.27805E-03 
  39359.8352     0.27890E-03 
  39392.0974     0.27974E-03 
  39424.3595     0.28058E-03 
  39456.6217     0.28141E-03 
  39488.8838     0.28224E-03 
  39521.1460     0.28305E-03 
  39553.4082     0.28386E-03 
  39585.6703     0.28466E-03 
  39617.9325     0.28546E-03 
  39650.1946     0.28624E-03 
  39682.4568     0.28702E-03 
  39714.7190     0.28779E-03 
  39746.9811     0.28855E-03 
  39779.2433     0.28931E-03 
  39811.5054     0.29006E-03 
  39843.7676     0.29080E-03 
  39876.0298     0.29153E-03 
  39908.2919     0.29225E-03 
  39940.5541     0.29297E-03 
  39972.8162     0.29367E-03 
  40005.0784     0.29437E-03 
  40037.3406     0.29506E-03 
  40069.6027     0.29574E-03 
  40101.8649     0.29642E-03 
  40134.1270     0.29708E-03 
  40166.3892     0.29774E-03 
  40198.6514     0.29839E-03 
  40230.9135     0.29903E-03 
  40263.1757     0.29966E-03 
  40295.4378     0.30028E-03 
  40327.7000     0.30090E-03 
  40359.9622     0.30150E-03 
  40392.2243     0.30210E-03 
  40424.4865     0.30269E-03 
  40456.7486     0.30327E-03 
  40489.0108     0.30384E-03 
  40521.2730     0.30440E-03 
  40553.5351     0.30495E-03 
  40585.7973     0.30550E-03 
  40618.0594     0.30603E-03 
  40650.3216     0.30656E-03 
  40682.5838     0.30707E-03 
  40714.8459     0.30758E-03 
  40747.1081     0.30808E-03 
  40779.3702     0.30857E-03 
  40811.6324     0.30905E-03 
  40843.8946     0.30952E-03 
  40876.1567     0.30998E-03 
  40908.4189     0.31044E-03 
  40940.6810     0.31088E-03 
  40972.9432     0.31131E-03 
  41005.2054     0.31174E-03 
  41037.4675     0.31215E-03 
  41069.7297     0.31256E-03 
  41101.9918     0.31296E-03 
  41134.2540     0.31335E-03 
  41166.5162     0.31372E-03 
  41198.7783     0.31409E-03 
  41231.0405     0.31445E-03 
  41263.3026     0.31480E-03 
  41295.5648     0.31514E-03 
  41327.8270     0.31548E-03 
  41360.0891     0.31580E-03 
  41392.3513     0.31611E-03 
  41424.6134     0.31641E-03 
  41456.8756     0.31671E-03 
  41489.1378     0.31699E-03 
  41521.3999     0.31726E-03 
  41553.6621     0.31753E-03 
  41585.9242     0.31778E-03 
  41618.1864     0.31803E-03 
  41650.4486     0.31827E-03 
  41682.7107     0.31849E-03 
  41714.9729     0.31871E-03 
  41747.2350     0.31892E-03 
  41779.4972     0.31912E-03 
  41811.7594     0.31931E-03 
  41844.0215     0.31948E-03 
  41876.2837     0.31965E-03 
  41908.5458     0.31981E-03 
  41940.8080     0.31997E-03 
  41973.0702     0.32011E-03 
  42005.3323     0.32024E-03 
  42037.5945     0.32036E-03 
  42069.8566     0.32047E-03 
  42102.1188     0.32058E-03 
  42134.3810     0.32067E-03 
  42166.6431     0.32075E-03 
  42198.9053     0.32083E-03 
  42231.1674     0.32089E-03 
  42263.4296     0.32095E-03 
  42295.6918     0.32099E-03 
  42327.9539     0.32103E-03 
  42360.2161     0.32106E-03 
  42392.4782     0.32108E-03 
  42424.7404     0.32109E-03 
  42457.0026     0.32109E-03 
  42489.2647     0.32108E-03 
  42521.5269     0.32106E-03 
  42553.7890     0.32103E-03 
  42586.0512     0.32099E-03 
  42618.3134     0.32094E-03 
  42650.5755     0.32089E-03 
  42682.8377     0.32082E-03 
  42715.0998     0.32075E-03 
  42747.3620     0.32066E-03 
  42779.6242     0.32057E-03 
  42811.8863     0.32047E-03 
  42844.1485     0.32036E-03 
  42876.4106     0.32023E-03 
  42908.6728     0.32011E-03 
  42940.9350     0.31997E-03 
  42973.1971     0.31982E-03 
  43005.4593     0.31966E-03 
  43037.7214     0.31950E-03 
  43069.9836     0.31932E-03 
  43102.2458     0.31914E-03 
  43134.5079     0.31895E-03 
  43166.7701     0.31875E-03 
  43199.0322     0.31854E-03 
  43231.2944     0.31832E-03 
  43263.5566     0.31809E-03 
  43295.8187     0.31786E-03 
  43328.0809     0.31761E-03 
  43360.3430     0.31736E-03 
  43392.6052     0.31710E-03 
  43424.8674     0.31683E-03 
  43457.1295     0.31655E-03 
  43489.3917     0.31627E-03 
  43521.6538     0.31597E-03 
  43553.9160     0.31567E-03 
  43586.1782     0.31536E-03 
  43618.4403     0.31504E-03 
  43650.7025     0.31471E-03 
  43682.9646     0.31437E-03 
  43715.2268     0.31403E-03 
  43747.4890     0.31367E-03 
  43779.7511     0.31331E-03 
  43812.0133     0.31294E-03 
  43844.2754     0.31257E-03 
  43876.5376     0.31218E-03 
  43908.7998     0.31179E-03 
  43941.0619     0.31139E-03 
  43973.3241     0.31098E-03 
  44005.5862     0.31057E-03 
  44037.8484     0.31014E-03 
  44070.1106     0.30971E-03 
  44102.3727     0.30927E-03 
  44134.6349     0.30882E-03 
  44166.8970     0.30837E-03 
  44199.1592     0.30791E-03 
  44231.4214     0.30744E-03 
  44263.6835     0.30696E-03 
  44295.9457     0.30648E-03 
  44328.2078     0.30599E-03 
  44360.4700     0.30549E-03 
  44392.7322     0.30499E-03 
  44424.9943     0.30447E-03 
  44457.2565     0.30396E-03 
  44489.5186     0.30343E-03 
  44521.7808     0.30290E-03 
  44554.0430     0.30236E-03 
  44586.3051     0.30181E-03 
  44618.5673     0.30126E-03 
  44650.8294     0.30069E-03 
  44683.0916     0.30013E-03 
  44715.3538     0.29955E-03 
  44747.6159     0.29897E-03 
  44779.8781     0.29839E-03 
  44812.1402     0.29779E-03 
  44844.4024     0.29719E-03 
  44876.6646     0.29659E-03 
  44908.9267     0.29598E-03 
  44941.1889     0.29536E-03 
  44973.4510     0.29473E-03 
  45005.7132     0.29410E-03 
  45037.9754     0.29347E-03 
  45070.2375     0.29282E-03 
  45102.4997     0.29217E-03 
  45134.7618     0.29152E-03 
  45167.0240     0.29086E-03 
  45199.2862     0.29019E-03 
  45231.5483     0.28952E-03 
  45263.8105     0.28884E-03 
  45296.0726     0.28816E-03 
  45328.3348     0.28747E-03 
  45360.5970     0.28678E-03 
  45392.8591     0.28608E-03 
  45425.1213     0.28537E-03 
  45457.3834     0.28466E-03 
  45489.6456     0.28395E-03 
  45521.9078     0.28323E-03 
  45554.1699     0.28250E-03 
  45586.4321     0.28177E-03 
  45618.6942     0.28104E-03 
  45650.9564     0.28029E-03 
  45683.2186     0.27955E-03 
  45715.4807     0.27880E-03 
  45747.7429     0.27804E-03 
  45780.0050     0.27728E-03 
  45812.2672     0.27652E-03 
  45844.5294     0.27575E-03 
  45876.7915     0.27498E-03 
  45909.0537     0.27420E-03 
  45941.3158     0.27342E-03 
  45973.5780     0.27263E-03 
  46005.8402     0.27184E-03 
  46038.1023     0.27105E-03 
  46070.3645     0.27025E-03 
  46102.6266     0.26944E-03 
  46134.8888     0.26864E-03 
  46167.1510     0.26783E-03 
  46199.4131     0.26701E-03 
  46231.6753     0.26619E-03 
  46263.9374     0.26537E-03 
  46296.1996     0.26454E-03 
  46328.4618     0.26371E-03 
  46360.7239     0.26288E-03 
  46392.9861     0.26204E-03 
  46425.2482     0.26120E-03 
  46457.5104     0.26036E-03 
  46489.7726     0.25951E-03 
  46522.0347     0.25866E-03 
  46554.2969     0.25781E-03 
  46586.5590     0.25695E-03 
  46618.8212     0.25609E-03 
  46651.0834     0.25522E-03 
  46683.3455     0.25436E-03 
  46715.6077     0.25349E-03 
  46747.8698     0.25262E-03 
  46780.1320     0.25174E-03 
  46812.3942     0.25086E-03 
  46844.6563     0.24998E-03 
  46876.9185     0.24910E-03 
  46909.1806     0.24822E-03 
  46941.4428     0.24733E-03 
  46973.7050     0.24644E-03 
  47005.9671     0.24554E-03 
  47038.2293     0.24465E-03 
  47070.4914     0.24375E-03 
  47102.7536     0.24285E-03 
  47135.0158     0.24195E-03 
  47167.2779     0.24104E-03 
  47199.5401     0.24014E-03 
  47231.8022     0.23923E-03 
  47264.0644     0.23832E-03 
  47296.3266     0.23741E-03 
  47328.5887     0.23649E-03 
  47360.8509     0.23558E-03 
  47393.1130     0.23466E-03 
  47425.3752     0.23374E-03 
  47457.6374     0.23282E-03 
  47489.8995     0.23190E-03 
  47522.1617     0.23097E-03 
  47554.4238     0.23005E-03 
  47586.6860     0.22912E-03 
  47618.9482     0.22819E-03 
  47651.2103     0.22726E-03 
  47683.4725     0.22633E-03 
  47715.7346     0.22540E-03 
  47747.9968     0.22447E-03 
  47780.2590     0.22353E-03 
  47812.5211     0.22260E-03 
  47844.7833     0.22166E-03 
  47877.0454     0.22072E-03 
  47909.3076     0.21979E-03 
  47941.5698     0.21885E-03 
  47973.8319     0.21791E-03 
  48006.0941     0.21697E-03 
  48038.3562     0.21603E-03 
  48070.6184     0.21508E-03 
  48102.8806     0.21414E-03 
  48135.1427     0.21320E-03 
  48167.4049     0.21226E-03 
  48199.6670     0.21131E-03 
  48231.9292     0.21037E-03 
  48264.1914     0.20942E-03 
  48296.4535     0.20848E-03 
  48328.7157     0.20753E-03 
  48360.9778     0.20659E-03 
  48393.2400     0.20564E-03 
  48425.5022     0.20470E-03 
  48457.7643     0.20375E-03 
  48490.0265     0.20281E-03 
  48522.2886     0.20186E-03 
  48554.5508     0.20092E-03 
  48586.8130     0.19997E-03 
  48619.0751     0.19903E-03 
  48651.3373     0.19808E-03 
  48683.5994     0.19714E-03 
  48715.8616     0.19619E-03 
  48748.1238     0.19525E-03 
  48780.3859     0.19430E-03 
  48812.6481     0.19336E-03 
  48844.9102     0.19242E-03 
  48877.1724     0.19147E-03 
  48909.4346     0.19053E-03 
  48941.6967     0.18959E-03 
  48973.9589     0.18865E-03 
  49006.2210     0.18771E-03 
  49038.4832     0.18677E-03 
  49070.7454     0.18583E-03 
  49103.0075     0.18490E-03 
  49135.2697     0.18396E-03 
  49167.5318     0.18302E-03 
  49199.7940     0.18209E-03 
  49232.0562     0.18115E-03 
  49264.3183     0.18022E-03 
  49296.5805     0.17929E-03 
  49328.8426     0.17836E-03 
  49361.1048     0.17743E-03 
  49393.3670     0.17650E-03 
  49425.6291     0.17557E-03 
  49457.8913     0.17464E-03 
  49490.1534     0.17372E-03 
  49522.4156     0.17279E-03 
  49554.6778     0.17187E-03 
  49586.9399     0.17095E-03 
  49619.2021     0.17003E-03 
  49651.4642     0.16911E-03 
  49683.7264     0.16819E-03 
  49715.9886     0.16728E-03 
  49748.2507     0.16636E-03 
  49780.5129     0.16545E-03 
  49812.7750     0.16454E-03 
  49845.0372     0.16363E-03 
  49877.2994     0.16272E-03 
  49909.5615     0.16182E-03 
  49941.8237     0.16091E-03 
  49974.0858     0.16001E-03 
  50006.3480     0.15911E-03 
  50038.6102     0.15821E-03 
  50070.8723     0.15731E-03 
  50103.1345     0.15641E-03 
  50135.3966     0.15552E-03 
  50167.6588     0.15463E-03 
  50199.9210     0.15374E-03 
  50232.1831     0.15285E-03 
  50264.4453     0.15196E-03 
  50296.7074     0.15108E-03 
  50328.9696     0.15020E-03 
  50361.2318     0.14932E-03 
  50393.4939     0.14844E-03 
  50425.7561     0.14756E-03 
  50458.0182     0.14669E-03 
  50490.2804     0.14582E-03 
  50522.5426     0.14495E-03 
  50554.8047     0.14408E-03 
  50587.0669     0.14321E-03 
  50619.3290     0.14235E-03 
  50651.5912     0.14149E-03 
  50683.8534     0.14063E-03 
  50716.1155     0.13978E-03 
  50748.3777     0.13892E-03 
  50780.6398     0.13807E-03 
  50812.9020     0.13722E-03 
  50845.1642     0.13637E-03 
  50877.4263     0.13553E-03 
  50909.6885     0.13469E-03 
  50941.9506     0.13385E-03 
  50974.2128     0.13301E-03 
  51006.4750     0.13218E-03 
  51038.7371     0.13134E-03 
  51070.9993     0.13051E-03 
  51103.2614     0.12969E-03 
  51135.5236     0.12886E-03 
  51167.7858     0.12804E-03 
  51200.0479     0.12722E-03 
  51232.3101     0.12640E-03 
  51264.5722     0.12559E-03 
  51296.8344     0.12478E-03 
  51329.0966     0.12397E-03 
  51361.3587     0.12316E-03 
  51393.6209     0.12236E-03 
  51425.8830     0.12156E-03 
  51458.1452     0.12076E-03 
  51490.4074     0.11996E-03 
  51522.6695     0.11917E-03 
  51554.9317     0.11838E-03 
  51587.1938     0.11759E-03 
  51619.4560     0.11681E-03 
  51651.7182     0.11603E-03 
  51683.9803     0.11525E-03 
  51716.2425     0.11447E-03 
  51748.5046     0.11370E-03 
  51780.7668     0.11293E-03 
  51813.0290     0.11216E-03 
  51845.2911     0.11139E-03 
  51877.5533     0.11063E-03 
  51909.8154     0.10987E-03 
  51942.0776     0.10912E-03 
  51974.3398     0.10836E-03 
  52006.6019     0.10761E-03 
  52038.8641     0.10686E-03 
  52071.1262     0.10612E-03 
  52103.3884     0.10538E-03 
  52135.6506     0.10464E-03 
  52167.9127     0.10390E-03 
  52200.1749     0.10317E-03 
  52232.4370     0.10244E-03 
  52264.6992     0.10171E-03 
  52296.9614     0.10099E-03 
  52329.2235     0.10027E-03 
  52361.4857     0.99549E-04 
  52393.7478     0.98833E-04 
  52426.0100     0.98121E-04 
  52458.2722     0.97412E-04 
  52490.5343     0.96705E-04 
  52522.7965     0.96002E-04 
  52555.0586     0.95301E-04 
  52587.3208     0.94604E-04 
  52619.5830     0.93910E-04 
  52651.8451     0.93219E-04 
  52684.1073     0.92530E-04 
  52716.3694     0.91845E-04 
  52748.6316     0.91163E-04 
  52780.8938     0.90484E-04 
  52813.1559     0.89807E-04 
  52845.4181     0.89134E-04 
  52877.6802     0.88464E-04 
  52909.9424     0.87797E-04 
  52942.2046     0.87133E-04 
  52974.4667     0.86472E-04 
  53006.7289     0.85814E-04 
  53038.9910     0.85160E-04 
  53071.2532     0.84508E-04 
  53103.5154     0.83859E-04 
  53135.7775     0.83213E-04 
  53168.0397     0.82571E-04 
  53200.3018     0.81931E-04 
  53232.5640     0.81295E-04 
  53264.8262     0.80661E-04 
  53297.0883     0.80031E-04 
  53329.3505     0.79404E-04 
  53361.6126     0.78779E-04 
  53393.8748     0.78158E-04 
  53426.1370     0.77540E-04 
  53458.3991     0.76925E-04 
  53490.6613     0.76313E-04 
  53522.9234     0.75704E-04 
  53555.1856     0.75098E-04 
  53587.4478     0.74495E-04 
  53619.7099     0.73895E-04 
  53651.9721     0.73298E-04 
  53684.2342     0.72704E-04 
  53716.4964     0.72113E-04 
  53748.7586     0.71526E-04 
  53781.0207     0.70941E-04 
  53813.2829     0.70359E-04 
  53845.5450     0.69781E-04 
  53877.8072     0.69205E-04 
  53910.0694     0.68633E-04 
  53942.3315     0.68063E-04 
  53974.5937     0.67496E-04 
  54006.8558     0.66933E-04 
  54039.1180     0.66372E-04 
  54071.3802     0.65815E-04 
  54103.6423     0.65260E-04 
  54135.9045     0.64708E-04 
  54168.1666     0.64160E-04 
  54200.4288     0.63614E-04 
  54232.6910     0.63072E-04 
  54264.9531     0.62532E-04 
  54297.2153     0.61995E-04 
  54329.4774     0.61462E-04 
  54361.7396     0.60931E-04 
  54394.0018     0.60403E-04 
  54426.2639     0.59878E-04 
  54458.5261     0.59356E-04 
  54490.7882     0.58837E-04 
  54523.0504     0.58321E-04 
  54555.3126     0.57808E-04 
  54587.5747     0.57298E-04 
  54619.8369     0.56790E-04 
  54652.0990     0.56286E-04 
  54684.3612     0.55785E-04 
  54716.6234     0.55286E-04 
  54748.8855     0.54790E-04 
  54781.1477     0.54297E-04 
  54813.4098     0.53807E-04 
  54845.6720     0.53320E-04 
  54877.9342     0.52836E-04 
  54910.1963     0.52354E-04 
  54942.4585     0.51876E-04 
  54974.7206     0.51400E-04 
  55006.9828     0.50927E-04 
  55039.2450     0.50457E-04 
  55071.5071     0.49990E-04 
  55103.7693     0.49525E-04 
  55136.0314     0.49064E-04 
  55168.2936     0.48605E-04 
  55200.5558     0.48149E-04 
  55232.8179     0.47695E-04 
  55265.0801     0.47245E-04 
  55297.3422     0.46797E-04 
  55329.6044     0.46352E-04 
  55361.8666     0.45910E-04 
  55394.1287     0.45470E-04 
  55426.3909     0.45033E-04 
  55458.6530     0.44599E-04 
  55490.9152     0.44168E-04 
  55523.1774     0.43739E-04 
  55555.4395     0.43313E-04 
  55587.7017     0.42890E-04 
  55619.9638     0.42469E-04 
  55652.2260     0.42051E-04 
  55684.4882     0.41636E-04 
  55716.7503     0.41223E-04 
  55749.0125     0.40813E-04 
  55781.2746     0.40405E-04 
  55813.5368     0.40001E-04 
  55845.7990     0.39598E-04 
  55878.0611     0.39199E-04 
  55910.3233     0.38802E-04 
  55942.5854     0.38407E-04 
  55974.8476     0.38015E-04 
  56007.1098     0.37626E-04 
  56039.3719     0.37239E-04 
  56071.6341     0.36855E-04 
  56103.8962     0.36474E-04 
  56136.1584     0.36095E-04 
  56168.4206     0.35718E-04 
  56200.6827     0.35344E-04 
  56232.9449     0.34972E-04 
  56265.2070     0.34603E-04 
  56297.4692     0.34237E-04 
  56329.7314     0.33873E-04 
  56361.9935     0.33511E-04 
  56394.2557     0.33152E-04 
  56426.5178     0.32795E-04 
  56458.7800     0.32441E-04 
  56491.0422     0.32089E-04 
  56523.3043     0.31740E-04 
  56555.5665     0.31392E-04 
  56587.8286     0.31048E-04 
  56620.0908     0.30706E-04 
  56652.3530     0.30366E-04 
  56684.6151     0.30028E-04 
  56716.8773     0.29693E-04 
  56749.1394     0.29360E-04 
  56781.4016     0.29030E-04 
  56813.6638     0.28702E-04 
  56845.9259     0.28376E-04 
  56878.1881     0.28052E-04 
  56910.4502     0.27731E-04 
  56942.7124     0.27412E-04 
  56974.9746     0.27096E-04 
  57007.2367     0.26781E-04 
  57039.4989     0.26469E-04 
  57071.7610     0.26160E-04 
  57104.0232     0.25852E-04 
  57136.2854     0.25547E-04 
  57168.5475     0.25244E-04 
  57200.8097     0.24943E-04 
  57233.0718     0.24644E-04 
  57265.3340     0.24348E-04 
  57297.5962     0.24053E-04 
  57329.8583     0.23761E-04 
  57362.1205     0.23471E-04 
  57394.3826     0.23184E-04 
  57426.6448     0.22898E-04 
  57458.9070     0.22615E-04 
  57491.1691     0.22333E-04 
  57523.4313     0.22054E-04 
  57555.6934     0.21777E-04 
  57587.9556     0.21502E-04 
  57620.2178     0.21229E-04 
  57652.4799     0.20959E-04 
  57684.7421     0.20690E-04 
  57717.0042     0.20423E-04 
  57749.2664     0.20159E-04 
  57781.5286     0.19896E-04 
  57813.7907     0.19636E-04 
  57846.0529     0.19377E-04 
  57878.3150     0.19121E-04 
  57910.5772     0.18867E-04 
  57942.8394     0.18614E-04 
  57975.1015     0.18364E-04 
  58007.3637     0.18116E-04 
  58039.6258     0.17869E-04 
  58071.8880     0.17625E-04 
  58104.1502     0.17383E-04 
  58136.4123     0.17142E-04 
  58168.6745     0.16904E-04 
  58200.9366     0.16667E-04 
  58233.1988     0.16432E-04 
  58265.4610     0.16200E-04 
  58297.7231     0.15969E-04 
  58329.9853     0.15740E-04 
  58362.2474     0.15513E-04 
  58394.5096     0.15288E-04 
  58426.7718     0.15065E-04 
  58459.0339     0.14844E-04 
  58491.2961     0.14624E-04 
  58523.5582     0.14407E-04 
  58555.8204     0.14191E-04 
  58588.0826     0.13977E-04 
  58620.3447     0.13765E-04 
  58652.6069     0.13555E-04 
  58684.8690     0.13347E-04 
  58717.1312     0.13140E-04 
  58749.3934     0.12936E-04 
  58781.6555     0.12733E-04 
  58813.9177     0.12532E-04 
  58846.1798     0.12333E-04 
  58878.4420     0.12135E-04 
  58910.7042     0.11939E-04 
  58942.9663     0.11746E-04 
  58975.2285     0.11553E-04 
  59007.4906     0.11363E-04 
  59039.7528     0.11174E-04 
  59072.0150     0.10988E-04 
  59104.2771     0.10802E-04 
  59136.5393     0.10619E-04 
  59168.8014     0.10437E-04 
  59201.0636     0.10257E-04 
  59233.3258     0.10079E-04 
  59265.5879     0.99027E-05 
  59297.8501     0.97279E-05 
  59330.1122     0.95548E-05 
  59362.3744     0.93835E-05 
  59394.6366     0.92138E-05 
  59426.8987     0.90458E-05 
  59459.1609     0.88795E-05 
  59491.4230     0.87148E-05 
  59523.6852     0.85519E-05 
  59555.9474     0.83906E-05 
  59588.2095     0.82309E-05 
  59620.4717     0.80730E-05 
  59652.7338     0.79167E-05 
  59684.9960     0.77620E-05 
  59717.2582     0.76090E-05 
  59749.5203     0.74576E-05 
  59781.7825     0.73079E-05 
  59814.0446     0.71598E-05 
  59846.3068     0.70134E-05 
  59878.5690     0.68686E-05 
  59910.8311     0.67254E-05 
  59943.0933     0.65838E-05 
  59975.3554     0.64439E-05 
  60007.6176     0.63055E-05 
  60039.8798     0.61688E-05 
  60072.1419     0.60337E-05 
  60104.4041     0.59003E-05 
  60136.6662     0.57684E-05 
  60168.9284     0.56381E-05 
  60201.1906     0.55094E-05 
  60233.4527     0.53824E-05 
  60265.7149     0.52569E-05 
  60297.9770     0.51331E-05 
  60330.2392     0.50108E-05 
  60362.5014     0.48902E-05 
  60394.7635     0.47711E-05 
  60427.0257     0.46536E-05 
  60459.2878     0.45378E-05 
  60491.5500     0.44235E-05 
  60523.8122     0.43108E-05 
  60556.0743     0.41998E-05 
  60588.3365     0.40903E-05 
  60620.5986     0.39824E-05 
  60652.8608     0.38761E-05 
  60685.1230     0.37714E-05 
  60717.3851     0.36683E-05 
  60749.6473     0.35668E-05 
  60781.9094     0.34669E-05 
  60814.1716     0.33687E-05 
  60846.4338     0.32720E-05 
  60878.6959     0.31769E-05 
  60910.9581     0.30835E-05 
  60943.2202     0.29916E-05 
  60975.4824     0.29014E-05 
  61007.7446     0.28128E-05 
  61040.0067     0.27258E-05 
  61072.2689     0.26404E-05 
  61104.5310     0.25567E-05 
  61136.7932     0.24746E-05 
  61169.0554     0.23941E-05 
  61201.3175     0.23153E-05 
  61233.5797     0.22381E-05 
  61265.8418     0.21626E-05 
  61298.1040     0.20887E-05 
  61330.3662     0.20165E-05 
  61362.6283     0.19459E-05 
  61394.8905     0.18771E-05 
  61427.1526     0.18099E-05 
  61459.4148     0.17444E-05 
  61491.6770     0.16806E-05 
  61523.9391     0.16185E-05 
  61556.2013     0.15581E-05 
  61588.4634     0.14994E-05 
  61620.7256     0.14425E-05 
  61652.9878     0.13873E-05 
  61685.2499     0.13338E-05 
  61717.5121     0.12821E-05 
  61749.7742     0.12321E-05 
  61782.0364     0.11839E-05 
  61814.2986     0.11376E-05 
  61846.5607     0.10930E-05 
  61878.8229     0.10502E-05 
  61911.0850     0.10092E-05 
  61943.3472     0.97004E-06 
  61975.6094     0.93273E-06 
  62007.8715     0.89728E-06 
  62040.1337     0.86369E-06 
  62072.3958     0.83199E-06 
  62104.6580     0.80218E-06 
  62136.9202     0.77429E-06 
  62169.1823     0.74831E-06 
  62201.4445     0.72428E-06 
  62233.7066     0.70220E-06 
  62265.9688     0.68209E-06 
  62298.2310     0.66397E-06 
  62330.4931     0.64786E-06 
  62362.7553     0.63377E-06 
  62395.0174     0.62172E-06 
  62427.2796     0.61173E-06 
  62459.5418     0.60382E-06 
  62491.8039     0.59801E-06 
  62524.0661     0.59432E-06 
  62556.3282     0.59277E-06 
  62588.5904     0.59338E-06 
  62620.8526     0.59617E-06 
  62653.1147     0.60117E-06 
  62685.3769     0.60840E-06 
  62717.6390     0.61788E-06 
  62749.9012     0.62964E-06 
  62782.1634     0.64370E-06 
  62814.4255     0.66009E-06 
  62846.6877     0.67883E-06 
  62878.9498     0.69995E-06 
  62911.2120     0.72348E-06 
  62943.4742     0.74944E-06 
  62975.7363     0.77787E-06 
  63007.9985     0.80880E-06 
  63040.2606     0.84224E-06 
  63072.5228     0.87825E-06 
  63104.7850     0.91684E-06 
  63137.0471     0.95805E-06 
  63169.3093     0.10019E-05 
  63201.5714     0.10485E-05 
  63233.8336     0.10977E-05 
  63266.0958     0.11498E-05 
  63298.3579     0.12046E-05 
  63330.6201     0.12622E-05 
  63362.8822     0.13228E-05 
  63395.1444     0.13862E-05 
  63427.4066     0.14526E-05 
  63459.6687     0.15219E-05 
  63491.9309     0.15943E-05 
  63524.1930     0.16698E-05 
  63556.4552     0.17484E-05 
  63588.7174     0.18301E-05 
  63620.9795     0.19151E-05 
  63653.2417     0.20033E-05 
  63685.5038     0.20948E-05 
  63717.7660     0.21896E-05 
  63750.0282     0.22878E-05 
  63782.2903     0.23895E-05 
  63814.5525     0.24947E-05 
  63846.8146     0.26035E-05 
  63879.0768     0.27158E-05 
  63911.3390     0.28318E-05 
  63943.6011     0.29515E-05 
  63975.8633     0.30750E-05 
  64008.1254     0.32023E-05 
  64040.3876     0.33335E-05 
  64072.6498     0.34687E-05 
  64104.9119     0.36079E-05 
  64137.1741     0.37511E-05 
  64169.4362     0.38985E-05 
  64201.6984     0.40501E-05 
  64233.9606     0.42060E-05 
  64266.2227     0.43662E-05 
  64298.4849     0.45308E-05 
  64330.7470     0.46999E-05 
  64363.0092     0.48735E-05 
  64395.2714     0.50518E-05 
  64427.5335     0.52348E-05 
  64459.7957     0.54226E-05 
  64492.0578     0.56152E-05 
  64524.3200     0.58128E-05 
  64556.5822     0.60153E-05 
  64588.8443     0.62230E-05 
  64621.1065     0.64359E-05 
  64653.3686     0.66540E-05 
  64685.6308     0.68775E-05 
  64717.8930     0.71065E-05 
  64750.1551     0.73410E-05 
  64782.4173     0.75811E-05 
  64814.6794     0.78270E-05 
  64846.9416     0.80786E-05 
  64879.2038     0.83362E-05 
  64911.4659     0.85998E-05 
  64943.7281     0.88696E-05 
  64975.9902     0.91455E-05 
  65008.2524     0.94278E-05 
  65040.5146     0.97166E-05 
  65072.7767     0.10012E-04 
  65105.0389     0.10314E-04 
  65137.3010     0.10622E-04 
  65169.5632     0.10938E-04 
  65201.8254     0.11261E-04 
  65234.0875     0.11590E-04 
  65266.3497     0.11927E-04 
  65298.6118     0.12272E-04 
  65330.8740     0.12623E-04 
  65363.1362     0.12983E-04 
  65395.3983     0.13350E-04 
  65427.6605     0.13725E-04 
  65459.9226     0.14108E-04 
  65492.1848     0.14499E-04 
  65524.4470     0.14899E-04 
  65556.7091     0.15307E-04 
  65588.9713     0.15723E-04 
  65621.2334     0.16148E-04 
  65653.4956     0.16582E-04 
  65685.7578     0.17025E-04 
  65718.0199     0.17478E-04 
  65750.2821     0.17939E-04 
  65782.5442     0.18410E-04 
  65814.8064     0.18891E-04 
  65847.0686     0.19381E-04 
  65879.3307     0.19882E-04 
  65911.5929     0.20392E-04 
  65943.8550     0.20913E-04 
  65976.1172     0.21444E-04 
  66008.3794     0.21986E-04 
  66040.6415     0.22539E-04 
  66072.9037     0.23103E-04 
  66105.1658     0.23678E-04 
  66137.4280     0.24264E-04 
  66169.6902     0.24862E-04 
  66201.9523     0.25472E-04 
  66234.2145     0.26094E-04 
  66266.4766     0.26728E-04 
  66298.7388     0.27374E-04 
  66331.0010     0.28033E-04 
  66363.2631     0.28704E-04 
  66395.5253     0.29389E-04 
  66427.7874     0.30086E-04 
  66460.0496     0.30797E-04 
  66492.3118     0.31522E-04 
  66524.5739     0.32261E-04 
  66556.8361     0.33013E-04 
  66589.0982     0.33780E-04 
  66621.3604     0.34562E-04 
  66653.6226     0.35358E-04 
  66685.8847     0.36169E-04 
  66718.1469     0.36996E-04 
  66750.4090     0.37838E-04 
  66782.6712     0.38695E-04 
  66814.9334     0.39569E-04 
  66847.1955     0.40459E-04 
  66879.4577     0.41366E-04 
  66911.7198     0.42289E-04 
  66943.9820     0.43229E-04 
  66976.2442     0.44187E-04 
  67008.5063     0.45162E-04 
  67040.7685     0.46155E-04 
  67073.0306     0.47166E-04 
  67105.2928     0.48195E-04 
  67137.5550     0.49243E-04 
  67169.8171     0.50310E-04 
  67202.0793     0.51397E-04 
  67234.3414     0.52503E-04 
  67266.6036     0.53629E-04 
  67298.8658     0.54775E-04 
  67331.1279     0.55941E-04 
  67363.3901     0.57128E-04 
  67395.6522     0.58337E-04 
  67427.9144     0.59566E-04 
  67460.1766     0.60818E-04 
  67492.4387     0.62091E-04 
  67524.7009     0.63387E-04 
  67556.9630     0.64706E-04 
  67589.2252     0.66048E-04 
  67621.4874     0.67413E-04 
  67653.7495     0.68802E-04 
  67686.0117     0.70214E-04 
  67718.2738     0.71652E-04 
  67750.5360     0.73114E-04 
  67782.7982     0.74601E-04 
  67815.0603     0.76114E-04 
  67847.3225     0.77652E-04 
  67879.5846     0.79217E-04 
  67911.8468     0.80809E-04 
  67944.1090     0.82427E-04 
  67976.3711     0.84073E-04 
  68008.6333     0.85746E-04 
  68040.8954     0.87448E-04 
  68073.1576     0.89178E-04 
  68105.4198     0.90937E-04 
  68137.6819     0.92725E-04 
  68169.9441     0.94544E-04 
  68202.2062     0.96392E-04 
  68234.4684     0.98270E-04 
  68266.7306     0.10018E-03 
  68298.9927     0.10212E-03 
  68331.2549     0.10409E-03 
  68363.5170     0.10610E-03 
  68395.7792     0.10814E-03 
  68428.0414     0.11021E-03 
  68460.3035     0.11231E-03 
  68492.5657     0.11445E-03 
  68524.8278     0.11662E-03 
  68557.0900     0.11883E-03 
  68589.3522     0.12107E-03 
  68621.6143     0.12335E-03 
  68653.8765     0.12566E-03 
  68686.1386     0.12801E-03 
  68718.4008     0.13040E-03 
  68750.6630     0.13283E-03 
  68782.9251     0.13529E-03 
  68815.1873     0.13779E-03 
  68847.4494     0.14033E-03 
  68879.7116     0.14291E-03 
  68911.9738     0.14554E-03 
  68944.2359     0.14820E-03 
  68976.4981     0.15090E-03 
  69008.7602     0.15364E-03 
  69041.0224     0.15642E-03 
  69073.2846     0.15925E-03 
  69105.5467     0.16212E-03 
  69137.8089     0.16503E-03 
  69170.0710     0.16799E-03 
  69202.3332     0.17099E-03 
  69234.5954     0.17404E-03 
  69266.8575     0.17713E-03 
  69299.1197     0.18027E-03 
  69331.3818     0.18345E-03 
  69363.6440     0.18668E-03 
  69395.9062     0.18996E-03 
  69428.1683     0.19329E-03 
  69460.4305     0.19666E-03 
  69492.6926     0.20008E-03 
  69524.9548     0.20356E-03 
  69557.2170     0.20708E-03 
  69589.4791     0.21065E-03 
  69621.7413     0.21428E-03 
  69654.0034     0.21795E-03 
  69686.2656     0.22168E-03 
  69718.5278     0.22546E-03 
  69750.7899     0.22930E-03 
  69783.0521     0.23318E-03 
  69815.3142     0.23713E-03 
  69847.5764     0.24112E-03 
  69879.8386     0.24518E-03 
  69912.1007     0.24929E-03 
  69944.3629     0.25345E-03 
  69976.6250     0.25767E-03 
  70008.8872     0.26195E-03 
  70041.1494     0.26629E-03 
  70073.4115     0.27069E-03 
  70105.6737     0.27514E-03 
  70137.9358     0.27966E-03 
  70170.1980     0.28423E-03 
  70202.4602     0.28887E-03 
  70234.7223     0.29357E-03 
  70266.9845     0.29833E-03 
  70299.2466     0.30315E-03 
  70331.5088     0.30804E-03 
  70363.7710     0.31299E-03 
  70396.0331     0.31800E-03 
  70428.2953     0.32308E-03 
  70460.5574     0.32822E-03 
  70492.8196     0.33343E-03 
  70525.0818     0.33871E-03 
  70557.3439     0.34405E-03 
  70589.6061     0.34946E-03 
  70621.8682     0.35494E-03 
  70654.1304     0.36049E-03 
  70686.3926     0.36610E-03 
  70718.6547     0.37179E-03 
  70750.9169     0.37754E-03 
  70783.1790     0.38337E-03 
  70815.4412     0.38927E-03 
  70847.7034     0.39524E-03 
  70879.9655     0.40128E-03 
  70912.2277     0.40739E-03 
  70944.4898     0.41358E-03 
  70976.7520     0.41984E-03 
  71009.0142     0.42618E-03 
  71041.2763     0.43259E-03 
  71073.5385     0.43907E-03 
  71105.8006     0.44563E-03 
  71138.0628     0.45227E-03 
  71170.3250     0.45899E-03 
  71202.5871     0.46578E-03 
  71234.8493     0.47265E-03 
  71267.1114     0.47960E-03 
  71299.3736     0.48663E-03 
  71331.6358     0.49374E-03 
  71363.8979     0.50092E-03 
  71396.1601     0.50819E-03 
  71428.4222     0.51554E-03 
  71460.6844     0.52297E-03 
  71492.9466     0.53048E-03 
  71525.2087     0.53807E-03 
  71557.4709     0.54575E-03 
  71589.7330     0.55351E-03 
  71621.9952     0.56135E-03 
  71654.2574     0.56928E-03 
  71686.5195     0.57729E-03 
  71718.7817     0.58538E-03 
  71751.0438     0.59356E-03 
  71783.3060     0.60183E-03 
  71815.5682     0.61018E-03 
  71847.8303     0.61862E-03 
  71880.0925     0.62714E-03 
  71912.3546     0.63576E-03 
  71944.6168     0.64446E-03 
  71976.8790     0.65324E-03 
  72009.1411     0.66212E-03 
  72041.4033     0.67108E-03 
  72073.6654     0.68014E-03 
  72105.9276     0.68928E-03 
  72138.1898     0.69851E-03 
  72170.4519     0.70784E-03 
  72202.7141     0.71725E-03 
  72234.9762     0.72675E-03 
  72267.2384     0.73635E-03 
  72299.5006     0.74603E-03 
  72331.7627     0.75581E-03 
  72364.0249     0.76568E-03 
  72396.2870     0.77564E-03 
  72428.5492     0.78569E-03 
  72460.8114     0.79583E-03 
  72493.0735     0.80607E-03 
  72525.3357     0.81640E-03 
  72557.5978     0.82683E-03 
  72589.8600     0.83734E-03 
