  32262.1600     0.35650E+01 
  32294.4222     0.35809E+01 
  32326.6843     0.35969E+01 
  32358.9465     0.36129E+01 
  32391.2086     0.36290E+01 
  32423.4708     0.36451E+01 
  32455.7330     0.36613E+01 
  32487.9951     0.36775E+01 
  32520.2573     0.36937E+01 
  32552.5194     0.37100E+01 
  32584.7816     0.37264E+01 
  32617.0438     0.37428E+01 
  32649.3059     0.37592E+01 
  32681.5681     0.37757E+01 
  32713.8302     0.37922E+01 
  32746.0924     0.38088E+01 
  32778.3546     0.38254E+01 
  32810.6167     0.38421E+01 
  32842.8789     0.38588E+01 
  32875.1410     0.38756E+01 
  32907.4032     0.38924E+01 
  32939.6654     0.39092E+01 
  32971.9275     0.39261E+01 
  33004.1897     0.39431E+01 
  33036.4518     0.39601E+01 
  33068.7140     0.39771E+01 
  33100.9762     0.39942E+01 
  33133.2383     0.40113E+01 
  33165.5005     0.40285E+01 
  33197.7626     0.40457E+01 
  33230.0248     0.40629E+01 
  33262.2870     0.40802E+01 
  33294.5491     0.40976E+01 
  33326.8113     0.41150E+01 
  33359.0734     0.41324E+01 
  33391.3356     0.41499E+01 
  33423.5978     0.41674E+01 
  33455.8599     0.41850E+01 
  33488.1221     0.42026E+01 
  33520.3842     0.42203E+01 
  33552.6464     0.42380E+01 
  33584.9086     0.42557E+01 
  33617.1707     0.42735E+01 
  33649.4329     0.42914E+01 
  33681.6950     0.43093E+01 
  33713.9572     0.43272E+01 
  33746.2194     0.43452E+01 
  33778.4815     0.43632E+01 
  33810.7437     0.43813E+01 
  33843.0058     0.43994E+01 
  33875.2680     0.44175E+01 
  33907.5302     0.44357E+01 
  33939.7923     0.44540E+01 
  33972.0545     0.44723E+01 
  34004.3166     0.44906E+01 
  34036.5788     0.45090E+01 
  34068.8410     0.45274E+01 
  34101.1031     0.45458E+01 
  34133.3653     0.45643E+01 
  34165.6274     0.45829E+01 
  34197.8896     0.46015E+01 
  34230.1518     0.46201E+01 
  34262.4139     0.46388E+01 
  34294.6761     0.46575E+01 
  34326.9382     0.46763E+01 
  34359.2004     0.46951E+01 
  34391.4626     0.47140E+01 
  34423.7247     0.47329E+01 
  34455.9869     0.47518E+01 
  34488.2490     0.47708E+01 
  34520.5112     0.47898E+01 
  34552.7734     0.48089E+01 
  34585.0355     0.48280E+01 
  34617.2977     0.48472E+01 
  34649.5598     0.48664E+01 
  34681.8220     0.48856E+01 
  34714.0842     0.49049E+01 
  34746.3463     0.49242E+01 
  34778.6085     0.49436E+01 
  34810.8706     0.49630E+01 
  34843.1328     0.49825E+01 
  34875.3950     0.50020E+01 
  34907.6571     0.50215E+01 
  34939.9193     0.50411E+01 
  34972.1814     0.50607E+01 
  35004.4436     0.50804E+01 
  35036.7058     0.51001E+01 
  35068.9679     0.51198E+01 
  35101.2301     0.51396E+01 
  35133.4922     0.51595E+01 
  35165.7544     0.51793E+01 
  35198.0166     0.51993E+01 
  35230.2787     0.52192E+01 
  35262.5409     0.52392E+01 
  35294.8030     0.52593E+01 
  35327.0652     0.52793E+01 
  35359.3274     0.52995E+01 
  35391.5895     0.53196E+01 
  35423.8517     0.53398E+01 
  35456.1138     0.53601E+01 
  35488.3760     0.53804E+01 
  35520.6382     0.54007E+01 
  35552.9003     0.54211E+01 
  35585.1625     0.54415E+01 
  35617.4246     0.54619E+01 
  35649.6868     0.54824E+01 
  35681.9490     0.55029E+01 
  35714.2111     0.55235E+01 
  35746.4733     0.55441E+01 
  35778.7354     0.55648E+01 
  35810.9976     0.55854E+01 
  35843.2598     0.56062E+01 
  35875.5219     0.56269E+01 
  35907.7841     0.56478E+01 
  35940.0462     0.56686E+01 
  35972.3084     0.56895E+01 
  36004.5706     0.57104E+01 
  36036.8327     0.57314E+01 
  36069.0949     0.57524E+01 
  36101.3570     0.57734E+01 
  36133.6192     0.57945E+01 
  36165.8814     0.58156E+01 
  36198.1435     0.58368E+01 
  36230.4057     0.58580E+01 
  36262.6678     0.58792E+01 
  36294.9300     0.59005E+01 
  36327.1922     0.59218E+01 
  36359.4543     0.59432E+01 
  36391.7165     0.59645E+01 
  36423.9786     0.59860E+01 
  36456.2408     0.60074E+01 
  36488.5030     0.60289E+01 
  36520.7651     0.60505E+01 
  36553.0273     0.60721E+01 
  36585.2894     0.60937E+01 
  36617.5516     0.61153E+01 
  36649.8138     0.61370E+01 
  36682.0759     0.61587E+01 
  36714.3381     0.61805E+01 
  36746.6002     0.62023E+01 
  36778.8624     0.62241E+01 
  36811.1246     0.62460E+01 
  36843.3867     0.62679E+01 
  36875.6489     0.62898E+01 
  36907.9110     0.63118E+01 
  36940.1732     0.63338E+01 
  36972.4354     0.63559E+01 
  37004.6975     0.63780E+01 
  37036.9597     0.64001E+01 
  37069.2218     0.64223E+01 
  37101.4840     0.64445E+01 
  37133.7462     0.64667E+01 
  37166.0083     0.64890E+01 
  37198.2705     0.65112E+01 
  37230.5326     0.65336E+01 
  37262.7948     0.65560E+01 
  37295.0570     0.65784E+01 
  37327.3191     0.66008E+01 
  37359.5813     0.66233E+01 
  37391.8434     0.66458E+01 
  37424.1056     0.66683E+01 
  37456.3678     0.66909E+01 
  37488.6299     0.67135E+01 
  37520.8921     0.67361E+01 
  37553.1542     0.67588E+01 
  37585.4164     0.67815E+01 
  37617.6786     0.68043E+01 
  37649.9407     0.68271E+01 
  37682.2029     0.68499E+01 
  37714.4650     0.68727E+01 
  37746.7272     0.68956E+01 
  37778.9894     0.69185E+01 
  37811.2515     0.69414E+01 
  37843.5137     0.69644E+01 
  37875.7758     0.69874E+01 
  37908.0380     0.70105E+01 
  37940.3002     0.70335E+01 
  37972.5623     0.70566E+01 
  38004.8245     0.70798E+01 
  38037.0866     0.71029E+01 
  38069.3488     0.71261E+01 
  38101.6110     0.71494E+01 
  38133.8731     0.71726E+01 
  38166.1353     0.71959E+01 
  38198.3974     0.72192E+01 
  38230.6596     0.72426E+01 
  38262.9218     0.72660E+01 
  38295.1839     0.72894E+01 
  38327.4461     0.73128E+01 
  38359.7082     0.73363E+01 
  38391.9704     0.73598E+01 
  38424.2326     0.73834E+01 
  38456.4947     0.74069E+01 
  38488.7569     0.74305E+01 
  38521.0190     0.74541E+01 
  38553.2812     0.74778E+01 
  38585.5434     0.75015E+01 
  38617.8055     0.75252E+01 
  38650.0677     0.75489E+01 
  38682.3298     0.75727E+01 
  38714.5920     0.75965E+01 
  38746.8542     0.76203E+01 
  38779.1163     0.76442E+01 
  38811.3785     0.76681E+01 
  38843.6406     0.76920E+01 
  38875.9028     0.77159E+01 
  38908.1650     0.77399E+01 
  38940.4271     0.77639E+01 
  38972.6893     0.77879E+01 
  39004.9514     0.78120E+01 
  39037.2136     0.78361E+01 
  39069.4758     0.78602E+01 
  39101.7379     0.78843E+01 
  39134.0001     0.79085E+01 
  39166.2622     0.79327E+01 
  39198.5244     0.79569E+01 
  39230.7866     0.79811E+01 
  39263.0487     0.80054E+01 
  39295.3109     0.80297E+01 
  39327.5730     0.80540E+01 
  39359.8352     0.80784E+01 
  39392.0974     0.81028E+01 
  39424.3595     0.81272E+01 
  39456.6217     0.81516E+01 
  39488.8838     0.81760E+01 
  39521.1460     0.82005E+01 
  39553.4082     0.82250E+01 
  39585.6703     0.82496E+01 
  39617.9325     0.82741E+01 
  39650.1946     0.82987E+01 
  39682.4568     0.83233E+01 
  39714.7190     0.83479E+01 
  39746.9811     0.83726E+01 
  39779.2433     0.83973E+01 
  39811.5054     0.84220E+01 
  39843.7676     0.84467E+01 
  39876.0298     0.84714E+01 
  39908.2919     0.84962E+01 
  39940.5541     0.85210E+01 
  39972.8162     0.85458E+01 
  40005.0784     0.85707E+01 
  40037.3406     0.85955E+01 
  40069.6027     0.86204E+01 
  40101.8649     0.86453E+01 
  40134.1270     0.86703E+01 
  40166.3892     0.86952E+01 
  40198.6514     0.87202E+01 
  40230.9135     0.87452E+01 
  40263.1757     0.87702E+01 
  40295.4378     0.87953E+01 
  40327.7000     0.88203E+01 
  40359.9622     0.88454E+01 
  40392.2243     0.88705E+01 
  40424.4865     0.88957E+01 
  40456.7486     0.89208E+01 
  40489.0108     0.89460E+01 
  40521.2730     0.89712E+01 
  40553.5351     0.89964E+01 
  40585.7973     0.90217E+01 
  40618.0594     0.90469E+01 
  40650.3216     0.90722E+01 
  40682.5838     0.90975E+01 
  40714.8459     0.91228E+01 
  40747.1081     0.91482E+01 
  40779.3702     0.91736E+01 
  40811.6324     0.91989E+01 
  40843.8946     0.92243E+01 
  40876.1567     0.92498E+01 
  40908.4189     0.92752E+01 
  40940.6810     0.93007E+01 
  40972.9432     0.93261E+01 
  41005.2054     0.93517E+01 
  41037.4675     0.93772E+01 
  41069.7297     0.94027E+01 
  41101.9918     0.94283E+01 
  41134.2540     0.94538E+01 
  41166.5162     0.94794E+01 
  41198.7783     0.95051E+01 
  41231.0405     0.95307E+01 
  41263.3026     0.95563E+01 
  41295.5648     0.95820E+01 
  41327.8270     0.96077E+01 
  41360.0891     0.96334E+01 
  41392.3513     0.96591E+01 
  41424.6134     0.96849E+01 
  41456.8756     0.97106E+01 
  41489.1378     0.97364E+01 
  41521.3999     0.97622E+01 
  41553.6621     0.97880E+01 
  41585.9242     0.98138E+01 
  41618.1864     0.98397E+01 
  41650.4486     0.98655E+01 
  41682.7107     0.98914E+01 
  41714.9729     0.99173E+01 
  41747.2350     0.99432E+01 
  41779.4972     0.99692E+01 
  41811.7594     0.99951E+01 
  41844.0215     0.10021E+02 
  41876.2837     0.10047E+02 
  41908.5458     0.10073E+02 
  41940.8080     0.10099E+02 
  41973.0702     0.10125E+02 
  42005.3323     0.10151E+02 
  42037.5945     0.10177E+02 
  42069.8566     0.10203E+02 
  42102.1188     0.10229E+02 
  42134.3810     0.10255E+02 
  42166.6431     0.10282E+02 
  42198.9053     0.10308E+02 
  42231.1674     0.10334E+02 
  42263.4296     0.10360E+02 
  42295.6918     0.10386E+02 
  42327.9539     0.10412E+02 
  42360.2161     0.10439E+02 
  42392.4782     0.10465E+02 
  42424.7404     0.10491E+02 
  42457.0026     0.10517E+02 
  42489.2647     0.10544E+02 
  42521.5269     0.10570E+02 
  42553.7890     0.10596E+02 
  42586.0512     0.10622E+02 
  42618.3134     0.10649E+02 
  42650.5755     0.10675E+02 
  42682.8377     0.10701E+02 
  42715.0998     0.10728E+02 
  42747.3620     0.10754E+02 
  42779.6242     0.10781E+02 
  42811.8863     0.10807E+02 
  42844.1485     0.10833E+02 
  42876.4106     0.10860E+02 
  42908.6728     0.10886E+02 
  42940.9350     0.10913E+02 
  42973.1971     0.10939E+02 
  43005.4593     0.10966E+02 
  43037.7214     0.10992E+02 
  43069.9836     0.11019E+02 
  43102.2458     0.11045E+02 
  43134.5079     0.11072E+02 
  43166.7701     0.11098E+02 
  43199.0322     0.11125E+02 
  43231.2944     0.11151E+02 
  43263.5566     0.11178E+02 
  43295.8187     0.11205E+02 
  43328.0809     0.11231E+02 
  43360.3430     0.11258E+02 
  43392.6052     0.11284E+02 
  43424.8674     0.11311E+02 
  43457.1295     0.11338E+02 
  43489.3917     0.11364E+02 
  43521.6538     0.11391E+02 
  43553.9160     0.11418E+02 
  43586.1782     0.11444E+02 
  43618.4403     0.11471E+02 
  43650.7025     0.11498E+02 
  43682.9646     0.11525E+02 
  43715.2268     0.11551E+02 
  43747.4890     0.11578E+02 
  43779.7511     0.11605E+02 
  43812.0133     0.11632E+02 
  43844.2754     0.11659E+02 
  43876.5376     0.11685E+02 
  43908.7998     0.11712E+02 
  43941.0619     0.11739E+02 
  43973.3241     0.11766E+02 
  44005.5862     0.11793E+02 
  44037.8484     0.11820E+02 
  44070.1106     0.11846E+02 
  44102.3727     0.11873E+02 
  44134.6349     0.11900E+02 
  44166.8970     0.11927E+02 
  44199.1592     0.11954E+02 
  44231.4214     0.11981E+02 
  44263.6835     0.12008E+02 
  44295.9457     0.12035E+02 
  44328.2078     0.12062E+02 
  44360.4700     0.12089E+02 
  44392.7322     0.12116E+02 
  44424.9943     0.12143E+02 
  44457.2565     0.12170E+02 
  44489.5186     0.12197E+02 
  44521.7808     0.12224E+02 
  44554.0430     0.12251E+02 
  44586.3051     0.12278E+02 
  44618.5673     0.12305E+02 
  44650.8294     0.12332E+02 
  44683.0916     0.12359E+02 
  44715.3538     0.12386E+02 
  44747.6159     0.12413E+02 
  44779.8781     0.12441E+02 
  44812.1402     0.12468E+02 
  44844.4024     0.12495E+02 
  44876.6646     0.12522E+02 
  44908.9267     0.12549E+02 
  44941.1889     0.12576E+02 
  44973.4510     0.12604E+02 
  45005.7132     0.12631E+02 
  45037.9754     0.12658E+02 
  45070.2375     0.12685E+02 
  45102.4997     0.12713E+02 
  45134.7618     0.12740E+02 
  45167.0240     0.12767E+02 
  45199.2862     0.12794E+02 
  45231.5483     0.12822E+02 
  45263.8105     0.12849E+02 
  45296.0726     0.12876E+02 
  45328.3348     0.12904E+02 
  45360.5970     0.12931E+02 
  45392.8591     0.12958E+02 
  45425.1213     0.12986E+02 
  45457.3834     0.13013E+02 
  45489.6456     0.13040E+02 
  45521.9078     0.13068E+02 
  45554.1699     0.13095E+02 
  45586.4321     0.13123E+02 
  45618.6942     0.13150E+02 
  45650.9564     0.13177E+02 
  45683.2186     0.13205E+02 
  45715.4807     0.13232E+02 
  45747.7429     0.13260E+02 
  45780.0050     0.13287E+02 
  45812.2672     0.13315E+02 
  45844.5294     0.13342E+02 
  45876.7915     0.13370E+02 
  45909.0537     0.13397E+02 
  45941.3158     0.13425E+02 
  45973.5780     0.13453E+02 
  46005.8402     0.13480E+02 
  46038.1023     0.13508E+02 
  46070.3645     0.13535E+02 
  46102.6266     0.13563E+02 
  46134.8888     0.13591E+02 
  46167.1510     0.13618E+02 
  46199.4131     0.13646E+02 
  46231.6753     0.13674E+02 
  46263.9374     0.13701E+02 
  46296.1996     0.13729E+02 
  46328.4618     0.13757E+02 
  46360.7239     0.13785E+02 
  46392.9861     0.13812E+02 
  46425.2482     0.13840E+02 
  46457.5104     0.13868E+02 
  46489.7726     0.13896E+02 
  46522.0347     0.13923E+02 
  46554.2969     0.13951E+02 
  46586.5590     0.13979E+02 
  46618.8212     0.14007E+02 
  46651.0834     0.14035E+02 
  46683.3455     0.14063E+02 
  46715.6077     0.14091E+02 
  46747.8698     0.14119E+02 
  46780.1320     0.14147E+02 
  46812.3942     0.14174E+02 
  46844.6563     0.14202E+02 
  46876.9185     0.14230E+02 
  46909.1806     0.14258E+02 
  46941.4428     0.14286E+02 
  46973.7050     0.14315E+02 
  47005.9671     0.14343E+02 
  47038.2293     0.14371E+02 
  47070.4914     0.14399E+02 
  47102.7536     0.14427E+02 
  47135.0158     0.14455E+02 
  47167.2779     0.14483E+02 
  47199.5401     0.14511E+02 
  47231.8022     0.14539E+02 
  47264.0644     0.14568E+02 
  47296.3266     0.14596E+02 
  47328.5887     0.14624E+02 
  47360.8509     0.14652E+02 
  47393.1130     0.14681E+02 
  47425.3752     0.14709E+02 
  47457.6374     0.14737E+02 
  47489.8995     0.14766E+02 
  47522.1617     0.14794E+02 
  47554.4238     0.14822E+02 
  47586.6860     0.14851E+02 
  47618.9482     0.14879E+02 
  47651.2103     0.14908E+02 
  47683.4725     0.14936E+02 
  47715.7346     0.14965E+02 
  47747.9968     0.14993E+02 
  47780.2590     0.15022E+02 
  47812.5211     0.15050E+02 
  47844.7833     0.15079E+02 
  47877.0454     0.15107E+02 
  47909.3076     0.15136E+02 
  47941.5698     0.15165E+02 
  47973.8319     0.15193E+02 
  48006.0941     0.15222E+02 
  48038.3562     0.15251E+02 
  48070.6184     0.15280E+02 
  48102.8806     0.15308E+02 
  48135.1427     0.15337E+02 
  48167.4049     0.15366E+02 
  48199.6670     0.15395E+02 
  48231.9292     0.15424E+02 
  48264.1914     0.15453E+02 
  48296.4535     0.15482E+02 
  48328.7157     0.15510E+02 
  48360.9778     0.15539E+02 
  48393.2400     0.15568E+02 
  48425.5022     0.15597E+02 
  48457.7643     0.15627E+02 
  48490.0265     0.15656E+02 
  48522.2886     0.15685E+02 
  48554.5508     0.15714E+02 
  48586.8130     0.15743E+02 
  48619.0751     0.15772E+02 
  48651.3373     0.15802E+02 
  48683.5994     0.15831E+02 
  48715.8616     0.15860E+02 
  48748.1238     0.15889E+02 
  48780.3859     0.15919E+02 
  48812.6481     0.15948E+02 
  48844.9102     0.15978E+02 
  48877.1724     0.16007E+02 
  48909.4346     0.16037E+02 
  48941.6967     0.16066E+02 
  48973.9589     0.16096E+02 
  49006.2210     0.16125E+02 
  49038.4832     0.16155E+02 
  49070.7454     0.16185E+02 
  49103.0075     0.16214E+02 
  49135.2697     0.16244E+02 
  49167.5318     0.16274E+02 
  49199.7940     0.16303E+02 
  49232.0562     0.16333E+02 
  49264.3183     0.16363E+02 
  49296.5805     0.16393E+02 
  49328.8426     0.16423E+02 
  49361.1048     0.16453E+02 
  49393.3670     0.16483E+02 
  49425.6291     0.16513E+02 
  49457.8913     0.16543E+02 
  49490.1534     0.16573E+02 
  49522.4156     0.16603E+02 
  49554.6778     0.16634E+02 
  49586.9399     0.16664E+02 
  49619.2021     0.16694E+02 
  49651.4642     0.16725E+02 
  49683.7264     0.16755E+02 
  49715.9886     0.16785E+02 
  49748.2507     0.16816E+02 
  49780.5129     0.16846E+02 
  49812.7750     0.16877E+02 
  49845.0372     0.16907E+02 
  49877.2994     0.16938E+02 
  49909.5615     0.16969E+02 
  49941.8237     0.17000E+02 
  49974.0858     0.17030E+02 
  50006.3480     0.17061E+02 
  50038.6102     0.17092E+02 
  50070.8723     0.17123E+02 
  50103.1345     0.17154E+02 
  50135.3966     0.17185E+02 
  50167.6588     0.17216E+02 
  50199.9210     0.17247E+02 
  50232.1831     0.17278E+02 
  50264.4453     0.17309E+02 
  50296.7074     0.17341E+02 
  50328.9696     0.17372E+02 
  50361.2318     0.17403E+02 
  50393.4939     0.17435E+02 
  50425.7561     0.17466E+02 
  50458.0182     0.17498E+02 
  50490.2804     0.17529E+02 
  50522.5426     0.17561E+02 
  50554.8047     0.17592E+02 
  50587.0669     0.17624E+02 
  50619.3290     0.17656E+02 
  50651.5912     0.17688E+02 
  50683.8534     0.17720E+02 
  50716.1155     0.17752E+02 
  50748.3777     0.17784E+02 
  50780.6398     0.17816E+02 
  50812.9020     0.17848E+02 
  50845.1642     0.17880E+02 
  50877.4263     0.17912E+02 
  50909.6885     0.17944E+02 
  50941.9506     0.17977E+02 
  50974.2128     0.18009E+02 
  51006.4750     0.18042E+02 
  51038.7371     0.18074E+02 
  51070.9993     0.18107E+02 
  51103.2614     0.18139E+02 
  51135.5236     0.18172E+02 
  51167.7858     0.18205E+02 
  51200.0479     0.18238E+02 
  51232.3101     0.18271E+02 
  51264.5722     0.18304E+02 
  51296.8344     0.18337E+02 
  51329.0966     0.18370E+02 
  51361.3587     0.18403E+02 
  51393.6209     0.18436E+02 
  51425.8830     0.18470E+02 
  51458.1452     0.18503E+02 
  51490.4074     0.18537E+02 
  51522.6695     0.18570E+02 
  51554.9317     0.18604E+02 
  51587.1938     0.18637E+02 
  51619.4560     0.18671E+02 
  51651.7182     0.18705E+02 
  51683.9803     0.18739E+02 
  51716.2425     0.18773E+02 
  51748.5046     0.18807E+02 
  51780.7668     0.18841E+02 
  51813.0290     0.18875E+02 
  51845.2911     0.18909E+02 
  51877.5533     0.18944E+02 
  51909.8154     0.18978E+02 
  51942.0776     0.19013E+02 
  51974.3398     0.19047E+02 
  52006.6019     0.19082E+02 
  52038.8641     0.19117E+02 
  52071.1262     0.19151E+02 
  52103.3884     0.19186E+02 
  52135.6506     0.19221E+02 
  52167.9127     0.19256E+02 
  52200.1749     0.19292E+02 
  52232.4370     0.19327E+02 
  52264.6992     0.19362E+02 
  52296.9614     0.19398E+02 
  52329.2235     0.19433E+02 
  52361.4857     0.19469E+02 
  52393.7478     0.19504E+02 
  52426.0100     0.19540E+02 
  52458.2722     0.19576E+02 
  52490.5343     0.19612E+02 
  52522.7965     0.19648E+02 
  52555.0586     0.19684E+02 
  52587.3208     0.19720E+02 
  52619.5830     0.19757E+02 
  52651.8451     0.19793E+02 
  52684.1073     0.19829E+02 
  52716.3694     0.19866E+02 
  52748.6316     0.19903E+02 
  52780.8938     0.19939E+02 
  52813.1559     0.19976E+02 
  52845.4181     0.20013E+02 
  52877.6802     0.20050E+02 
  52909.9424     0.20088E+02 
  52942.2046     0.20125E+02 
  52974.4667     0.20162E+02 
  53006.7289     0.20200E+02 
  53038.9910     0.20237E+02 
  53071.2532     0.20275E+02 
  53103.5154     0.20313E+02 
  53135.7775     0.20351E+02 
  53168.0397     0.20389E+02 
  53200.3018     0.20427E+02 
  53232.5640     0.20465E+02 
  53264.8262     0.20503E+02 
  53297.0883     0.20542E+02 
  53329.3505     0.20580E+02 
  53361.6126     0.20619E+02 
  53393.8748     0.20657E+02 
  53426.1370     0.20696E+02 
  53458.3991     0.20735E+02 
  53490.6613     0.20774E+02 
  53522.9234     0.20814E+02 
  53555.1856     0.20853E+02 
  53587.4478     0.20892E+02 
  53619.7099     0.20932E+02 
  53651.9721     0.20971E+02 
  53684.2342     0.21011E+02 
  53716.4964     0.21051E+02 
  53748.7586     0.21091E+02 
  53781.0207     0.21131E+02 
  53813.2829     0.21172E+02 
  53845.5450     0.21212E+02 
  53877.8072     0.21252E+02 
  53910.0694     0.21293E+02 
  53942.3315     0.21334E+02 
  53974.5937     0.21375E+02 
  54006.8558     0.21416E+02 
  54039.1180     0.21457E+02 
  54071.3802     0.21498E+02 
  54103.6423     0.21539E+02 
  54135.9045     0.21581E+02 
  54168.1666     0.21622E+02 
  54200.4288     0.21664E+02 
  54232.6910     0.21706E+02 
  54264.9531     0.21748E+02 
  54297.2153     0.21790E+02 
  54329.4774     0.21833E+02 
  54361.7396     0.21875E+02 
  54394.0018     0.21918E+02 
  54426.2639     0.21960E+02 
  54458.5261     0.22003E+02 
  54490.7882     0.22046E+02 
  54523.0504     0.22089E+02 
  54555.3126     0.22132E+02 
  54587.5747     0.22176E+02 
  54619.8369     0.22219E+02 
  54652.0990     0.22263E+02 
  54684.3612     0.22307E+02 
  54716.6234     0.22351E+02 
  54748.8855     0.22395E+02 
  54781.1477     0.22439E+02 
  54813.4098     0.22484E+02 
  54845.6720     0.22528E+02 
  54877.9342     0.22573E+02 
  54910.1963     0.22618E+02 
  54942.4585     0.22663E+02 
  54974.7206     0.22708E+02 
  55006.9828     0.22753E+02 
  55039.2450     0.22799E+02 
  55071.5071     0.22844E+02 
  55103.7693     0.22890E+02 
  55136.0314     0.22936E+02 
  55168.2936     0.22982E+02 
  55200.5558     0.23028E+02 
  55232.8179     0.23075E+02 
  55265.0801     0.23121E+02 
  55297.3422     0.23168E+02 
  55329.6044     0.23215E+02 
  55361.8666     0.23262E+02 
  55394.1287     0.23309E+02 
  55426.3909     0.23356E+02 
  55458.6530     0.23404E+02 
  55490.9152     0.23451E+02 
  55523.1774     0.23499E+02 
  55555.4395     0.23547E+02 
  55587.7017     0.23596E+02 
  55619.9638     0.23644E+02 
  55652.2260     0.23692E+02 
  55684.4882     0.23741E+02 
  55716.7503     0.23790E+02 
  55749.0125     0.23839E+02 
  55781.2746     0.23888E+02 
  55813.5368     0.23938E+02 
  55845.7990     0.23987E+02 
  55878.0611     0.24037E+02 
  55910.3233     0.24087E+02 
  55942.5854     0.24137E+02 
  55974.8476     0.24187E+02 
  56007.1098     0.24238E+02 
  56039.3719     0.24288E+02 
  56071.6341     0.24339E+02 
  56103.8962     0.24390E+02 
  56136.1584     0.24441E+02 
  56168.4206     0.24493E+02 
  56200.6827     0.24544E+02 
  56232.9449     0.24596E+02 
  56265.2070     0.24648E+02 
  56297.4692     0.24700E+02 
  56329.7314     0.24753E+02 
  56361.9935     0.24805E+02 
  56394.2557     0.24858E+02 
  56426.5178     0.24911E+02 
  56458.7800     0.24964E+02 
  56491.0422     0.25017E+02 
  56523.3043     0.25071E+02 
  56555.5665     0.25124E+02 
  56587.8286     0.25178E+02 
  56620.0908     0.25232E+02 
  56652.3530     0.25287E+02 
  56684.6151     0.25341E+02 
  56716.8773     0.25396E+02 
  56749.1394     0.25451E+02 
  56781.4016     0.25506E+02 
  56813.6638     0.25561E+02 
  56845.9259     0.25616E+02 
  56878.1881     0.25672E+02 
  56910.4502     0.25728E+02 
  56942.7124     0.25784E+02 
  56974.9746     0.25841E+02 
  57007.2367     0.25897E+02 
  57039.4989     0.25954E+02 
  57071.7610     0.26011E+02 
  57104.0232     0.26068E+02 
  57136.2854     0.26125E+02 
  57168.5475     0.26183E+02 
  57200.8097     0.26241E+02 
  57233.0718     0.26299E+02 
  57265.3340     0.26357E+02 
  57297.5962     0.26416E+02 
  57329.8583     0.26474E+02 
  57362.1205     0.26533E+02 
  57394.3826     0.26592E+02 
  57426.6448     0.26652E+02 
  57458.9070     0.26711E+02 
  57491.1691     0.26771E+02 
  57523.4313     0.26831E+02 
  57555.6934     0.26891E+02 
  57587.9556     0.26952E+02 
  57620.2178     0.27013E+02 
  57652.4799     0.27074E+02 
  57684.7421     0.27135E+02 
  57717.0042     0.27196E+02 
  57749.2664     0.27258E+02 
  57781.5286     0.27320E+02 
  57813.7907     0.27382E+02 
  57846.0529     0.27444E+02 
  57878.3150     0.27507E+02 
  57910.5772     0.27570E+02 
  57942.8394     0.27633E+02 
  57975.1015     0.27696E+02 
  58007.3637     0.27760E+02 
  58039.6258     0.27824E+02 
  58071.8880     0.27888E+02 
  58104.1502     0.27952E+02 
  58136.4123     0.28016E+02 
  58168.6745     0.28081E+02 
  58200.9366     0.28146E+02 
  58233.1988     0.28211E+02 
  58265.4610     0.28277E+02 
  58297.7231     0.28343E+02 
  58329.9853     0.28409E+02 
  58362.2474     0.28475E+02 
  58394.5096     0.28542E+02 
  58426.7718     0.28608E+02 
  58459.0339     0.28675E+02 
  58491.2961     0.28743E+02 
  58523.5582     0.28810E+02 
  58555.8204     0.28878E+02 
  58588.0826     0.28946E+02 
  58620.3447     0.29014E+02 
  58652.6069     0.29083E+02 
  58684.8690     0.29152E+02 
  58717.1312     0.29221E+02 
  58749.3934     0.29290E+02 
  58781.6555     0.29360E+02 
  58813.9177     0.29430E+02 
  58846.1798     0.29500E+02 
  58878.4420     0.29570E+02 
  58910.7042     0.29641E+02 
  58942.9663     0.29712E+02 
  58975.2285     0.29783E+02 
  59007.4906     0.29855E+02 
  59039.7528     0.29927E+02 
  59072.0150     0.29999E+02 
  59104.2771     0.30071E+02 
  59136.5393     0.30144E+02 
  59168.8014     0.30217E+02 
  59201.0636     0.30290E+02 
  59233.3258     0.30363E+02 
  59265.5879     0.30437E+02 
  59297.8501     0.30511E+02 
  59330.1122     0.30585E+02 
  59362.3744     0.30660E+02 
  59394.6366     0.30735E+02 
  59426.8987     0.30810E+02 
  59459.1609     0.30885E+02 
  59491.4230     0.30961E+02 
  59523.6852     0.31037E+02 
  59555.9474     0.31113E+02 
  59588.2095     0.31190E+02 
  59620.4717     0.31266E+02 
  59652.7338     0.31344E+02 
  59684.9960     0.31421E+02 
  59717.2582     0.31499E+02 
  59749.5203     0.31577E+02 
  59781.7825     0.31655E+02 
  59814.0446     0.31734E+02 
  59846.3068     0.31813E+02 
  59878.5690     0.31892E+02 
  59910.8311     0.31971E+02 
  59943.0933     0.32051E+02 
  59975.3554     0.32131E+02 
  60007.6176     0.32212E+02 
  60039.8798     0.32292E+02 
  60072.1419     0.32373E+02 
  60104.4041     0.32455E+02 
  60136.6662     0.32536E+02 
  60168.9284     0.32618E+02 
  60201.1906     0.32700E+02 
  60233.4527     0.32783E+02 
  60265.7149     0.32866E+02 
  60297.9770     0.32949E+02 
  60330.2392     0.33032E+02 
  60362.5014     0.33116E+02 
  60394.7635     0.33200E+02 
  60427.0257     0.33284E+02 
  60459.2878     0.33369E+02 
  60491.5500     0.33454E+02 
  60523.8122     0.33539E+02 
  60556.0743     0.33625E+02 
  60588.3365     0.33711E+02 
  60620.5986     0.33797E+02 
  60652.8608     0.33884E+02 
  60685.1230     0.33971E+02 
  60717.3851     0.34058E+02 
  60749.6473     0.34146E+02 
  60781.9094     0.34233E+02 
  60814.1716     0.34322E+02 
  60846.4338     0.34410E+02 
  60878.6959     0.34499E+02 
  60910.9581     0.34588E+02 
  60943.2202     0.34678E+02 
  60975.4824     0.34767E+02 
  61007.7446     0.34858E+02 
  61040.0067     0.34948E+02 
  61072.2689     0.35039E+02 
  61104.5310     0.35130E+02 
  61136.7932     0.35221E+02 
  61169.0554     0.35313E+02 
  61201.3175     0.35405E+02 
  61233.5797     0.35498E+02 
  61265.8418     0.35591E+02 
  61298.1040     0.35684E+02 
  61330.3662     0.35777E+02 
  61362.6283     0.35871E+02 
  61394.8905     0.35965E+02 
  61427.1526     0.36060E+02 
  61459.4148     0.36154E+02 
  61491.6770     0.36249E+02 
  61523.9391     0.36345E+02 
  61556.2013     0.36441E+02 
  61588.4634     0.36537E+02 
  61620.7256     0.36633E+02 
  61652.9878     0.36730E+02 
  61685.2499     0.36827E+02 
  61717.5121     0.36925E+02 
  61749.7742     0.37023E+02 
  61782.0364     0.37121E+02 
  61814.2986     0.37220E+02 
  61846.5607     0.37319E+02 
  61878.8229     0.37418E+02 
  61911.0850     0.37518E+02 
  61943.3472     0.37618E+02 
  61975.6094     0.37718E+02 
  62007.8715     0.37818E+02 
  62040.1337     0.37920E+02 
  62072.3958     0.38021E+02 
  62104.6580     0.38123E+02 
  62136.9202     0.38225E+02 
  62169.1823     0.38327E+02 
  62201.4445     0.38430E+02 
  62233.7066     0.38533E+02 
  62265.9688     0.38637E+02 
  62298.2310     0.38740E+02 
  62330.4931     0.38845E+02 
  62362.7553     0.38949E+02 
  62395.0174     0.39054E+02 
  62427.2796     0.39159E+02 
  62459.5418     0.39265E+02 
  62491.8039     0.39371E+02 
  62524.0661     0.39477E+02 
  62556.3282     0.39584E+02 
  62588.5904     0.39691E+02 
  62620.8526     0.39799E+02 
  62653.1147     0.39907E+02 
  62685.3769     0.40015E+02 
  62717.6390     0.40123E+02 
  62749.9012     0.40232E+02 
  62782.1634     0.40342E+02 
  62814.4255     0.40451E+02 
  62846.6877     0.40561E+02 
  62878.9498     0.40672E+02 
  62911.2120     0.40782E+02 
  62943.4742     0.40893E+02 
  62975.7363     0.41005E+02 
  63007.9985     0.41117E+02 
  63040.2606     0.41229E+02 
  63072.5228     0.41342E+02 
  63104.7850     0.41455E+02 
  63137.0471     0.41568E+02 
  63169.3093     0.41682E+02 
  63201.5714     0.41796E+02 
  63233.8336     0.41910E+02 
  63266.0958     0.42025E+02 
  63298.3579     0.42140E+02 
  63330.6201     0.42256E+02 
  63362.8822     0.42372E+02 
  63395.1444     0.42488E+02 
  63427.4066     0.42605E+02 
  63459.6687     0.42722E+02 
  63491.9309     0.42840E+02 
  63524.1930     0.42958E+02 
  63556.4552     0.43076E+02 
  63588.7174     0.43194E+02 
  63620.9795     0.43313E+02 
  63653.2417     0.43433E+02 
  63685.5038     0.43553E+02 
  63717.7660     0.43673E+02 
  63750.0282     0.43793E+02 
  63782.2903     0.43914E+02 
  63814.5525     0.44035E+02 
  63846.8146     0.44157E+02 
  63879.0768     0.44279E+02 
  63911.3390     0.44402E+02 
  63943.6011     0.44524E+02 
  63975.8633     0.44648E+02 
  64008.1254     0.44771E+02 
  64040.3876     0.44895E+02 
  64072.6498     0.45019E+02 
  64104.9119     0.45144E+02 
  64137.1741     0.45269E+02 
  64169.4362     0.45395E+02 
  64201.6984     0.45521E+02 
  64233.9606     0.45647E+02 
  64266.2227     0.45774E+02 
  64298.4849     0.45901E+02 
  64330.7470     0.46028E+02 
  64363.0092     0.46156E+02 
  64395.2714     0.46284E+02 
  64427.5335     0.46413E+02 
  64459.7957     0.46542E+02 
  64492.0578     0.46671E+02 
  64524.3200     0.46801E+02 
  64556.5822     0.46931E+02 
  64588.8443     0.47062E+02 
  64621.1065     0.47193E+02 
  64653.3686     0.47324E+02 
  64685.6308     0.47456E+02 
  64717.8930     0.47588E+02 
  64750.1551     0.47720E+02 
  64782.4173     0.47853E+02 
  64814.6794     0.47987E+02 
  64846.9416     0.48120E+02 
  64879.2038     0.48254E+02 
  64911.4659     0.48389E+02 
  64943.7281     0.48524E+02 
  64975.9902     0.48659E+02 
  65008.2524     0.48795E+02 
  65040.5146     0.48931E+02 
  65072.7767     0.49067E+02 
  65105.0389     0.49204E+02 
  65137.3010     0.49341E+02 
  65169.5632     0.49479E+02 
  65201.8254     0.49617E+02 
  65234.0875     0.49755E+02 
  65266.3497     0.49894E+02 
  65298.6118     0.50033E+02 
  65330.8740     0.50173E+02 
  65363.1362     0.50313E+02 
  65395.3983     0.50453E+02 
  65427.6605     0.50594E+02 
  65459.9226     0.50735E+02 
  65492.1848     0.50876E+02 
  65524.4470     0.51018E+02 
  65556.7091     0.51161E+02 
  65588.9713     0.51303E+02 
  65621.2334     0.51447E+02 
  65653.4956     0.51590E+02 
  65685.7578     0.51734E+02 
  65718.0199     0.51878E+02 
  65750.2821     0.52023E+02 
  65782.5442     0.52168E+02 
  65814.8064     0.52314E+02 
  65847.0686     0.52459E+02 
  65879.3307     0.52606E+02 
  65911.5929     0.52752E+02 
  65943.8550     0.52899E+02 
  65976.1172     0.53047E+02 
  66008.3794     0.53195E+02 
  66040.6415     0.53343E+02 
  66072.9037     0.53492E+02 
  66105.1658     0.53641E+02 
  66137.4280     0.53790E+02 
  66169.6902     0.53940E+02 
  66201.9523     0.54090E+02 
  66234.2145     0.54241E+02 
  66266.4766     0.54392E+02 
  66298.7388     0.54543E+02 
  66331.0010     0.54695E+02 
  66363.2631     0.54847E+02 
  66395.5253     0.55000E+02 
  66427.7874     0.55152E+02 
  66460.0496     0.55306E+02 
  66492.3118     0.55460E+02 
  66524.5739     0.55614E+02 
  66556.8361     0.55768E+02 
  66589.0982     0.55923E+02 
  66621.3604     0.56078E+02 
  66653.6226     0.56234E+02 
  66685.8847     0.56390E+02 
  66718.1469     0.56547E+02 
  66750.4090     0.56703E+02 
  66782.6712     0.56861E+02 
  66814.9334     0.57018E+02 
  66847.1955     0.57176E+02 
  66879.4577     0.57335E+02 
  66911.7198     0.57494E+02 
  66943.9820     0.57653E+02 
  66976.2442     0.57812E+02 
  67008.5063     0.57972E+02 
  67040.7685     0.58133E+02 
  67073.0306     0.58293E+02 
  67105.2928     0.58454E+02 
  67137.5550     0.58616E+02 
  67169.8171     0.58778E+02 
  67202.0793     0.58940E+02 
  67234.3414     0.59103E+02 
  67266.6036     0.59266E+02 
  67298.8658     0.59429E+02 
  67331.1279     0.59593E+02 
  67363.3901     0.59757E+02 
  67395.6522     0.59922E+02 
  67427.9144     0.60087E+02 
  67460.1766     0.60252E+02 
  67492.4387     0.60418E+02 
  67524.7009     0.60584E+02 
  67556.9630     0.60750E+02 
  67589.2252     0.60917E+02 
  67621.4874     0.61084E+02 
  67653.7495     0.61252E+02 
  67686.0117     0.61420E+02 
  67718.2738     0.61588E+02 
  67750.5360     0.61757E+02 
  67782.7982     0.61926E+02 
  67815.0603     0.62096E+02 
  67847.3225     0.62266E+02 
  67879.5846     0.62436E+02 
  67911.8468     0.62606E+02 
  67944.1090     0.62777E+02 
  67976.3711     0.62949E+02 
  68008.6333     0.63120E+02 
  68040.8954     0.63293E+02 
  68073.1576     0.63465E+02 
  68105.4198     0.63638E+02 
  68137.6819     0.63811E+02 
  68169.9441     0.63985E+02 
  68202.2062     0.64159E+02 
  68234.4684     0.64333E+02 
  68266.7306     0.64508E+02 
  68298.9927     0.64683E+02 
  68331.2549     0.64858E+02 
  68363.5170     0.65034E+02 
  68395.7792     0.65210E+02 
  68428.0414     0.65387E+02 
  68460.3035     0.65564E+02 
  68492.5657     0.65741E+02 
  68524.8278     0.65918E+02 
  68557.0900     0.66096E+02 
  68589.3522     0.66275E+02 
  68621.6143     0.66453E+02 
  68653.8765     0.66632E+02 
  68686.1386     0.66812E+02 
  68718.4008     0.66991E+02 
  68750.6630     0.67172E+02 
  68782.9251     0.67352E+02 
  68815.1873     0.67533E+02 
  68847.4494     0.67714E+02 
  68879.7116     0.67896E+02 
  68911.9738     0.68077E+02 
  68944.2359     0.68260E+02 
  68976.4981     0.68442E+02 
  69008.7602     0.68625E+02 
  69041.0224     0.68808E+02 
  69073.2846     0.68992E+02 
  69105.5467     0.69176E+02 
  69137.8089     0.69360E+02 
  69170.0710     0.69545E+02 
  69202.3332     0.69730E+02 
  69234.5954     0.69915E+02 
  69266.8575     0.70101E+02 
  69299.1197     0.70287E+02 
  69331.3818     0.70473E+02 
  69363.6440     0.70660E+02 
  69395.9062     0.70847E+02 
  69428.1683     0.71035E+02 
  69460.4305     0.71222E+02 
  69492.6926     0.71410E+02 
  69524.9548     0.71599E+02 
  69557.2170     0.71788E+02 
  69589.4791     0.71977E+02 
  69621.7413     0.72166E+02 
  69654.0034     0.72356E+02 
  69686.2656     0.72546E+02 
  69718.5278     0.72736E+02 
  69750.7899     0.72927E+02 
  69783.0521     0.73118E+02 
  69815.3142     0.73309E+02 
  69847.5764     0.73501E+02 
  69879.8386     0.73693E+02 
  69912.1007     0.73885E+02 
  69944.3629     0.74078E+02 
  69976.6250     0.74271E+02 
  70008.8872     0.74464E+02 
  70041.1494     0.74658E+02 
  70073.4115     0.74852E+02 
  70105.6737     0.75046E+02 
  70137.9358     0.75240E+02 
  70170.1980     0.75435E+02 
  70202.4602     0.75630E+02 
  70234.7223     0.75826E+02 
  70266.9845     0.76022E+02 
  70299.2466     0.76218E+02 
  70331.5088     0.76414E+02 
  70363.7710     0.76611E+02 
  70396.0331     0.76808E+02 
  70428.2953     0.77005E+02 
  70460.5574     0.77203E+02 
  70492.8196     0.77401E+02 
  70525.0818     0.77599E+02 
  70557.3439     0.77797E+02 
  70589.6061     0.77996E+02 
  70621.8682     0.78195E+02 
  70654.1304     0.78395E+02 
  70686.3926     0.78594E+02 
  70718.6547     0.78794E+02 
  70750.9169     0.78995E+02 
  70783.1790     0.79195E+02 
  70815.4412     0.79396E+02 
  70847.7034     0.79597E+02 
  70879.9655     0.79799E+02 
  70912.2277     0.80000E+02 
  70944.4898     0.80202E+02 
  70976.7520     0.80404E+02 
  71009.0142     0.80607E+02 
  71041.2763     0.80810E+02 
  71073.5385     0.81013E+02 
  71105.8006     0.81216E+02 
  71138.0628     0.81420E+02 
  71170.3250     0.81624E+02 
  71202.5871     0.81828E+02 
  71234.8493     0.82032E+02 
  71267.1114     0.82237E+02 
  71299.3736     0.82442E+02 
  71331.6358     0.82647E+02 
  71363.8979     0.82853E+02 
  71396.1601     0.83059E+02 
  71428.4222     0.83265E+02 
  71460.6844     0.83471E+02 
  71492.9466     0.83678E+02 
  71525.2087     0.83884E+02 
  71557.4709     0.84091E+02 
  71589.7330     0.84299E+02 
  71621.9952     0.84506E+02 
  71654.2574     0.84714E+02 
  71686.5195     0.84922E+02 
  71718.7817     0.85130E+02 
  71751.0438     0.85339E+02 
  71783.3060     0.85548E+02 
  71815.5682     0.85757E+02 
  71847.8303     0.85966E+02 
  71880.0925     0.86176E+02 
  71912.3546     0.86385E+02 
  71944.6168     0.86595E+02 
  71976.8790     0.86806E+02 
  72009.1411     0.87016E+02 
  72041.4033     0.87227E+02 
  72073.6654     0.87438E+02 
  72105.9276     0.87649E+02 
  72138.1898     0.87860E+02 
  72170.4519     0.88072E+02 
  72202.7141     0.88284E+02 
  72234.9762     0.88496E+02 
  72267.2384     0.88708E+02 
  72299.5006     0.88920E+02 
  72331.7627     0.89133E+02 
  72364.0249     0.89346E+02 
  72396.2870     0.89559E+02 
  72428.5492     0.89772E+02 
  72460.8114     0.89986E+02 
  72493.0735     0.90200E+02 
  72525.3357     0.90414E+02 
  72557.5978     0.90628E+02 
  72589.8600     0.90842E+02 
