  32262.1600     0.58758E-02 
  32294.4222     0.59431E-02 
  32326.6843     0.60108E-02 
  32358.9465     0.60790E-02 
  32391.2086     0.61477E-02 
  32423.4708     0.62169E-02 
  32455.7330     0.62867E-02 
  32487.9951     0.63569E-02 
  32520.2573     0.64276E-02 
  32552.5194     0.64988E-02 
  32584.7816     0.65706E-02 
  32617.0438     0.66428E-02 
  32649.3059     0.67155E-02 
  32681.5681     0.67887E-02 
  32713.8302     0.68624E-02 
  32746.0924     0.69366E-02 
  32778.3546     0.70113E-02 
  32810.6167     0.70865E-02 
  32842.8789     0.71622E-02 
  32875.1410     0.72384E-02 
  32907.4032     0.73151E-02 
  32939.6654     0.73922E-02 
  32971.9275     0.74699E-02 
  33004.1897     0.75480E-02 
  33036.4518     0.76266E-02 
  33068.7140     0.77057E-02 
  33100.9762     0.77853E-02 
  33133.2383     0.78654E-02 
  33165.5005     0.79460E-02 
  33197.7626     0.80270E-02 
  33230.0248     0.81085E-02 
  33262.2870     0.81905E-02 
  33294.5491     0.82730E-02 
  33326.8113     0.83559E-02 
  33359.0734     0.84394E-02 
  33391.3356     0.85232E-02 
  33423.5978     0.86076E-02 
  33455.8599     0.86924E-02 
  33488.1221     0.87777E-02 
  33520.3842     0.88634E-02 
  33552.6464     0.89496E-02 
  33584.9086     0.90362E-02 
  33617.1707     0.91233E-02 
  33649.4329     0.92109E-02 
  33681.6950     0.92989E-02 
  33713.9572     0.93873E-02 
  33746.2194     0.94762E-02 
  33778.4815     0.95656E-02 
  33810.7437     0.96553E-02 
  33843.0058     0.97455E-02 
  33875.2680     0.98362E-02 
  33907.5302     0.99272E-02 
  33939.7923     0.10019E-01 
  33972.0545     0.10111E-01 
  34004.3166     0.10203E-01 
  34036.5788     0.10296E-01 
  34068.8410     0.10389E-01 
  34101.1031     0.10482E-01 
  34133.3653     0.10576E-01 
  34165.6274     0.10671E-01 
  34197.8896     0.10766E-01 
  34230.1518     0.10861E-01 
  34262.4139     0.10956E-01 
  34294.6761     0.11052E-01 
  34326.9382     0.11149E-01 
  34359.2004     0.11245E-01 
  34391.4626     0.11342E-01 
  34423.7247     0.11440E-01 
  34455.9869     0.11538E-01 
  34488.2490     0.11636E-01 
  34520.5112     0.11734E-01 
  34552.7734     0.11833E-01 
  34585.0355     0.11933E-01 
  34617.2977     0.12032E-01 
  34649.5598     0.12132E-01 
  34681.8220     0.12232E-01 
  34714.0842     0.12333E-01 
  34746.3463     0.12434E-01 
  34778.6085     0.12535E-01 
  34810.8706     0.12637E-01 
  34843.1328     0.12739E-01 
  34875.3950     0.12841E-01 
  34907.6571     0.12944E-01 
  34939.9193     0.13046E-01 
  34972.1814     0.13150E-01 
  35004.4436     0.13253E-01 
  35036.7058     0.13357E-01 
  35068.9679     0.13461E-01 
  35101.2301     0.13565E-01 
  35133.4922     0.13669E-01 
  35165.7544     0.13774E-01 
  35198.0166     0.13879E-01 
  35230.2787     0.13985E-01 
  35262.5409     0.14090E-01 
  35294.8030     0.14196E-01 
  35327.0652     0.14302E-01 
  35359.3274     0.14408E-01 
  35391.5895     0.14515E-01 
  35423.8517     0.14621E-01 
  35456.1138     0.14728E-01 
  35488.3760     0.14835E-01 
  35520.6382     0.14943E-01 
  35552.9003     0.15050E-01 
  35585.1625     0.15158E-01 
  35617.4246     0.15266E-01 
  35649.6868     0.15374E-01 
  35681.9490     0.15482E-01 
  35714.2111     0.15591E-01 
  35746.4733     0.15699E-01 
  35778.7354     0.15808E-01 
  35810.9976     0.15917E-01 
  35843.2598     0.16026E-01 
  35875.5219     0.16135E-01 
  35907.7841     0.16244E-01 
  35940.0462     0.16354E-01 
  35972.3084     0.16463E-01 
  36004.5706     0.16573E-01 
  36036.8327     0.16683E-01 
  36069.0949     0.16792E-01 
  36101.3570     0.16902E-01 
  36133.6192     0.17012E-01 
  36165.8814     0.17122E-01 
  36198.1435     0.17233E-01 
  36230.4057     0.17343E-01 
  36262.6678     0.17453E-01 
  36294.9300     0.17563E-01 
  36327.1922     0.17674E-01 
  36359.4543     0.17784E-01 
  36391.7165     0.17895E-01 
  36423.9786     0.18005E-01 
  36456.2408     0.18116E-01 
  36488.5030     0.18226E-01 
  36520.7651     0.18337E-01 
  36553.0273     0.18447E-01 
  36585.2894     0.18558E-01 
  36617.5516     0.18668E-01 
  36649.8138     0.18778E-01 
  36682.0759     0.18889E-01 
  36714.3381     0.18999E-01 
  36746.6002     0.19109E-01 
  36778.8624     0.19220E-01 
  36811.1246     0.19330E-01 
  36843.3867     0.19440E-01 
  36875.6489     0.19550E-01 
  36907.9110     0.19660E-01 
  36940.1732     0.19770E-01 
  36972.4354     0.19880E-01 
  37004.6975     0.19989E-01 
  37036.9597     0.20099E-01 
  37069.2218     0.20208E-01 
  37101.4840     0.20318E-01 
  37133.7462     0.20427E-01 
  37166.0083     0.20536E-01 
  37198.2705     0.20645E-01 
  37230.5326     0.20753E-01 
  37262.7948     0.20862E-01 
  37295.0570     0.20970E-01 
  37327.3191     0.21079E-01 
  37359.5813     0.21187E-01 
  37391.8434     0.21294E-01 
  37424.1056     0.21402E-01 
  37456.3678     0.21510E-01 
  37488.6299     0.21617E-01 
  37520.8921     0.21724E-01 
  37553.1542     0.21831E-01 
  37585.4164     0.21937E-01 
  37617.6786     0.22043E-01 
  37649.9407     0.22149E-01 
  37682.2029     0.22255E-01 
  37714.4650     0.22361E-01 
  37746.7272     0.22466E-01 
  37778.9894     0.22571E-01 
  37811.2515     0.22676E-01 
  37843.5137     0.22780E-01 
  37875.7758     0.22884E-01 
  37908.0380     0.22988E-01 
  37940.3002     0.23092E-01 
  37972.5623     0.23195E-01 
  38004.8245     0.23298E-01 
  38037.0866     0.23400E-01 
  38069.3488     0.23502E-01 
  38101.6110     0.23604E-01 
  38133.8731     0.23706E-01 
  38166.1353     0.23807E-01 
  38198.3974     0.23907E-01 
  38230.6596     0.24008E-01 
  38262.9218     0.24108E-01 
  38295.1839     0.24207E-01 
  38327.4461     0.24307E-01 
  38359.7082     0.24405E-01 
  38391.9704     0.24504E-01 
  38424.2326     0.24602E-01 
  38456.4947     0.24699E-01 
  38488.7569     0.24796E-01 
  38521.0190     0.24893E-01 
  38553.2812     0.24989E-01 
  38585.5434     0.25085E-01 
  38617.8055     0.25180E-01 
  38650.0677     0.25275E-01 
  38682.3298     0.25370E-01 
  38714.5920     0.25463E-01 
  38746.8542     0.25557E-01 
  38779.1163     0.25650E-01 
  38811.3785     0.25742E-01 
  38843.6406     0.25834E-01 
  38875.9028     0.25926E-01 
  38908.1650     0.26017E-01 
  38940.4271     0.26107E-01 
  38972.6893     0.26197E-01 
  39004.9514     0.26286E-01 
  39037.2136     0.26375E-01 
  39069.4758     0.26463E-01 
  39101.7379     0.26551E-01 
  39134.0001     0.26638E-01 
  39166.2622     0.26725E-01 
  39198.5244     0.26811E-01 
  39230.7866     0.26896E-01 
  39263.0487     0.26981E-01 
  39295.3109     0.27065E-01 
  39327.5730     0.27149E-01 
  39359.8352     0.27232E-01 
  39392.0974     0.27315E-01 
  39424.3595     0.27397E-01 
  39456.6217     0.27478E-01 
  39488.8838     0.27559E-01 
  39521.1460     0.27639E-01 
  39553.4082     0.27718E-01 
  39585.6703     0.27797E-01 
  39617.9325     0.27875E-01 
  39650.1946     0.27952E-01 
  39682.4568     0.28029E-01 
  39714.7190     0.28105E-01 
  39746.9811     0.28181E-01 
  39779.2433     0.28256E-01 
  39811.5054     0.28330E-01 
  39843.7676     0.28404E-01 
  39876.0298     0.28476E-01 
  39908.2919     0.28549E-01 
  39940.5541     0.28620E-01 
  39972.8162     0.28691E-01 
  40005.0784     0.28761E-01 
  40037.3406     0.28830E-01 
  40069.6027     0.28899E-01 
  40101.8649     0.28967E-01 
  40134.1270     0.29034E-01 
  40166.3892     0.29101E-01 
  40198.6514     0.29167E-01 
  40230.9135     0.29232E-01 
  40263.1757     0.29296E-01 
  40295.4378     0.29360E-01 
  40327.7000     0.29423E-01 
  40359.9622     0.29485E-01 
  40392.2243     0.29546E-01 
  40424.4865     0.29607E-01 
  40456.7486     0.29667E-01 
  40489.0108     0.29726E-01 
  40521.2730     0.29784E-01 
  40553.5351     0.29842E-01 
  40585.7973     0.29899E-01 
  40618.0594     0.29955E-01 
  40650.3216     0.30010E-01 
  40682.5838     0.30065E-01 
  40714.8459     0.30119E-01 
  40747.1081     0.30172E-01 
  40779.3702     0.30224E-01 
  40811.6324     0.30275E-01 
  40843.8946     0.30326E-01 
  40876.1567     0.30376E-01 
  40908.4189     0.30425E-01 
  40940.6810     0.30473E-01 
  40972.9432     0.30521E-01 
  41005.2054     0.30567E-01 
  41037.4675     0.30613E-01 
  41069.7297     0.30658E-01 
  41101.9918     0.30702E-01 
  41134.2540     0.30746E-01 
  41166.5162     0.30788E-01 
  41198.7783     0.30830E-01 
  41231.0405     0.30871E-01 
  41263.3026     0.30911E-01 
  41295.5648     0.30951E-01 
  41327.8270     0.30989E-01 
  41360.0891     0.31027E-01 
  41392.3513     0.31064E-01 
  41424.6134     0.31100E-01 
  41456.8756     0.31135E-01 
  41489.1378     0.31169E-01 
  41521.3999     0.31203E-01 
  41553.6621     0.31236E-01 
  41585.9242     0.31268E-01 
  41618.1864     0.31299E-01 
  41650.4486     0.31329E-01 
  41682.7107     0.31358E-01 
  41714.9729     0.31387E-01 
  41747.2350     0.31414E-01 
  41779.4972     0.31441E-01 
  41811.7594     0.31467E-01 
  41844.0215     0.31492E-01 
  41876.2837     0.31517E-01 
  41908.5458     0.31540E-01 
  41940.8080     0.31563E-01 
  41973.0702     0.31585E-01 
  42005.3323     0.31606E-01 
  42037.5945     0.31626E-01 
  42069.8566     0.31645E-01 
  42102.1188     0.31664E-01 
  42134.3810     0.31681E-01 
  42166.6431     0.31698E-01 
  42198.9053     0.31714E-01 
  42231.1674     0.31729E-01 
  42263.4296     0.31743E-01 
  42295.6918     0.31757E-01 
  42327.9539     0.31769E-01 
  42360.2161     0.31781E-01 
  42392.4782     0.31792E-01 
  42424.7404     0.31802E-01 
  42457.0026     0.31811E-01 
  42489.2647     0.31819E-01 
  42521.5269     0.31827E-01 
  42553.7890     0.31833E-01 
  42586.0512     0.31839E-01 
  42618.3134     0.31844E-01 
  42650.5755     0.31848E-01 
  42682.8377     0.31852E-01 
  42715.0998     0.31854E-01 
  42747.3620     0.31856E-01 
  42779.6242     0.31857E-01 
  42811.8863     0.31857E-01 
  42844.1485     0.31856E-01 
  42876.4106     0.31854E-01 
  42908.6728     0.31852E-01 
  42940.9350     0.31848E-01 
  42973.1971     0.31844E-01 
  43005.4593     0.31839E-01 
  43037.7214     0.31834E-01 
  43069.9836     0.31827E-01 
  43102.2458     0.31820E-01 
  43134.5079     0.31811E-01 
  43166.7701     0.31802E-01 
  43199.0322     0.31793E-01 
  43231.2944     0.31782E-01 
  43263.5566     0.31771E-01 
  43295.8187     0.31758E-01 
  43328.0809     0.31745E-01 
  43360.3430     0.31732E-01 
  43392.6052     0.31717E-01 
  43424.8674     0.31702E-01 
  43457.1295     0.31685E-01 
  43489.3917     0.31668E-01 
  43521.6538     0.31651E-01 
  43553.9160     0.31632E-01 
  43586.1782     0.31613E-01 
  43618.4403     0.31593E-01 
  43650.7025     0.31572E-01 
  43682.9646     0.31550E-01 
  43715.2268     0.31528E-01 
  43747.4890     0.31505E-01 
  43779.7511     0.31481E-01 
  43812.0133     0.31456E-01 
  43844.2754     0.31431E-01 
  43876.5376     0.31404E-01 
  43908.7998     0.31377E-01 
  43941.0619     0.31350E-01 
  43973.3241     0.31321E-01 
  44005.5862     0.31292E-01 
  44037.8484     0.31262E-01 
  44070.1106     0.31231E-01 
  44102.3727     0.31200E-01 
  44134.6349     0.31168E-01 
  44166.8970     0.31135E-01 
  44199.1592     0.31102E-01 
  44231.4214     0.31067E-01 
  44263.6835     0.31032E-01 
  44295.9457     0.30997E-01 
  44328.2078     0.30960E-01 
  44360.4700     0.30923E-01 
  44392.7322     0.30886E-01 
  44424.9943     0.30847E-01 
  44457.2565     0.30808E-01 
  44489.5186     0.30768E-01 
  44521.7808     0.30728E-01 
  44554.0430     0.30686E-01 
  44586.3051     0.30644E-01 
  44618.5673     0.30602E-01 
  44650.8294     0.30559E-01 
  44683.0916     0.30515E-01 
  44715.3538     0.30470E-01 
  44747.6159     0.30425E-01 
  44779.8781     0.30379E-01 
  44812.1402     0.30333E-01 
  44844.4024     0.30286E-01 
  44876.6646     0.30238E-01 
  44908.9267     0.30190E-01 
  44941.1889     0.30141E-01 
  44973.4510     0.30091E-01 
  45005.7132     0.30041E-01 
  45037.9754     0.29990E-01 
  45070.2375     0.29938E-01 
  45102.4997     0.29886E-01 
  45134.7618     0.29834E-01 
  45167.0240     0.29780E-01 
  45199.2862     0.29727E-01 
  45231.5483     0.29672E-01 
  45263.8105     0.29617E-01 
  45296.0726     0.29562E-01 
  45328.3348     0.29505E-01 
  45360.5970     0.29449E-01 
  45392.8591     0.29391E-01 
  45425.1213     0.29333E-01 
  45457.3834     0.29275E-01 
  45489.6456     0.29216E-01 
  45521.9078     0.29157E-01 
  45554.1699     0.29096E-01 
  45586.4321     0.29036E-01 
  45618.6942     0.28975E-01 
  45650.9564     0.28913E-01 
  45683.2186     0.28851E-01 
  45715.4807     0.28788E-01 
  45747.7429     0.28725E-01 
  45780.0050     0.28661E-01 
  45812.2672     0.28597E-01 
  45844.5294     0.28533E-01 
  45876.7915     0.28467E-01 
  45909.0537     0.28402E-01 
  45941.3158     0.28336E-01 
  45973.5780     0.28269E-01 
  46005.8402     0.28202E-01 
  46038.1023     0.28134E-01 
  46070.3645     0.28066E-01 
  46102.6266     0.27998E-01 
  46134.8888     0.27929E-01 
  46167.1510     0.27859E-01 
  46199.4131     0.27790E-01 
  46231.6753     0.27719E-01 
  46263.9374     0.27649E-01 
  46296.1996     0.27577E-01 
  46328.4618     0.27506E-01 
  46360.7239     0.27434E-01 
  46392.9861     0.27362E-01 
  46425.2482     0.27289E-01 
  46457.5104     0.27216E-01 
  46489.7726     0.27142E-01 
  46522.0347     0.27068E-01 
  46554.2969     0.26994E-01 
  46586.5590     0.26919E-01 
  46618.8212     0.26844E-01 
  46651.0834     0.26768E-01 
  46683.3455     0.26693E-01 
  46715.6077     0.26616E-01 
  46747.8698     0.26540E-01 
  46780.1320     0.26463E-01 
  46812.3942     0.26386E-01 
  46844.6563     0.26308E-01 
  46876.9185     0.26230E-01 
  46909.1806     0.26152E-01 
  46941.4428     0.26073E-01 
  46973.7050     0.25994E-01 
  47005.9671     0.25915E-01 
  47038.2293     0.25835E-01 
  47070.4914     0.25756E-01 
  47102.7536     0.25675E-01 
  47135.0158     0.25595E-01 
  47167.2779     0.25514E-01 
  47199.5401     0.25433E-01 
  47231.8022     0.25352E-01 
  47264.0644     0.25270E-01 
  47296.3266     0.25189E-01 
  47328.5887     0.25106E-01 
  47360.8509     0.25024E-01 
  47393.1130     0.24941E-01 
  47425.3752     0.24858E-01 
  47457.6374     0.24775E-01 
  47489.8995     0.24692E-01 
  47522.1617     0.24608E-01 
  47554.4238     0.24525E-01 
  47586.6860     0.24440E-01 
  47618.9482     0.24356E-01 
  47651.2103     0.24272E-01 
  47683.4725     0.24187E-01 
  47715.7346     0.24102E-01 
  47747.9968     0.24017E-01 
  47780.2590     0.23931E-01 
  47812.5211     0.23846E-01 
  47844.7833     0.23760E-01 
  47877.0454     0.23674E-01 
  47909.3076     0.23588E-01 
  47941.5698     0.23502E-01 
  47973.8319     0.23416E-01 
  48006.0941     0.23329E-01 
  48038.3562     0.23242E-01 
  48070.6184     0.23155E-01 
  48102.8806     0.23068E-01 
  48135.1427     0.22981E-01 
  48167.4049     0.22894E-01 
  48199.6670     0.22806E-01 
  48231.9292     0.22719E-01 
  48264.1914     0.22631E-01 
  48296.4535     0.22543E-01 
  48328.7157     0.22455E-01 
  48360.9778     0.22367E-01 
  48393.2400     0.22279E-01 
  48425.5022     0.22190E-01 
  48457.7643     0.22102E-01 
  48490.0265     0.22013E-01 
  48522.2886     0.21925E-01 
  48554.5508     0.21836E-01 
  48586.8130     0.21747E-01 
  48619.0751     0.21658E-01 
  48651.3373     0.21569E-01 
  48683.5994     0.21480E-01 
  48715.8616     0.21391E-01 
  48748.1238     0.21302E-01 
  48780.3859     0.21213E-01 
  48812.6481     0.21123E-01 
  48844.9102     0.21034E-01 
  48877.1724     0.20945E-01 
  48909.4346     0.20855E-01 
  48941.6967     0.20766E-01 
  48973.9589     0.20676E-01 
  49006.2210     0.20587E-01 
  49038.4832     0.20497E-01 
  49070.7454     0.20408E-01 
  49103.0075     0.20318E-01 
  49135.2697     0.20228E-01 
  49167.5318     0.20139E-01 
  49199.7940     0.20049E-01 
  49232.0562     0.19959E-01 
  49264.3183     0.19870E-01 
  49296.5805     0.19780E-01 
  49328.8426     0.19691E-01 
  49361.1048     0.19601E-01 
  49393.3670     0.19511E-01 
  49425.6291     0.19422E-01 
  49457.8913     0.19332E-01 
  49490.1534     0.19243E-01 
  49522.4156     0.19153E-01 
  49554.6778     0.19064E-01 
  49586.9399     0.18974E-01 
  49619.2021     0.18885E-01 
  49651.4642     0.18795E-01 
  49683.7264     0.18706E-01 
  49715.9886     0.18617E-01 
  49748.2507     0.18528E-01 
  49780.5129     0.18438E-01 
  49812.7750     0.18349E-01 
  49845.0372     0.18260E-01 
  49877.2994     0.18171E-01 
  49909.5615     0.18083E-01 
  49941.8237     0.17994E-01 
  49974.0858     0.17905E-01 
  50006.3480     0.17816E-01 
  50038.6102     0.17728E-01 
  50070.8723     0.17639E-01 
  50103.1345     0.17551E-01 
  50135.3966     0.17462E-01 
  50167.6588     0.17374E-01 
  50199.9210     0.17286E-01 
  50232.1831     0.17198E-01 
  50264.4453     0.17110E-01 
  50296.7074     0.17022E-01 
  50328.9696     0.16935E-01 
  50361.2318     0.16847E-01 
  50393.4939     0.16760E-01 
  50425.7561     0.16672E-01 
  50458.0182     0.16585E-01 
  50490.2804     0.16498E-01 
  50522.5426     0.16411E-01 
  50554.8047     0.16324E-01 
  50587.0669     0.16237E-01 
  50619.3290     0.16151E-01 
  50651.5912     0.16064E-01 
  50683.8534     0.15978E-01 
  50716.1155     0.15892E-01 
  50748.3777     0.15806E-01 
  50780.6398     0.15720E-01 
  50812.9020     0.15634E-01 
  50845.1642     0.15549E-01 
  50877.4263     0.15463E-01 
  50909.6885     0.15378E-01 
  50941.9506     0.15293E-01 
  50974.2128     0.15208E-01 
  51006.4750     0.15123E-01 
  51038.7371     0.15039E-01 
  51070.9993     0.14954E-01 
  51103.2614     0.14870E-01 
  51135.5236     0.14786E-01 
  51167.7858     0.14702E-01 
  51200.0479     0.14618E-01 
  51232.3101     0.14535E-01 
  51264.5722     0.14451E-01 
  51296.8344     0.14368E-01 
  51329.0966     0.14285E-01 
  51361.3587     0.14202E-01 
  51393.6209     0.14120E-01 
  51425.8830     0.14037E-01 
  51458.1452     0.13955E-01 
  51490.4074     0.13873E-01 
  51522.6695     0.13791E-01 
  51554.9317     0.13710E-01 
  51587.1938     0.13628E-01 
  51619.4560     0.13547E-01 
  51651.7182     0.13466E-01 
  51683.9803     0.13385E-01 
  51716.2425     0.13305E-01 
  51748.5046     0.13224E-01 
  51780.7668     0.13144E-01 
  51813.0290     0.13064E-01 
  51845.2911     0.12984E-01 
  51877.5533     0.12905E-01 
  51909.8154     0.12825E-01 
  51942.0776     0.12746E-01 
  51974.3398     0.12667E-01 
  52006.6019     0.12589E-01 
  52038.8641     0.12510E-01 
  52071.1262     0.12432E-01 
  52103.3884     0.12354E-01 
  52135.6506     0.12276E-01 
  52167.9127     0.12199E-01 
  52200.1749     0.12122E-01 
  52232.4370     0.12045E-01 
  52264.6992     0.11968E-01 
  52296.9614     0.11891E-01 
  52329.2235     0.11815E-01 
  52361.4857     0.11739E-01 
  52393.7478     0.11663E-01 
  52426.0100     0.11587E-01 
  52458.2722     0.11512E-01 
  52490.5343     0.11437E-01 
  52522.7965     0.11362E-01 
  52555.0586     0.11287E-01 
  52587.3208     0.11213E-01 
  52619.5830     0.11139E-01 
  52651.8451     0.11065E-01 
  52684.1073     0.10991E-01 
  52716.3694     0.10918E-01 
  52748.6316     0.10844E-01 
  52780.8938     0.10772E-01 
  52813.1559     0.10699E-01 
  52845.4181     0.10626E-01 
  52877.6802     0.10554E-01 
  52909.9424     0.10482E-01 
  52942.2046     0.10411E-01 
  52974.4667     0.10339E-01 
  53006.7289     0.10268E-01 
  53038.9910     0.10197E-01 
  53071.2532     0.10127E-01 
  53103.5154     0.10056E-01 
  53135.7775     0.99864E-02 
  53168.0397     0.99166E-02 
  53200.3018     0.98470E-02 
  53232.5640     0.97777E-02 
  53264.8262     0.97087E-02 
  53297.0883     0.96399E-02 
  53329.3505     0.95714E-02 
  53361.6126     0.95032E-02 
  53393.8748     0.94352E-02 
  53426.1370     0.93675E-02 
  53458.3991     0.93000E-02 
  53490.6613     0.92328E-02 
  53522.9234     0.91659E-02 
  53555.1856     0.90993E-02 
  53587.4478     0.90329E-02 
  53619.7099     0.89668E-02 
  53651.9721     0.89010E-02 
  53684.2342     0.88354E-02 
  53716.4964     0.87701E-02 
  53748.7586     0.87051E-02 
  53781.0207     0.86403E-02 
  53813.2829     0.85758E-02 
  53845.5450     0.85116E-02 
  53877.8072     0.84477E-02 
  53910.0694     0.83840E-02 
  53942.3315     0.83206E-02 
  53974.5937     0.82575E-02 
  54006.8558     0.81946E-02 
  54039.1180     0.81320E-02 
  54071.3802     0.80697E-02 
  54103.6423     0.80077E-02 
  54135.9045     0.79459E-02 
  54168.1666     0.78844E-02 
  54200.4288     0.78232E-02 
  54232.6910     0.77622E-02 
  54264.9531     0.77015E-02 
  54297.2153     0.76411E-02 
  54329.4774     0.75810E-02 
  54361.7396     0.75211E-02 
  54394.0018     0.74616E-02 
  54426.2639     0.74022E-02 
  54458.5261     0.73432E-02 
  54490.7882     0.72844E-02 
  54523.0504     0.72259E-02 
  54555.3126     0.71677E-02 
  54587.5747     0.71098E-02 
  54619.8369     0.70521E-02 
  54652.0990     0.69947E-02 
  54684.3612     0.69376E-02 
  54716.6234     0.68807E-02 
  54748.8855     0.68241E-02 
  54781.1477     0.67678E-02 
  54813.4098     0.67118E-02 
  54845.6720     0.66560E-02 
  54877.9342     0.66005E-02 
  54910.1963     0.65453E-02 
  54942.4585     0.64903E-02 
  54974.7206     0.64356E-02 
  55006.9828     0.63812E-02 
  55039.2450     0.63271E-02 
  55071.5071     0.62732E-02 
  55103.7693     0.62196E-02 
  55136.0314     0.61662E-02 
  55168.2936     0.61132E-02 
  55200.5558     0.60604E-02 
  55232.8179     0.60078E-02 
  55265.0801     0.59556E-02 
  55297.3422     0.59036E-02 
  55329.6044     0.58519E-02 
  55361.8666     0.58004E-02 
  55394.1287     0.57492E-02 
  55426.3909     0.56983E-02 
  55458.6530     0.56476E-02 
  55490.9152     0.55973E-02 
  55523.1774     0.55471E-02 
  55555.4395     0.54973E-02 
  55587.7017     0.54477E-02 
  55619.9638     0.53983E-02 
  55652.2260     0.53493E-02 
  55684.4882     0.53005E-02 
  55716.7503     0.52519E-02 
  55749.0125     0.52036E-02 
  55781.2746     0.51556E-02 
  55813.5368     0.51079E-02 
  55845.7990     0.50604E-02 
  55878.0611     0.50131E-02 
  55910.3233     0.49662E-02 
  55942.5854     0.49194E-02 
  55974.8476     0.48730E-02 
  56007.1098     0.48268E-02 
  56039.3719     0.47808E-02 
  56071.6341     0.47352E-02 
  56103.8962     0.46897E-02 
  56136.1584     0.46446E-02 
  56168.4206     0.45997E-02 
  56200.6827     0.45550E-02 
  56232.9449     0.45106E-02 
  56265.2070     0.44664E-02 
  56297.4692     0.44225E-02 
  56329.7314     0.43789E-02 
  56361.9935     0.43355E-02 
  56394.2557     0.42924E-02 
  56426.5178     0.42495E-02 
  56458.7800     0.42069E-02 
  56491.0422     0.41645E-02 
  56523.3043     0.41223E-02 
  56555.5665     0.40805E-02 
  56587.8286     0.40388E-02 
  56620.0908     0.39974E-02 
  56652.3530     0.39563E-02 
  56684.6151     0.39154E-02 
  56716.8773     0.38747E-02 
  56749.1394     0.38343E-02 
  56781.4016     0.37942E-02 
  56813.6638     0.37543E-02 
  56845.9259     0.37146E-02 
  56878.1881     0.36751E-02 
  56910.4502     0.36360E-02 
  56942.7124     0.35970E-02 
  56974.9746     0.35583E-02 
  57007.2367     0.35198E-02 
  57039.4989     0.34816E-02 
  57071.7610     0.34436E-02 
  57104.0232     0.34059E-02 
  57136.2854     0.33684E-02 
  57168.5475     0.33311E-02 
  57200.8097     0.32941E-02 
  57233.0718     0.32573E-02 
  57265.3340     0.32207E-02 
  57297.5962     0.31844E-02 
  57329.8583     0.31483E-02 
  57362.1205     0.31124E-02 
  57394.3826     0.30768E-02 
  57426.6448     0.30414E-02 
  57458.9070     0.30062E-02 
  57491.1691     0.29713E-02 
  57523.4313     0.29366E-02 
  57555.6934     0.29021E-02 
  57587.9556     0.28679E-02 
  57620.2178     0.28339E-02 
  57652.4799     0.28001E-02 
  57684.7421     0.27665E-02 
  57717.0042     0.27332E-02 
  57749.2664     0.27001E-02 
  57781.5286     0.26672E-02 
  57813.7907     0.26346E-02 
  57846.0529     0.26021E-02 
  57878.3150     0.25699E-02 
  57910.5772     0.25379E-02 
  57942.8394     0.25062E-02 
  57975.1015     0.24746E-02 
  58007.3637     0.24433E-02 
  58039.6258     0.24122E-02 
  58071.8880     0.23813E-02 
  58104.1502     0.23506E-02 
  58136.4123     0.23202E-02 
  58168.6745     0.22900E-02 
  58200.9366     0.22600E-02 
  58233.1988     0.22302E-02 
  58265.4610     0.22006E-02 
  58297.7231     0.21712E-02 
  58329.9853     0.21421E-02 
  58362.2474     0.21132E-02 
  58394.5096     0.20845E-02 
  58426.7718     0.20560E-02 
  58459.0339     0.20277E-02 
  58491.2961     0.19996E-02 
  58523.5582     0.19717E-02 
  58555.8204     0.19441E-02 
  58588.0826     0.19167E-02 
  58620.3447     0.18894E-02 
  58652.6069     0.18624E-02 
  58684.8690     0.18356E-02 
  58717.1312     0.18090E-02 
  58749.3934     0.17826E-02 
  58781.6555     0.17564E-02 
  58813.9177     0.17305E-02 
  58846.1798     0.17047E-02 
  58878.4420     0.16791E-02 
  58910.7042     0.16538E-02 
  58942.9663     0.16286E-02 
  58975.2285     0.16037E-02 
  59007.4906     0.15790E-02 
  59039.7528     0.15544E-02 
  59072.0150     0.15301E-02 
  59104.2771     0.15060E-02 
  59136.5393     0.14821E-02 
  59168.8014     0.14584E-02 
  59201.0636     0.14349E-02 
  59233.3258     0.14116E-02 
  59265.5879     0.13885E-02 
  59297.8501     0.13656E-02 
  59330.1122     0.13429E-02 
  59362.3744     0.13204E-02 
  59394.6366     0.12981E-02 
  59426.8987     0.12760E-02 
  59459.1609     0.12541E-02 
  59491.4230     0.12324E-02 
  59523.6852     0.12109E-02 
  59555.9474     0.11896E-02 
  59588.2095     0.11685E-02 
  59620.4717     0.11476E-02 
  59652.7338     0.11270E-02 
  59684.9960     0.11065E-02 
  59717.2582     0.10862E-02 
  59749.5203     0.10661E-02 
  59781.7825     0.10462E-02 
  59814.0446     0.10265E-02 
  59846.3068     0.10070E-02 
  59878.5690     0.98774E-03 
  59910.8311     0.96865E-03 
  59943.0933     0.94976E-03 
  59975.3554     0.93107E-03 
  60007.6176     0.91258E-03 
  60039.8798     0.89428E-03 
  60072.1419     0.87619E-03 
  60104.4041     0.85830E-03 
  60136.6662     0.84061E-03 
  60168.9284     0.82312E-03 
  60201.1906     0.80583E-03 
  60233.4527     0.78874E-03 
  60265.7149     0.77185E-03 
  60297.9770     0.75517E-03 
  60330.2392     0.73868E-03 
  60362.5014     0.72240E-03 
  60394.7635     0.70631E-03 
  60427.0257     0.69043E-03 
  60459.2878     0.67475E-03 
  60491.5500     0.65928E-03 
  60523.8122     0.64401E-03 
  60556.0743     0.62894E-03 
  60588.3365     0.61408E-03 
  60620.5986     0.59942E-03 
  60652.8608     0.58497E-03 
  60685.1230     0.57072E-03 
  60717.3851     0.55668E-03 
  60749.6473     0.54285E-03 
  60781.9094     0.52922E-03 
  60814.1716     0.51580E-03 
  60846.4338     0.50259E-03 
  60878.6959     0.48959E-03 
  60910.9581     0.47681E-03 
  60943.2202     0.46423E-03 
  60975.4824     0.45186E-03 
  61007.7446     0.43971E-03 
  61040.0067     0.42777E-03 
  61072.2689     0.41605E-03 
  61104.5310     0.40454E-03 
  61136.7932     0.39325E-03 
  61169.0554     0.38217E-03 
  61201.3175     0.37132E-03 
  61233.5797     0.36068E-03 
  61265.8418     0.35027E-03 
  61298.1040     0.34007E-03 
  61330.3662     0.33011E-03 
  61362.6283     0.32036E-03 
  61394.8905     0.31084E-03 
  61427.1526     0.30155E-03 
  61459.4148     0.29249E-03 
  61491.6770     0.28366E-03 
  61523.9391     0.27506E-03 
  61556.2013     0.26669E-03 
  61588.4634     0.25856E-03 
  61620.7256     0.25066E-03 
  61652.9878     0.24300E-03 
  61685.2499     0.23558E-03 
  61717.5121     0.22840E-03 
  61749.7742     0.22147E-03 
  61782.0364     0.21478E-03 
  61814.2986     0.20834E-03 
  61846.5607     0.20214E-03 
  61878.8229     0.19620E-03 
  61911.0850     0.19051E-03 
  61943.3472     0.18508E-03 
  61975.6094     0.17990E-03 
  62007.8715     0.17498E-03 
  62040.1337     0.17032E-03 
  62072.3958     0.16593E-03 
  62104.6580     0.16181E-03 
  62136.9202     0.15795E-03 
  62169.1823     0.15437E-03 
  62201.4445     0.15106E-03 
  62233.7066     0.14803E-03 
  62265.9688     0.14527E-03 
  62298.2310     0.14280E-03 
  62330.4931     0.14062E-03 
  62362.7553     0.13872E-03 
  62395.0174     0.13711E-03 
  62427.2796     0.13580E-03 
  62459.5418     0.13479E-03 
  62491.8039     0.13408E-03 
  62524.0661     0.13367E-03 
  62556.3282     0.13357E-03 
  62588.5904     0.13378E-03 
  62620.8526     0.13430E-03 
  62653.1147     0.13514E-03 
  62685.3769     0.13630E-03 
  62717.6390     0.13779E-03 
  62749.9012     0.13961E-03 
  62782.1634     0.14176E-03 
  62814.4255     0.14425E-03 
  62846.6877     0.14708E-03 
  62878.9498     0.15026E-03 
  62911.2120     0.15379E-03 
  62943.4742     0.15767E-03 
  62975.7363     0.16190E-03 
  63007.9985     0.16651E-03 
  63040.2606     0.17148E-03 
  63072.5228     0.17682E-03 
  63104.7850     0.18254E-03 
  63137.0471     0.18864E-03 
  63169.3093     0.19513E-03 
  63201.5714     0.20202E-03 
  63233.8336     0.20930E-03 
  63266.0958     0.21698E-03 
  63298.3579     0.22508E-03 
  63330.6201     0.23359E-03 
  63362.8822     0.24252E-03 
  63395.1444     0.25187E-03 
  63427.4066     0.26166E-03 
  63459.6687     0.27188E-03 
  63491.9309     0.28255E-03 
  63524.1930     0.29367E-03 
  63556.4552     0.30525E-03 
  63588.7174     0.31728E-03 
  63620.9795     0.32979E-03 
  63653.2417     0.34278E-03 
  63685.5038     0.35625E-03 
  63717.7660     0.37021E-03 
  63750.0282     0.38467E-03 
  63782.2903     0.39963E-03 
  63814.5525     0.41511E-03 
  63846.8146     0.43110E-03 
  63879.0768     0.44762E-03 
  63911.3390     0.46468E-03 
  63943.6011     0.48228E-03 
  63975.8633     0.50044E-03 
  64008.1254     0.51915E-03 
  64040.3876     0.53843E-03 
  64072.6498     0.55829E-03 
  64104.9119     0.57874E-03 
  64137.1741     0.59978E-03 
  64169.4362     0.62142E-03 
  64201.6984     0.64367E-03 
  64233.9606     0.66655E-03 
  64266.2227     0.69006E-03 
  64298.4849     0.71421E-03 
  64330.7470     0.73901E-03 
  64363.0092     0.76447E-03 
  64395.2714     0.79060E-03 
  64427.5335     0.81741E-03 
  64459.7957     0.84492E-03 
  64492.0578     0.87312E-03 
  64524.3200     0.90204E-03 
  64556.5822     0.93169E-03 
  64588.8443     0.96207E-03 
  64621.1065     0.99319E-03 
  64653.3686     0.10251E-02 
  64685.6308     0.10577E-02 
  64717.8930     0.10912E-02 
  64750.1551     0.11254E-02 
  64782.4173     0.11604E-02 
  64814.6794     0.11963E-02 
  64846.9416     0.12330E-02 
  64879.2038     0.12705E-02 
  64911.4659     0.13089E-02 
  64943.7281     0.13482E-02 
  64975.9902     0.13883E-02 
  65008.2524     0.14294E-02 
  65040.5146     0.14713E-02 
  65072.7767     0.15142E-02 
  65105.0389     0.15580E-02 
  65137.3010     0.16028E-02 
  65169.5632     0.16485E-02 
  65201.8254     0.16953E-02 
  65234.0875     0.17430E-02 
  65266.3497     0.17917E-02 
  65298.6118     0.18415E-02 
  65330.8740     0.18923E-02 
  65363.1362     0.19442E-02 
  65395.3983     0.19972E-02 
  65427.6605     0.20513E-02 
  65459.9226     0.21064E-02 
  65492.1848     0.21627E-02 
  65524.4470     0.22202E-02 
  65556.7091     0.22788E-02 
  65588.9713     0.23386E-02 
  65621.2334     0.23996E-02 
  65653.4956     0.24618E-02 
  65685.7578     0.25253E-02 
  65718.0199     0.25900E-02 
  65750.2821     0.26559E-02 
  65782.5442     0.27232E-02 
  65814.8064     0.27918E-02 
  65847.0686     0.28617E-02 
  65879.3307     0.29330E-02 
  65911.5929     0.30056E-02 
  65943.8550     0.30797E-02 
  65976.1172     0.31551E-02 
  66008.3794     0.32320E-02 
  66040.6415     0.33103E-02 
  66072.9037     0.33901E-02 
  66105.1658     0.34715E-02 
  66137.4280     0.35543E-02 
  66169.6902     0.36387E-02 
  66201.9523     0.37246E-02 
  66234.2145     0.38122E-02 
  66266.4766     0.39013E-02 
  66298.7388     0.39921E-02 
  66331.0010     0.40846E-02 
  66363.2631     0.41787E-02 
  66395.5253     0.42745E-02 
  66427.7874     0.43721E-02 
  66460.0496     0.44714E-02 
  66492.3118     0.45725E-02 
  66524.5739     0.46754E-02 
  66556.8361     0.47802E-02 
  66589.0982     0.48868E-02 
  66621.3604     0.49953E-02 
  66653.6226     0.51057E-02 
  66685.8847     0.52180E-02 
  66718.1469     0.53323E-02 
  66750.4090     0.54486E-02 
  66782.6712     0.55669E-02 
  66814.9334     0.56873E-02 
  66847.1955     0.58097E-02 
  66879.4577     0.59343E-02 
  66911.7198     0.60610E-02 
  66943.9820     0.61898E-02 
  66976.2442     0.63208E-02 
  67008.5063     0.64541E-02 
  67040.7685     0.65896E-02 
  67073.0306     0.67274E-02 
  67105.2928     0.68675E-02 
  67137.5550     0.70099E-02 
  67169.8171     0.71547E-02 
  67202.0793     0.73019E-02 
  67234.3414     0.74516E-02 
  67266.6036     0.76037E-02 
  67298.8658     0.77584E-02 
  67331.1279     0.79155E-02 
  67363.3901     0.80752E-02 
  67395.6522     0.82376E-02 
  67427.9144     0.84025E-02 
  67460.1766     0.85702E-02 
  67492.4387     0.87405E-02 
  67524.7009     0.89135E-02 
  67556.9630     0.90894E-02 
  67589.2252     0.92680E-02 
  67621.4874     0.94495E-02 
  67653.7495     0.96338E-02 
  67686.0117     0.98211E-02 
  67718.2738     0.10011E-01 
  67750.5360     0.10204E-01 
  67782.7982     0.10401E-01 
  67815.0603     0.10600E-01 
  67847.3225     0.10802E-01 
  67879.5846     0.11008E-01 
  67911.8468     0.11216E-01 
  67944.1090     0.11428E-01 
  67976.3711     0.11643E-01 
  68008.6333     0.11862E-01 
  68040.8954     0.12083E-01 
  68073.1576     0.12308E-01 
  68105.4198     0.12537E-01 
  68137.6819     0.12769E-01 
  68169.9441     0.13004E-01 
  68202.2062     0.13243E-01 
  68234.4684     0.13485E-01 
  68266.7306     0.13731E-01 
  68298.9927     0.13981E-01 
  68331.2549     0.14234E-01 
  68363.5170     0.14491E-01 
  68395.7792     0.14752E-01 
  68428.0414     0.15016E-01 
  68460.3035     0.15285E-01 
  68492.5657     0.15557E-01 
  68524.8278     0.15833E-01 
  68557.0900     0.16114E-01 
  68589.3522     0.16398E-01 
  68621.6143     0.16686E-01 
  68653.8765     0.16978E-01 
  68686.1386     0.17275E-01 
  68718.4008     0.17575E-01 
  68750.6630     0.17880E-01 
  68782.9251     0.18189E-01 
  68815.1873     0.18503E-01 
  68847.4494     0.18821E-01 
  68879.7116     0.19143E-01 
  68911.9738     0.19469E-01 
  68944.2359     0.19800E-01 
  68976.4981     0.20136E-01 
  69008.7602     0.20476E-01 
  69041.0224     0.20821E-01 
  69073.2846     0.21170E-01 
  69105.5467     0.21525E-01 
  69137.8089     0.21884E-01 
  69170.0710     0.22247E-01 
  69202.3332     0.22616E-01 
  69234.5954     0.22989E-01 
  69266.8575     0.23368E-01 
  69299.1197     0.23751E-01 
  69331.3818     0.24139E-01 
  69363.6440     0.24533E-01 
  69395.9062     0.24931E-01 
  69428.1683     0.25335E-01 
  69460.4305     0.25744E-01 
  69492.6926     0.26158E-01 
  69524.9548     0.26577E-01 
  69557.2170     0.27002E-01 
  69589.4791     0.27432E-01 
  69621.7413     0.27868E-01 
  69654.0034     0.28309E-01 
  69686.2656     0.28755E-01 
  69718.5278     0.29207E-01 
  69750.7899     0.29665E-01 
  69783.0521     0.30128E-01 
  69815.3142     0.30597E-01 
  69847.5764     0.31072E-01 
  69879.8386     0.31553E-01 
  69912.1007     0.32039E-01 
  69944.3629     0.32531E-01 
  69976.6250     0.33030E-01 
  70008.8872     0.33534E-01 
  70041.1494     0.34044E-01 
  70073.4115     0.34560E-01 
  70105.6737     0.35083E-01 
  70137.9358     0.35611E-01 
  70170.1980     0.36146E-01 
  70202.4602     0.36687E-01 
  70234.7223     0.37234E-01 
  70266.9845     0.37788E-01 
  70299.2466     0.38347E-01 
  70331.5088     0.38914E-01 
  70363.7710     0.39487E-01 
  70396.0331     0.40066E-01 
  70428.2953     0.40652E-01 
  70460.5574     0.41244E-01 
  70492.8196     0.41843E-01 
  70525.0818     0.42449E-01 
  70557.3439     0.43061E-01 
  70589.6061     0.43680E-01 
  70621.8682     0.44306E-01 
  70654.1304     0.44939E-01 
  70686.3926     0.45578E-01 
  70718.6547     0.46225E-01 
  70750.9169     0.46878E-01 
  70783.1790     0.47539E-01 
  70815.4412     0.48206E-01 
  70847.7034     0.48881E-01 
  70879.9655     0.49563E-01 
  70912.2277     0.50251E-01 
  70944.4898     0.50947E-01 
  70976.7520     0.51650E-01 
  71009.0142     0.52361E-01 
  71041.2763     0.53079E-01 
  71073.5385     0.53804E-01 
  71105.8006     0.54536E-01 
  71138.0628     0.55276E-01 
  71170.3250     0.56023E-01 
  71202.5871     0.56778E-01 
  71234.8493     0.57540E-01 
  71267.1114     0.58310E-01 
  71299.3736     0.59087E-01 
  71331.6358     0.59872E-01 
  71363.8979     0.60665E-01 
  71396.1601     0.61465E-01 
  71428.4222     0.62273E-01 
  71460.6844     0.63089E-01 
  71492.9466     0.63912E-01 
  71525.2087     0.64743E-01 
  71557.4709     0.65582E-01 
  71589.7330     0.66429E-01 
  71621.9952     0.67284E-01 
  71654.2574     0.68147E-01 
  71686.5195     0.69017E-01 
  71718.7817     0.69896E-01 
  71751.0438     0.70782E-01 
  71783.3060     0.71676E-01 
  71815.5682     0.72579E-01 
  71847.8303     0.73489E-01 
  71880.0925     0.74408E-01 
  71912.3546     0.75334E-01 
  71944.6168     0.76269E-01 
  71976.8790     0.77212E-01 
  72009.1411     0.78163E-01 
  72041.4033     0.79122E-01 
  72073.6654     0.80089E-01 
  72105.9276     0.81065E-01 
  72138.1898     0.82049E-01 
  72170.4519     0.83041E-01 
  72202.7141     0.84041E-01 
  72234.9762     0.85049E-01 
  72267.2384     0.86066E-01 
  72299.5006     0.87091E-01 
  72331.7627     0.88124E-01 
  72364.0249     0.89166E-01 
  72396.2870     0.90216E-01 
  72428.5492     0.91274E-01 
  72460.8114     0.92340E-01 
  72493.0735     0.93415E-01 
  72525.3357     0.94498E-01 
  72557.5978     0.95590E-01 
  72589.8600     0.96690E-01 
