  32262.1600     0.23284E-04 
  32294.4222     0.23548E-04 
  32326.6843     0.23813E-04 
  32358.9465     0.24081E-04 
  32391.2086     0.24350E-04 
  32423.4708     0.24621E-04 
  32455.7330     0.24895E-04 
  32487.9951     0.25170E-04 
  32520.2573     0.25447E-04 
  32552.5194     0.25726E-04 
  32584.7816     0.26007E-04 
  32617.0438     0.26290E-04 
  32649.3059     0.26575E-04 
  32681.5681     0.26862E-04 
  32713.8302     0.27151E-04 
  32746.0924     0.27442E-04 
  32778.3546     0.27735E-04 
  32810.6167     0.28029E-04 
  32842.8789     0.28326E-04 
  32875.1410     0.28625E-04 
  32907.4032     0.28925E-04 
  32939.6654     0.29228E-04 
  32971.9275     0.29532E-04 
  33004.1897     0.29838E-04 
  33036.4518     0.30146E-04 
  33068.7140     0.30456E-04 
  33100.9762     0.30768E-04 
  33133.2383     0.31082E-04 
  33165.5005     0.31398E-04 
  33197.7626     0.31715E-04 
  33230.0248     0.32035E-04 
  33262.2870     0.32356E-04 
  33294.5491     0.32680E-04 
  33326.8113     0.33005E-04 
  33359.0734     0.33332E-04 
  33391.3356     0.33660E-04 
  33423.5978     0.33991E-04 
  33455.8599     0.34323E-04 
  33488.1221     0.34658E-04 
  33520.3842     0.34994E-04 
  33552.6464     0.35332E-04 
  33584.9086     0.35671E-04 
  33617.1707     0.36013E-04 
  33649.4329     0.36356E-04 
  33681.6950     0.36701E-04 
  33713.9572     0.37048E-04 
  33746.2194     0.37397E-04 
  33778.4815     0.37747E-04 
  33810.7437     0.38099E-04 
  33843.0058     0.38453E-04 
  33875.2680     0.38808E-04 
  33907.5302     0.39165E-04 
  33939.7923     0.39524E-04 
  33972.0545     0.39885E-04 
  34004.3166     0.40247E-04 
  34036.5788     0.40611E-04 
  34068.8410     0.40976E-04 
  34101.1031     0.41344E-04 
  34133.3653     0.41712E-04 
  34165.6274     0.42083E-04 
  34197.8896     0.42455E-04 
  34230.1518     0.42828E-04 
  34262.4139     0.43203E-04 
  34294.6761     0.43580E-04 
  34326.9382     0.43958E-04 
  34359.2004     0.44338E-04 
  34391.4626     0.44719E-04 
  34423.7247     0.45102E-04 
  34455.9869     0.45486E-04 
  34488.2490     0.45872E-04 
  34520.5112     0.46259E-04 
  34552.7734     0.46647E-04 
  34585.0355     0.47037E-04 
  34617.2977     0.47429E-04 
  34649.5598     0.47821E-04 
  34681.8220     0.48216E-04 
  34714.0842     0.48611E-04 
  34746.3463     0.49008E-04 
  34778.6085     0.49406E-04 
  34810.8706     0.49805E-04 
  34843.1328     0.50206E-04 
  34875.3950     0.50608E-04 
  34907.6571     0.51011E-04 
  34939.9193     0.51416E-04 
  34972.1814     0.51821E-04 
  35004.4436     0.52228E-04 
  35036.7058     0.52636E-04 
  35068.9679     0.53045E-04 
  35101.2301     0.53455E-04 
  35133.4922     0.53867E-04 
  35165.7544     0.54279E-04 
  35198.0166     0.54693E-04 
  35230.2787     0.55107E-04 
  35262.5409     0.55523E-04 
  35294.8030     0.55940E-04 
  35327.0652     0.56357E-04 
  35359.3274     0.56776E-04 
  35391.5895     0.57195E-04 
  35423.8517     0.57616E-04 
  35456.1138     0.58037E-04 
  35488.3760     0.58459E-04 
  35520.6382     0.58882E-04 
  35552.9003     0.59306E-04 
  35585.1625     0.59731E-04 
  35617.4246     0.60157E-04 
  35649.6868     0.60583E-04 
  35681.9490     0.61010E-04 
  35714.2111     0.61438E-04 
  35746.4733     0.61866E-04 
  35778.7354     0.62295E-04 
  35810.9976     0.62725E-04 
  35843.2598     0.63155E-04 
  35875.5219     0.63586E-04 
  35907.7841     0.64018E-04 
  35940.0462     0.64450E-04 
  35972.3084     0.64883E-04 
  36004.5706     0.65316E-04 
  36036.8327     0.65750E-04 
  36069.0949     0.66184E-04 
  36101.3570     0.66618E-04 
  36133.6192     0.67053E-04 
  36165.8814     0.67489E-04 
  36198.1435     0.67924E-04 
  36230.4057     0.68360E-04 
  36262.6678     0.68797E-04 
  36294.9300     0.69233E-04 
  36327.1922     0.69670E-04 
  36359.4543     0.70107E-04 
  36391.7165     0.70544E-04 
  36423.9786     0.70982E-04 
  36456.2408     0.71420E-04 
  36488.5030     0.71857E-04 
  36520.7651     0.72295E-04 
  36553.0273     0.72733E-04 
  36585.2894     0.73171E-04 
  36617.5516     0.73609E-04 
  36649.8138     0.74047E-04 
  36682.0759     0.74485E-04 
  36714.3381     0.74922E-04 
  36746.6002     0.75360E-04 
  36778.8624     0.75798E-04 
  36811.1246     0.76235E-04 
  36843.3867     0.76672E-04 
  36875.6489     0.77109E-04 
  36907.9110     0.77546E-04 
  36940.1732     0.77983E-04 
  36972.4354     0.78419E-04 
  37004.6975     0.78855E-04 
  37036.9597     0.79291E-04 
  37069.2218     0.79726E-04 
  37101.4840     0.80161E-04 
  37133.7462     0.80595E-04 
  37166.0083     0.81029E-04 
  37198.2705     0.81463E-04 
  37230.5326     0.81896E-04 
  37262.7948     0.82328E-04 
  37295.0570     0.82760E-04 
  37327.3191     0.83191E-04 
  37359.5813     0.83622E-04 
  37391.8434     0.84052E-04 
  37424.1056     0.84481E-04 
  37456.3678     0.84910E-04 
  37488.6299     0.85338E-04 
  37520.8921     0.85765E-04 
  37553.1542     0.86191E-04 
  37585.4164     0.86616E-04 
  37617.6786     0.87041E-04 
  37649.9407     0.87465E-04 
  37682.2029     0.87888E-04 
  37714.4650     0.88310E-04 
  37746.7272     0.88731E-04 
  37778.9894     0.89150E-04 
  37811.2515     0.89569E-04 
  37843.5137     0.89987E-04 
  37875.7758     0.90404E-04 
  37908.0380     0.90820E-04 
  37940.3002     0.91235E-04 
  37972.5623     0.91648E-04 
  38004.8245     0.92060E-04 
  38037.0866     0.92471E-04 
  38069.3488     0.92881E-04 
  38101.6110     0.93290E-04 
  38133.8731     0.93697E-04 
  38166.1353     0.94103E-04 
  38198.3974     0.94507E-04 
  38230.6596     0.94911E-04 
  38262.9218     0.95312E-04 
  38295.1839     0.95713E-04 
  38327.4461     0.96112E-04 
  38359.7082     0.96509E-04 
  38391.9704     0.96905E-04 
  38424.2326     0.97299E-04 
  38456.4947     0.97692E-04 
  38488.7569     0.98083E-04 
  38521.0190     0.98473E-04 
  38553.2812     0.98861E-04 
  38585.5434     0.99247E-04 
  38617.8055     0.99632E-04 
  38650.0677     0.10001E-03 
  38682.3298     0.10040E-03 
  38714.5920     0.10077E-03 
  38746.8542     0.10115E-03 
  38779.1163     0.10153E-03 
  38811.3785     0.10190E-03 
  38843.6406     0.10227E-03 
  38875.9028     0.10264E-03 
  38908.1650     0.10301E-03 
  38940.4271     0.10338E-03 
  38972.6893     0.10374E-03 
  39004.9514     0.10410E-03 
  39037.2136     0.10447E-03 
  39069.4758     0.10482E-03 
  39101.7379     0.10518E-03 
  39134.0001     0.10553E-03 
  39166.2622     0.10589E-03 
  39198.5244     0.10623E-03 
  39230.7866     0.10658E-03 
  39263.0487     0.10693E-03 
  39295.3109     0.10727E-03 
  39327.5730     0.10761E-03 
  39359.8352     0.10795E-03 
  39392.0974     0.10829E-03 
  39424.3595     0.10862E-03 
  39456.6217     0.10895E-03 
  39488.8838     0.10928E-03 
  39521.1460     0.10961E-03 
  39553.4082     0.10993E-03 
  39585.6703     0.11026E-03 
  39617.9325     0.11058E-03 
  39650.1946     0.11089E-03 
  39682.4568     0.11121E-03 
  39714.7190     0.11152E-03 
  39746.9811     0.11183E-03 
  39779.2433     0.11214E-03 
  39811.5054     0.11244E-03 
  39843.7676     0.11274E-03 
  39876.0298     0.11304E-03 
  39908.2919     0.11334E-03 
  39940.5541     0.11364E-03 
  39972.8162     0.11393E-03 
  40005.0784     0.11422E-03 
  40037.3406     0.11450E-03 
  40069.6027     0.11479E-03 
  40101.8649     0.11507E-03 
  40134.1270     0.11534E-03 
  40166.3892     0.11562E-03 
  40198.6514     0.11589E-03 
  40230.9135     0.11616E-03 
  40263.1757     0.11643E-03 
  40295.4378     0.11669E-03 
  40327.7000     0.11696E-03 
  40359.9622     0.11721E-03 
  40392.2243     0.11747E-03 
  40424.4865     0.11772E-03 
  40456.7486     0.11797E-03 
  40489.0108     0.11822E-03 
  40521.2730     0.11846E-03 
  40553.5351     0.11870E-03 
  40585.7973     0.11894E-03 
  40618.0594     0.11918E-03 
  40650.3216     0.11941E-03 
  40682.5838     0.11964E-03 
  40714.8459     0.11986E-03 
  40747.1081     0.12009E-03 
  40779.3702     0.12031E-03 
  40811.6324     0.12052E-03 
  40843.8946     0.12074E-03 
  40876.1567     0.12095E-03 
  40908.4189     0.12116E-03 
  40940.6810     0.12136E-03 
  40972.9432     0.12156E-03 
  41005.2054     0.12176E-03 
  41037.4675     0.12196E-03 
  41069.7297     0.12215E-03 
  41101.9918     0.12234E-03 
  41134.2540     0.12252E-03 
  41166.5162     0.12271E-03 
  41198.7783     0.12288E-03 
  41231.0405     0.12306E-03 
  41263.3026     0.12323E-03 
  41295.5648     0.12340E-03 
  41327.8270     0.12357E-03 
  41360.0891     0.12373E-03 
  41392.3513     0.12389E-03 
  41424.6134     0.12405E-03 
  41456.8756     0.12420E-03 
  41489.1378     0.12435E-03 
  41521.3999     0.12450E-03 
  41553.6621     0.12465E-03 
  41585.9242     0.12479E-03 
  41618.1864     0.12492E-03 
  41650.4486     0.12506E-03 
  41682.7107     0.12519E-03 
  41714.9729     0.12532E-03 
  41747.2350     0.12544E-03 
  41779.4972     0.12556E-03 
  41811.7594     0.12568E-03 
  41844.0215     0.12579E-03 
  41876.2837     0.12590E-03 
  41908.5458     0.12601E-03 
  41940.8080     0.12611E-03 
  41973.0702     0.12622E-03 
  42005.3323     0.12631E-03 
  42037.5945     0.12641E-03 
  42069.8566     0.12650E-03 
  42102.1188     0.12659E-03 
  42134.3810     0.12667E-03 
  42166.6431     0.12675E-03 
  42198.9053     0.12683E-03 
  42231.1674     0.12690E-03 
  42263.4296     0.12697E-03 
  42295.6918     0.12704E-03 
  42327.9539     0.12711E-03 
  42360.2161     0.12717E-03 
  42392.4782     0.12722E-03 
  42424.7404     0.12728E-03 
  42457.0026     0.12733E-03 
  42489.2647     0.12738E-03 
  42521.5269     0.12742E-03 
  42553.7890     0.12746E-03 
  42586.0512     0.12750E-03 
  42618.3134     0.12753E-03 
  42650.5755     0.12756E-03 
  42682.8377     0.12759E-03 
  42715.0998     0.12762E-03 
  42747.3620     0.12764E-03 
  42779.6242     0.12766E-03 
  42811.8863     0.12767E-03 
  42844.1485     0.12768E-03 
  42876.4106     0.12769E-03 
  42908.6728     0.12769E-03 
  42940.9350     0.12769E-03 
  42973.1971     0.12769E-03 
  43005.4593     0.12769E-03 
  43037.7214     0.12768E-03 
  43069.9836     0.12767E-03 
  43102.2458     0.12765E-03 
  43134.5079     0.12763E-03 
  43166.7701     0.12761E-03 
  43199.0322     0.12759E-03 
  43231.2944     0.12756E-03 
  43263.5566     0.12753E-03 
  43295.8187     0.12749E-03 
  43328.0809     0.12745E-03 
  43360.3430     0.12741E-03 
  43392.6052     0.12737E-03 
  43424.8674     0.12732E-03 
  43457.1295     0.12727E-03 
  43489.3917     0.12722E-03 
  43521.6538     0.12716E-03 
  43553.9160     0.12710E-03 
  43586.1782     0.12704E-03 
  43618.4403     0.12697E-03 
  43650.7025     0.12690E-03 
  43682.9646     0.12683E-03 
  43715.2268     0.12675E-03 
  43747.4890     0.12668E-03 
  43779.7511     0.12659E-03 
  43812.0133     0.12651E-03 
  43844.2754     0.12642E-03 
  43876.5376     0.12633E-03 
  43908.7998     0.12624E-03 
  43941.0619     0.12614E-03 
  43973.3241     0.12604E-03 
  44005.5862     0.12594E-03 
  44037.8484     0.12583E-03 
  44070.1106     0.12572E-03 
  44102.3727     0.12561E-03 
  44134.6349     0.12550E-03 
  44166.8970     0.12538E-03 
  44199.1592     0.12526E-03 
  44231.4214     0.12513E-03 
  44263.6835     0.12501E-03 
  44295.9457     0.12488E-03 
  44328.2078     0.12475E-03 
  44360.4700     0.12461E-03 
  44392.7322     0.12447E-03 
  44424.9943     0.12433E-03 
  44457.2565     0.12419E-03 
  44489.5186     0.12404E-03 
  44521.7808     0.12389E-03 
  44554.0430     0.12374E-03 
  44586.3051     0.12359E-03 
  44618.5673     0.12343E-03 
  44650.8294     0.12327E-03 
  44683.0916     0.12311E-03 
  44715.3538     0.12294E-03 
  44747.6159     0.12277E-03 
  44779.8781     0.12260E-03 
  44812.1402     0.12243E-03 
  44844.4024     0.12225E-03 
  44876.6646     0.12207E-03 
  44908.9267     0.12189E-03 
  44941.1889     0.12171E-03 
  44973.4510     0.12152E-03 
  45005.7132     0.12133E-03 
  45037.9754     0.12114E-03 
  45070.2375     0.12095E-03 
  45102.4997     0.12075E-03 
  45134.7618     0.12055E-03 
  45167.0240     0.12035E-03 
  45199.2862     0.12015E-03 
  45231.5483     0.11994E-03 
  45263.8105     0.11973E-03 
  45296.0726     0.11952E-03 
  45328.3348     0.11931E-03 
  45360.5970     0.11909E-03 
  45392.8591     0.11887E-03 
  45425.1213     0.11865E-03 
  45457.3834     0.11843E-03 
  45489.6456     0.11821E-03 
  45521.9078     0.11798E-03 
  45554.1699     0.11775E-03 
  45586.4321     0.11752E-03 
  45618.6942     0.11728E-03 
  45650.9564     0.11705E-03 
  45683.2186     0.11681E-03 
  45715.4807     0.11657E-03 
  45747.7429     0.11633E-03 
  45780.0050     0.11608E-03 
  45812.2672     0.11583E-03 
  45844.5294     0.11558E-03 
  45876.7915     0.11533E-03 
  45909.0537     0.11508E-03 
  45941.3158     0.11483E-03 
  45973.5780     0.11457E-03 
  46005.8402     0.11431E-03 
  46038.1023     0.11405E-03 
  46070.3645     0.11379E-03 
  46102.6266     0.11352E-03 
  46134.8888     0.11325E-03 
  46167.1510     0.11299E-03 
  46199.4131     0.11272E-03 
  46231.6753     0.11244E-03 
  46263.9374     0.11217E-03 
  46296.1996     0.11189E-03 
  46328.4618     0.11162E-03 
  46360.7239     0.11134E-03 
  46392.9861     0.11105E-03 
  46425.2482     0.11077E-03 
  46457.5104     0.11049E-03 
  46489.7726     0.11020E-03 
  46522.0347     0.10991E-03 
  46554.2969     0.10962E-03 
  46586.5590     0.10933E-03 
  46618.8212     0.10904E-03 
  46651.0834     0.10874E-03 
  46683.3455     0.10845E-03 
  46715.6077     0.10815E-03 
  46747.8698     0.10785E-03 
  46780.1320     0.10755E-03 
  46812.3942     0.10725E-03 
  46844.6563     0.10695E-03 
  46876.9185     0.10664E-03 
  46909.1806     0.10633E-03 
  46941.4428     0.10603E-03 
  46973.7050     0.10572E-03 
  47005.9671     0.10541E-03 
  47038.2293     0.10509E-03 
  47070.4914     0.10478E-03 
  47102.7536     0.10447E-03 
  47135.0158     0.10415E-03 
  47167.2779     0.10383E-03 
  47199.5401     0.10352E-03 
  47231.8022     0.10320E-03 
  47264.0644     0.10288E-03 
  47296.3266     0.10255E-03 
  47328.5887     0.10223E-03 
  47360.8509     0.10191E-03 
  47393.1130     0.10158E-03 
  47425.3752     0.10125E-03 
  47457.6374     0.10093E-03 
  47489.8995     0.10060E-03 
  47522.1617     0.10027E-03 
  47554.4238     0.99937E-04 
  47586.6860     0.99606E-04 
  47618.9482     0.99273E-04 
  47651.2103     0.98939E-04 
  47683.4725     0.98604E-04 
  47715.7346     0.98269E-04 
  47747.9968     0.97932E-04 
  47780.2590     0.97595E-04 
  47812.5211     0.97256E-04 
  47844.7833     0.96917E-04 
  47877.0454     0.96577E-04 
  47909.3076     0.96236E-04 
  47941.5698     0.95895E-04 
  47973.8319     0.95552E-04 
  48006.0941     0.95209E-04 
  48038.3562     0.94865E-04 
  48070.6184     0.94521E-04 
  48102.8806     0.94175E-04 
  48135.1427     0.93829E-04 
  48167.4049     0.93483E-04 
  48199.6670     0.93135E-04 
  48231.9292     0.92787E-04 
  48264.1914     0.92439E-04 
  48296.4535     0.92089E-04 
  48328.7157     0.91740E-04 
  48360.9778     0.91389E-04 
  48393.2400     0.91038E-04 
  48425.5022     0.90687E-04 
  48457.7643     0.90335E-04 
  48490.0265     0.89983E-04 
  48522.2886     0.89630E-04 
  48554.5508     0.89276E-04 
  48586.8130     0.88923E-04 
  48619.0751     0.88568E-04 
  48651.3373     0.88214E-04 
  48683.5994     0.87859E-04 
  48715.8616     0.87504E-04 
  48748.1238     0.87148E-04 
  48780.3859     0.86792E-04 
  48812.6481     0.86435E-04 
  48844.9102     0.86079E-04 
  48877.1724     0.85722E-04 
  48909.4346     0.85365E-04 
  48941.6967     0.85007E-04 
  48973.9589     0.84650E-04 
  49006.2210     0.84292E-04 
  49038.4832     0.83934E-04 
  49070.7454     0.83575E-04 
  49103.0075     0.83217E-04 
  49135.2697     0.82858E-04 
  49167.5318     0.82500E-04 
  49199.7940     0.82141E-04 
  49232.0562     0.81782E-04 
  49264.3183     0.81423E-04 
  49296.5805     0.81064E-04 
  49328.8426     0.80705E-04 
  49361.1048     0.80345E-04 
  49393.3670     0.79986E-04 
  49425.6291     0.79627E-04 
  49457.8913     0.79268E-04 
  49490.1534     0.78908E-04 
  49522.4156     0.78549E-04 
  49554.6778     0.78190E-04 
  49586.9399     0.77831E-04 
  49619.2021     0.77472E-04 
  49651.4642     0.77113E-04 
  49683.7264     0.76754E-04 
  49715.9886     0.76396E-04 
  49748.2507     0.76037E-04 
  49780.5129     0.75679E-04 
  49812.7750     0.75320E-04 
  49845.0372     0.74962E-04 
  49877.2994     0.74605E-04 
  49909.5615     0.74247E-04 
  49941.8237     0.73889E-04 
  49974.0858     0.73532E-04 
  50006.3480     0.73175E-04 
  50038.6102     0.72819E-04 
  50070.8723     0.72462E-04 
  50103.1345     0.72106E-04 
  50135.3966     0.71750E-04 
  50167.6588     0.71395E-04 
  50199.9210     0.71039E-04 
  50232.1831     0.70684E-04 
  50264.4453     0.70330E-04 
  50296.7074     0.69976E-04 
  50328.9696     0.69622E-04 
  50361.2318     0.69268E-04 
  50393.4939     0.68915E-04 
  50425.7561     0.68563E-04 
  50458.0182     0.68211E-04 
  50490.2804     0.67859E-04 
  50522.5426     0.67508E-04 
  50554.8047     0.67157E-04 
  50587.0669     0.66806E-04 
  50619.3290     0.66456E-04 
  50651.5912     0.66107E-04 
  50683.8534     0.65758E-04 
  50716.1155     0.65409E-04 
  50748.3777     0.65062E-04 
  50780.6398     0.64714E-04 
  50812.9020     0.64367E-04 
  50845.1642     0.64021E-04 
  50877.4263     0.63675E-04 
  50909.6885     0.63330E-04 
  50941.9506     0.62986E-04 
  50974.2128     0.62642E-04 
  51006.4750     0.62298E-04 
  51038.7371     0.61955E-04 
  51070.9993     0.61613E-04 
  51103.2614     0.61272E-04 
  51135.5236     0.60931E-04 
  51167.7858     0.60591E-04 
  51200.0479     0.60251E-04 
  51232.3101     0.59912E-04 
  51264.5722     0.59574E-04 
  51296.8344     0.59237E-04 
  51329.0966     0.58900E-04 
  51361.3587     0.58564E-04 
  51393.6209     0.58228E-04 
  51425.8830     0.57894E-04 
  51458.1452     0.57560E-04 
  51490.4074     0.57226E-04 
  51522.6695     0.56894E-04 
  51554.9317     0.56562E-04 
  51587.1938     0.56231E-04 
  51619.4560     0.55901E-04 
  51651.7182     0.55572E-04 
  51683.9803     0.55243E-04 
  51716.2425     0.54915E-04 
  51748.5046     0.54588E-04 
  51780.7668     0.54262E-04 
  51813.0290     0.53937E-04 
  51845.2911     0.53612E-04 
  51877.5533     0.53288E-04 
  51909.8154     0.52965E-04 
  51942.0776     0.52643E-04 
  51974.3398     0.52322E-04 
  52006.6019     0.52002E-04 
  52038.8641     0.51682E-04 
  52071.1262     0.51363E-04 
  52103.3884     0.51046E-04 
  52135.6506     0.50729E-04 
  52167.9127     0.50413E-04 
  52200.1749     0.50098E-04 
  52232.4370     0.49784E-04 
  52264.6992     0.49470E-04 
  52296.9614     0.49158E-04 
  52329.2235     0.48846E-04 
  52361.4857     0.48536E-04 
  52393.7478     0.48226E-04 
  52426.0100     0.47918E-04 
  52458.2722     0.47610E-04 
  52490.5343     0.47303E-04 
  52522.7965     0.46997E-04 
  52555.0586     0.46692E-04 
  52587.3208     0.46388E-04 
  52619.5830     0.46085E-04 
  52651.8451     0.45783E-04 
  52684.1073     0.45482E-04 
  52716.3694     0.45182E-04 
  52748.6316     0.44883E-04 
  52780.8938     0.44585E-04 
  52813.1559     0.44288E-04 
  52845.4181     0.43992E-04 
  52877.6802     0.43697E-04 
  52909.9424     0.43403E-04 
  52942.2046     0.43109E-04 
  52974.4667     0.42817E-04 
  53006.7289     0.42526E-04 
  53038.9910     0.42236E-04 
  53071.2532     0.41947E-04 
  53103.5154     0.41659E-04 
  53135.7775     0.41372E-04 
  53168.0397     0.41086E-04 
  53200.3018     0.40801E-04 
  53232.5640     0.40517E-04 
  53264.8262     0.40234E-04 
  53297.0883     0.39952E-04 
  53329.3505     0.39672E-04 
  53361.6126     0.39392E-04 
  53393.8748     0.39113E-04 
  53426.1370     0.38836E-04 
  53458.3991     0.38559E-04 
  53490.6613     0.38283E-04 
  53522.9234     0.38009E-04 
  53555.1856     0.37735E-04 
  53587.4478     0.37463E-04 
  53619.7099     0.37192E-04 
  53651.9721     0.36922E-04 
  53684.2342     0.36652E-04 
  53716.4964     0.36384E-04 
  53748.7586     0.36117E-04 
  53781.0207     0.35851E-04 
  53813.2829     0.35586E-04 
  53845.5450     0.35323E-04 
  53877.8072     0.35060E-04 
  53910.0694     0.34798E-04 
  53942.3315     0.34538E-04 
  53974.5937     0.34278E-04 
  54006.8558     0.34020E-04 
  54039.1180     0.33763E-04 
  54071.3802     0.33506E-04 
  54103.6423     0.33251E-04 
  54135.9045     0.32997E-04 
  54168.1666     0.32744E-04 
  54200.4288     0.32492E-04 
  54232.6910     0.32242E-04 
  54264.9531     0.31992E-04 
  54297.2153     0.31743E-04 
  54329.4774     0.31496E-04 
  54361.7396     0.31249E-04 
  54394.0018     0.31004E-04 
  54426.2639     0.30760E-04 
  54458.5261     0.30517E-04 
  54490.7882     0.30275E-04 
  54523.0504     0.30034E-04 
  54555.3126     0.29794E-04 
  54587.5747     0.29555E-04 
  54619.8369     0.29317E-04 
  54652.0990     0.29081E-04 
  54684.3612     0.28845E-04 
  54716.6234     0.28611E-04 
  54748.8855     0.28378E-04 
  54781.1477     0.28145E-04 
  54813.4098     0.27914E-04 
  54845.6720     0.27684E-04 
  54877.9342     0.27455E-04 
  54910.1963     0.27228E-04 
  54942.4585     0.27001E-04 
  54974.7206     0.26775E-04 
  55006.9828     0.26551E-04 
  55039.2450     0.26327E-04 
  55071.5071     0.26105E-04 
  55103.7693     0.25884E-04 
  55136.0314     0.25663E-04 
  55168.2936     0.25444E-04 
  55200.5558     0.25226E-04 
  55232.8179     0.25009E-04 
  55265.0801     0.24793E-04 
  55297.3422     0.24579E-04 
  55329.6044     0.24365E-04 
  55361.8666     0.24152E-04 
  55394.1287     0.23941E-04 
  55426.3909     0.23730E-04 
  55458.6530     0.23521E-04 
  55490.9152     0.23312E-04 
  55523.1774     0.23105E-04 
  55555.4395     0.22899E-04 
  55587.7017     0.22694E-04 
  55619.9638     0.22490E-04 
  55652.2260     0.22287E-04 
  55684.4882     0.22085E-04 
  55716.7503     0.21884E-04 
  55749.0125     0.21684E-04 
  55781.2746     0.21486E-04 
  55813.5368     0.21288E-04 
  55845.7990     0.21091E-04 
  55878.0611     0.20896E-04 
  55910.3233     0.20701E-04 
  55942.5854     0.20508E-04 
  55974.8476     0.20316E-04 
  56007.1098     0.20124E-04 
  56039.3719     0.19934E-04 
  56071.6341     0.19745E-04 
  56103.8962     0.19557E-04 
  56136.1584     0.19370E-04 
  56168.4206     0.19183E-04 
  56200.6827     0.18998E-04 
  56232.9449     0.18814E-04 
  56265.2070     0.18631E-04 
  56297.4692     0.18449E-04 
  56329.7314     0.18268E-04 
  56361.9935     0.18089E-04 
  56394.2557     0.17910E-04 
  56426.5178     0.17732E-04 
  56458.7800     0.17555E-04 
  56491.0422     0.17379E-04 
  56523.3043     0.17204E-04 
  56555.5665     0.17031E-04 
  56587.8286     0.16858E-04 
  56620.0908     0.16686E-04 
  56652.3530     0.16515E-04 
  56684.6151     0.16346E-04 
  56716.8773     0.16177E-04 
  56749.1394     0.16009E-04 
  56781.4016     0.15842E-04 
  56813.6638     0.15677E-04 
  56845.9259     0.15512E-04 
  56878.1881     0.15348E-04 
  56910.4502     0.15185E-04 
  56942.7124     0.15024E-04 
  56974.9746     0.14863E-04 
  57007.2367     0.14703E-04 
  57039.4989     0.14544E-04 
  57071.7610     0.14386E-04 
  57104.0232     0.14229E-04 
  57136.2854     0.14074E-04 
  57168.5475     0.13919E-04 
  57200.8097     0.13765E-04 
  57233.0718     0.13612E-04 
  57265.3340     0.13460E-04 
  57297.5962     0.13309E-04 
  57329.8583     0.13159E-04 
  57362.1205     0.13009E-04 
  57394.3826     0.12861E-04 
  57426.6448     0.12714E-04 
  57458.9070     0.12568E-04 
  57491.1691     0.12422E-04 
  57523.4313     0.12278E-04 
  57555.6934     0.12135E-04 
  57587.9556     0.11992E-04 
  57620.2178     0.11850E-04 
  57652.4799     0.11710E-04 
  57684.7421     0.11570E-04 
  57717.0042     0.11431E-04 
  57749.2664     0.11293E-04 
  57781.5286     0.11157E-04 
  57813.7907     0.11021E-04 
  57846.0529     0.10885E-04 
  57878.3150     0.10751E-04 
  57910.5772     0.10618E-04 
  57942.8394     0.10486E-04 
  57975.1015     0.10354E-04 
  58007.3637     0.10224E-04 
  58039.6258     0.10094E-04 
  58071.8880     0.99656E-05 
  58104.1502     0.98378E-05 
  58136.4123     0.97109E-05 
  58168.6745     0.95850E-05 
  58200.9366     0.94599E-05 
  58233.1988     0.93357E-05 
  58265.4610     0.92124E-05 
  58297.7231     0.90900E-05 
  58329.9853     0.89685E-05 
  58362.2474     0.88478E-05 
  58394.5096     0.87281E-05 
  58426.7718     0.86092E-05 
  58459.0339     0.84912E-05 
  58491.2961     0.83741E-05 
  58523.5582     0.82579E-05 
  58555.8204     0.81425E-05 
  58588.0826     0.80281E-05 
  58620.3447     0.79144E-05 
  58652.6069     0.78017E-05 
  58684.8690     0.76898E-05 
  58717.1312     0.75788E-05 
  58749.3934     0.74687E-05 
  58781.6555     0.73594E-05 
  58813.9177     0.72510E-05 
  58846.1798     0.71434E-05 
  58878.4420     0.70367E-05 
  58910.7042     0.69309E-05 
  58942.9663     0.68259E-05 
  58975.2285     0.67217E-05 
  59007.4906     0.66184E-05 
  59039.7528     0.65160E-05 
  59072.0150     0.64144E-05 
  59104.2771     0.63137E-05 
  59136.5393     0.62138E-05 
  59168.8014     0.61147E-05 
  59201.0636     0.60165E-05 
  59233.3258     0.59191E-05 
  59265.5879     0.58226E-05 
  59297.8501     0.57269E-05 
  59330.1122     0.56321E-05 
  59362.3744     0.55381E-05 
  59394.6366     0.54449E-05 
  59426.8987     0.53526E-05 
  59459.1609     0.52611E-05 
  59491.4230     0.51705E-05 
  59523.6852     0.50807E-05 
  59555.9474     0.49917E-05 
  59588.2095     0.49035E-05 
  59620.4717     0.48162E-05 
  59652.7338     0.47297E-05 
  59684.9960     0.46441E-05 
  59717.2582     0.45593E-05 
  59749.5203     0.44753E-05 
  59781.7825     0.43922E-05 
  59814.0446     0.43098E-05 
  59846.3068     0.42284E-05 
  59878.5690     0.41477E-05 
  59910.8311     0.40679E-05 
  59943.0933     0.39889E-05 
  59975.3554     0.39108E-05 
  60007.6176     0.38335E-05 
  60039.8798     0.37570E-05 
  60072.1419     0.36814E-05 
  60104.4041     0.36066E-05 
  60136.6662     0.35326E-05 
  60168.9284     0.34595E-05 
  60201.1906     0.33872E-05 
  60233.4527     0.33158E-05 
  60265.7149     0.32451E-05 
  60297.9770     0.31754E-05 
  60330.2392     0.31065E-05 
  60362.5014     0.30384E-05 
  60394.7635     0.29712E-05 
  60427.0257     0.29048E-05 
  60459.2878     0.28393E-05 
  60491.5500     0.27746E-05 
  60523.8122     0.27108E-05 
  60556.0743     0.26478E-05 
  60588.3365     0.25857E-05 
  60620.5986     0.25245E-05 
  60652.8608     0.24641E-05 
  60685.1230     0.24046E-05 
  60717.3851     0.23459E-05 
  60749.6473     0.22881E-05 
  60781.9094     0.22312E-05 
  60814.1716     0.21752E-05 
  60846.4338     0.21201E-05 
  60878.6959     0.20658E-05 
  60910.9581     0.20124E-05 
  60943.2202     0.19600E-05 
  60975.4824     0.19084E-05 
  61007.7446     0.18577E-05 
  61040.0067     0.18079E-05 
  61072.2689     0.17590E-05 
  61104.5310     0.17111E-05 
  61136.7932     0.16640E-05 
  61169.0554     0.16179E-05 
  61201.3175     0.15727E-05 
  61233.5797     0.15284E-05 
  61265.8418     0.14850E-05 
  61298.1040     0.14426E-05 
  61330.3662     0.14012E-05 
  61362.6283     0.13607E-05 
  61394.8905     0.13211E-05 
  61427.1526     0.12825E-05 
  61459.4148     0.12449E-05 
  61491.6770     0.12082E-05 
  61523.9391     0.11726E-05 
  61556.2013     0.11379E-05 
  61588.4634     0.11042E-05 
  61620.7256     0.10715E-05 
  61652.9878     0.10399E-05 
  61685.2499     0.10092E-05 
  61717.5121     0.97959E-06 
  61749.7742     0.95099E-06 
  61782.0364     0.92344E-06 
  61814.2986     0.89693E-06 
  61846.5607     0.87148E-06 
  61878.8229     0.84710E-06 
  61911.0850     0.82379E-06 
  61943.3472     0.80157E-06 
  61975.6094     0.78044E-06 
  62007.8715     0.76041E-06 
  62040.1337     0.74150E-06 
  62072.3958     0.72372E-06 
  62104.6580     0.70706E-06 
  62136.9202     0.69155E-06 
  62169.1823     0.67720E-06 
  62201.4445     0.66402E-06 
  62233.7066     0.65201E-06 
  62265.9688     0.64119E-06 
  62298.2310     0.63158E-06 
  62330.4931     0.62318E-06 
  62362.7553     0.61601E-06 
  62395.0174     0.61008E-06 
  62427.2796     0.60540E-06 
  62459.5418     0.60199E-06 
  62491.8039     0.59986E-06 
  62524.0661     0.59902E-06 
  62556.3282     0.59950E-06 
  62588.5904     0.60130E-06 
  62620.8526     0.60443E-06 
  62653.1147     0.60892E-06 
  62685.3769     0.61479E-06 
  62717.6390     0.62203E-06 
  62749.9012     0.63068E-06 
  62782.1634     0.64075E-06 
  62814.4255     0.65226E-06 
  62846.6877     0.66522E-06 
  62878.9498     0.67965E-06 
  62911.2120     0.69557E-06 
  62943.4742     0.71300E-06 
  62975.7363     0.73195E-06 
  63007.9985     0.75245E-06 
  63040.2606     0.77452E-06 
  63072.5228     0.79818E-06 
  63104.7850     0.82344E-06 
  63137.0471     0.85033E-06 
  63169.3093     0.87886E-06 
  63201.5714     0.90907E-06 
  63233.8336     0.94097E-06 
  63266.0958     0.97459E-06 
  63298.3579     0.10099E-05 
  63330.6201     0.10471E-05 
  63362.8822     0.10860E-05 
  63395.1444     0.11267E-05 
  63427.4066     0.11692E-05 
  63459.6687     0.12136E-05 
  63491.9309     0.12599E-05 
  63524.1930     0.13081E-05 
  63556.4552     0.13582E-05 
  63588.7174     0.14104E-05 
  63620.9795     0.14645E-05 
  63653.2417     0.15206E-05 
  63685.5038     0.15787E-05 
  63717.7660     0.16390E-05 
  63750.0282     0.17014E-05 
  63782.2903     0.17658E-05 
  63814.5525     0.18325E-05 
  63846.8146     0.19014E-05 
  63879.0768     0.19725E-05 
  63911.3390     0.20459E-05 
  63943.6011     0.21215E-05 
  63975.8633     0.21995E-05 
  64008.1254     0.22799E-05 
  64040.3876     0.23626E-05 
  64072.6498     0.24478E-05 
  64104.9119     0.25355E-05 
  64137.1741     0.26257E-05 
  64169.4362     0.27184E-05 
  64201.6984     0.28137E-05 
  64233.9606     0.29117E-05 
  64266.2227     0.30123E-05 
  64298.4849     0.31156E-05 
  64330.7470     0.32216E-05 
  64363.0092     0.33304E-05 
  64395.2714     0.34420E-05 
  64427.5335     0.35565E-05 
  64459.7957     0.36740E-05 
  64492.0578     0.37943E-05 
  64524.3200     0.39177E-05 
  64556.5822     0.40441E-05 
  64588.8443     0.41736E-05 
  64621.1065     0.43062E-05 
  64653.3686     0.44420E-05 
  64685.6308     0.45810E-05 
  64717.8930     0.47233E-05 
  64750.1551     0.48689E-05 
  64782.4173     0.50179E-05 
  64814.6794     0.51704E-05 
  64846.9416     0.53263E-05 
  64879.2038     0.54857E-05 
  64911.4659     0.56487E-05 
  64943.7281     0.58154E-05 
  64975.9902     0.59857E-05 
  65008.2524     0.61598E-05 
  65040.5146     0.63377E-05 
  65072.7767     0.65195E-05 
  65105.0389     0.67051E-05 
  65137.3010     0.68948E-05 
  65169.5632     0.70885E-05 
  65201.8254     0.72863E-05 
  65234.0875     0.74882E-05 
  65266.3497     0.76944E-05 
  65298.6118     0.79048E-05 
  65330.8740     0.81196E-05 
  65363.1362     0.83388E-05 
  65395.3983     0.85625E-05 
  65427.6605     0.87907E-05 
  65459.9226     0.90235E-05 
  65492.1848     0.92610E-05 
  65524.4470     0.95033E-05 
  65556.7091     0.97503E-05 
  65588.9713     0.10002E-04 
  65621.2334     0.10259E-04 
  65653.4956     0.10521E-04 
  65685.7578     0.10788E-04 
  65718.0199     0.11060E-04 
  65750.2821     0.11338E-04 
  65782.5442     0.11621E-04 
  65814.8064     0.11909E-04 
  65847.0686     0.12203E-04 
  65879.3307     0.12502E-04 
  65911.5929     0.12807E-04 
  65943.8550     0.13118E-04 
  65976.1172     0.13434E-04 
  66008.3794     0.13756E-04 
  66040.6415     0.14085E-04 
  66072.9037     0.14419E-04 
  66105.1658     0.14760E-04 
  66137.4280     0.15107E-04 
  66169.6902     0.15460E-04 
  66201.9523     0.15819E-04 
  66234.2145     0.16185E-04 
  66266.4766     0.16558E-04 
  66298.7388     0.16937E-04 
  66331.0010     0.17323E-04 
  66363.2631     0.17716E-04 
  66395.5253     0.18116E-04 
  66427.7874     0.18523E-04 
  66460.0496     0.18938E-04 
  66492.3118     0.19359E-04 
  66524.5739     0.19788E-04 
  66556.8361     0.20224E-04 
  66589.0982     0.20668E-04 
  66621.3604     0.21119E-04 
  66653.6226     0.21579E-04 
  66685.8847     0.22046E-04 
  66718.1469     0.22521E-04 
  66750.4090     0.23004E-04 
  66782.6712     0.23496E-04 
  66814.9334     0.23996E-04 
  66847.1955     0.24504E-04 
  66879.4577     0.25020E-04 
  66911.7198     0.25546E-04 
  66943.9820     0.26080E-04 
  66976.2442     0.26623E-04 
  67008.5063     0.27175E-04 
  67040.7685     0.27736E-04 
  67073.0306     0.28306E-04 
  67105.2928     0.28886E-04 
  67137.5550     0.29475E-04 
  67169.8171     0.30073E-04 
  67202.0793     0.30682E-04 
  67234.3414     0.31300E-04 
  67266.6036     0.31928E-04 
  67298.8658     0.32566E-04 
  67331.1279     0.33215E-04 
  67363.3901     0.33873E-04 
  67395.6522     0.34542E-04 
  67427.9144     0.35222E-04 
  67460.1766     0.35913E-04 
  67492.4387     0.36614E-04 
  67524.7009     0.37326E-04 
  67556.9630     0.38049E-04 
  67589.2252     0.38784E-04 
  67621.4874     0.39530E-04 
  67653.7495     0.40288E-04 
  67686.0117     0.41057E-04 
  67718.2738     0.41838E-04 
  67750.5360     0.42630E-04 
  67782.7982     0.43435E-04 
  67815.0603     0.44253E-04 
  67847.3225     0.45082E-04 
  67879.5846     0.45924E-04 
  67911.8468     0.46779E-04 
  67944.1090     0.47646E-04 
  67976.3711     0.48526E-04 
  68008.6333     0.49420E-04 
  68040.8954     0.50326E-04 
  68073.1576     0.51246E-04 
  68105.4198     0.52180E-04 
  68137.6819     0.53127E-04 
  68169.9441     0.54088E-04 
  68202.2062     0.55063E-04 
  68234.4684     0.56052E-04 
  68266.7306     0.57055E-04 
  68298.9927     0.58073E-04 
  68331.2549     0.59105E-04 
  68363.5170     0.60152E-04 
  68395.7792     0.61214E-04 
  68428.0414     0.62292E-04 
  68460.3035     0.63384E-04 
  68492.5657     0.64491E-04 
  68524.8278     0.65615E-04 
  68557.0900     0.66753E-04 
  68589.3522     0.67908E-04 
  68621.6143     0.69079E-04 
  68653.8765     0.70266E-04 
  68686.1386     0.71469E-04 
  68718.4008     0.72689E-04 
  68750.6630     0.73925E-04 
  68782.9251     0.75178E-04 
  68815.1873     0.76449E-04 
  68847.4494     0.77736E-04 
  68879.7116     0.79041E-04 
  68911.9738     0.80363E-04 
  68944.2359     0.81703E-04 
  68976.4981     0.83061E-04 
  69008.7602     0.84436E-04 
  69041.0224     0.85830E-04 
  69073.2846     0.87242E-04 
  69105.5467     0.88673E-04 
  69137.8089     0.90122E-04 
  69170.0710     0.91591E-04 
  69202.3332     0.93078E-04 
  69234.5954     0.94584E-04 
  69266.8575     0.96110E-04 
  69299.1197     0.97655E-04 
  69331.3818     0.99220E-04 
  69363.6440     0.10080E-03 
  69395.9062     0.10241E-03 
  69428.1683     0.10403E-03 
  69460.4305     0.10568E-03 
  69492.6926     0.10735E-03 
  69524.9548     0.10903E-03 
  69557.2170     0.11074E-03 
  69589.4791     0.11247E-03 
  69621.7413     0.11422E-03 
  69654.0034     0.11599E-03 
  69686.2656     0.11778E-03 
  69718.5278     0.11960E-03 
  69750.7899     0.12143E-03 
  69783.0521     0.12329E-03 
  69815.3142     0.12517E-03 
  69847.5764     0.12708E-03 
  69879.8386     0.12900E-03 
  69912.1007     0.13095E-03 
  69944.3629     0.13292E-03 
  69976.6250     0.13492E-03 
  70008.8872     0.13694E-03 
  70041.1494     0.13898E-03 
  70073.4115     0.14104E-03 
  70105.6737     0.14313E-03 
  70137.9358     0.14524E-03 
  70170.1980     0.14738E-03 
  70202.4602     0.14954E-03 
  70234.7223     0.15173E-03 
  70266.9845     0.15394E-03 
  70299.2466     0.15617E-03 
  70331.5088     0.15843E-03 
  70363.7710     0.16072E-03 
  70396.0331     0.16303E-03 
  70428.2953     0.16536E-03 
  70460.5574     0.16772E-03 
  70492.8196     0.17011E-03 
  70525.0818     0.17252E-03 
  70557.3439     0.17496E-03 
  70589.6061     0.17743E-03 
  70621.8682     0.17992E-03 
  70654.1304     0.18244E-03 
  70686.3926     0.18498E-03 
  70718.6547     0.18755E-03 
  70750.9169     0.19015E-03 
  70783.1790     0.19278E-03 
  70815.4412     0.19543E-03 
  70847.7034     0.19811E-03 
  70879.9655     0.20082E-03 
  70912.2277     0.20355E-03 
  70944.4898     0.20631E-03 
  70976.7520     0.20911E-03 
  71009.0142     0.21192E-03 
  71041.2763     0.21477E-03 
  71073.5385     0.21765E-03 
  71105.8006     0.22055E-03 
  71138.0628     0.22348E-03 
  71170.3250     0.22645E-03 
  71202.5871     0.22944E-03 
  71234.8493     0.23246E-03 
  71267.1114     0.23551E-03 
  71299.3736     0.23858E-03 
  71331.6358     0.24169E-03 
  71363.8979     0.24483E-03 
  71396.1601     0.24799E-03 
  71428.4222     0.25119E-03 
  71460.6844     0.25442E-03 
  71492.9466     0.25767E-03 
  71525.2087     0.26096E-03 
  71557.4709     0.26427E-03 
  71589.7330     0.26762E-03 
  71621.9952     0.27100E-03 
  71654.2574     0.27441E-03 
  71686.5195     0.27784E-03 
  71718.7817     0.28131E-03 
  71751.0438     0.28481E-03 
  71783.3060     0.28834E-03 
  71815.5682     0.29190E-03 
  71847.8303     0.29550E-03 
  71880.0925     0.29912E-03 
  71912.3546     0.30277E-03 
  71944.6168     0.30646E-03 
  71976.8790     0.31018E-03 
  72009.1411     0.31392E-03 
  72041.4033     0.31770E-03 
  72073.6654     0.32152E-03 
  72105.9276     0.32536E-03 
  72138.1898     0.32923E-03 
  72170.4519     0.33314E-03 
  72202.7141     0.33708E-03 
  72234.9762     0.34105E-03 
  72267.2384     0.34505E-03 
  72299.5006     0.34908E-03 
  72331.7627     0.35315E-03 
  72364.0249     0.35725E-03 
  72396.2870     0.36138E-03 
  72428.5492     0.36554E-03 
  72460.8114     0.36973E-03 
  72493.0735     0.37396E-03 
  72525.3357     0.37822E-03 
  72557.5978     0.38251E-03 
  72589.8600     0.38683E-03 
