  32262.1600     0.19032E+00 
  32294.4222     0.19109E+00 
  32326.6843     0.19186E+00 
  32358.9465     0.19263E+00 
  32391.2086     0.19341E+00 
  32423.4708     0.19419E+00 
  32455.7330     0.19497E+00 
  32487.9951     0.19575E+00 
  32520.2573     0.19653E+00 
  32552.5194     0.19732E+00 
  32584.7816     0.19811E+00 
  32617.0438     0.19890E+00 
  32649.3059     0.19970E+00 
  32681.5681     0.20049E+00 
  32713.8302     0.20129E+00 
  32746.0924     0.20209E+00 
  32778.3546     0.20290E+00 
  32810.6167     0.20370E+00 
  32842.8789     0.20451E+00 
  32875.1410     0.20532E+00 
  32907.4032     0.20614E+00 
  32939.6654     0.20695E+00 
  32971.9275     0.20777E+00 
  33004.1897     0.20859E+00 
  33036.4518     0.20941E+00 
  33068.7140     0.21024E+00 
  33100.9762     0.21107E+00 
  33133.2383     0.21190E+00 
  33165.5005     0.21273E+00 
  33197.7626     0.21357E+00 
  33230.0248     0.21440E+00 
  33262.2870     0.21524E+00 
  33294.5491     0.21609E+00 
  33326.8113     0.21693E+00 
  33359.0734     0.21778E+00 
  33391.3356     0.21863E+00 
  33423.5978     0.21948E+00 
  33455.8599     0.22034E+00 
  33488.1221     0.22119E+00 
  33520.3842     0.22205E+00 
  33552.6464     0.22292E+00 
  33584.9086     0.22378E+00 
  33617.1707     0.22465E+00 
  33649.4329     0.22552E+00 
  33681.6950     0.22639E+00 
  33713.9572     0.22727E+00 
  33746.2194     0.22814E+00 
  33778.4815     0.22902E+00 
  33810.7437     0.22991E+00 
  33843.0058     0.23079E+00 
  33875.2680     0.23168E+00 
  33907.5302     0.23257E+00 
  33939.7923     0.23346E+00 
  33972.0545     0.23436E+00 
  34004.3166     0.23526E+00 
  34036.5788     0.23616E+00 
  34068.8410     0.23706E+00 
  34101.1031     0.23797E+00 
  34133.3653     0.23888E+00 
  34165.6274     0.23979E+00 
  34197.8896     0.24070E+00 
  34230.1518     0.24162E+00 
  34262.4139     0.24254E+00 
  34294.6761     0.24346E+00 
  34326.9382     0.24438E+00 
  34359.2004     0.24531E+00 
  34391.4626     0.24624E+00 
  34423.7247     0.24717E+00 
  34455.9869     0.24810E+00 
  34488.2490     0.24904E+00 
  34520.5112     0.24998E+00 
  34552.7734     0.25092E+00 
  34585.0355     0.25187E+00 
  34617.2977     0.25282E+00 
  34649.5598     0.25377E+00 
  34681.8220     0.25472E+00 
  34714.0842     0.25568E+00 
  34746.3463     0.25664E+00 
  34778.6085     0.25760E+00 
  34810.8706     0.25856E+00 
  34843.1328     0.25953E+00 
  34875.3950     0.26050E+00 
  34907.6571     0.26147E+00 
  34939.9193     0.26245E+00 
  34972.1814     0.26342E+00 
  35004.4436     0.26440E+00 
  35036.7058     0.26539E+00 
  35068.9679     0.26637E+00 
  35101.2301     0.26736E+00 
  35133.4922     0.26835E+00 
  35165.7544     0.26935E+00 
  35198.0166     0.27034E+00 
  35230.2787     0.27134E+00 
  35262.5409     0.27235E+00 
  35294.8030     0.27335E+00 
  35327.0652     0.27436E+00 
  35359.3274     0.27537E+00 
  35391.5895     0.27638E+00 
  35423.8517     0.27740E+00 
  35456.1138     0.27842E+00 
  35488.3760     0.27944E+00 
  35520.6382     0.28047E+00 
  35552.9003     0.28149E+00 
  35585.1625     0.28252E+00 
  35617.4246     0.28356E+00 
  35649.6868     0.28459E+00 
  35681.9490     0.28563E+00 
  35714.2111     0.28667E+00 
  35746.4733     0.28772E+00 
  35778.7354     0.28877E+00 
  35810.9976     0.28982E+00 
  35843.2598     0.29087E+00 
  35875.5219     0.29192E+00 
  35907.7841     0.29298E+00 
  35940.0462     0.29405E+00 
  35972.3084     0.29511E+00 
  36004.5706     0.29618E+00 
  36036.8327     0.29725E+00 
  36069.0949     0.29832E+00 
  36101.3570     0.29940E+00 
  36133.6192     0.30048E+00 
  36165.8814     0.30156E+00 
  36198.1435     0.30264E+00 
  36230.4057     0.30373E+00 
  36262.6678     0.30482E+00 
  36294.9300     0.30592E+00 
  36327.1922     0.30701E+00 
  36359.4543     0.30811E+00 
  36391.7165     0.30922E+00 
  36423.9786     0.31032E+00 
  36456.2408     0.31143E+00 
  36488.5030     0.31254E+00 
  36520.7651     0.31366E+00 
  36553.0273     0.31477E+00 
  36585.2894     0.31589E+00 
  36617.5516     0.31702E+00 
  36649.8138     0.31814E+00 
  36682.0759     0.31927E+00 
  36714.3381     0.32041E+00 
  36746.6002     0.32154E+00 
  36778.8624     0.32268E+00 
  36811.1246     0.32382E+00 
  36843.3867     0.32497E+00 
  36875.6489     0.32611E+00 
  36907.9110     0.32726E+00 
  36940.1732     0.32842E+00 
  36972.4354     0.32958E+00 
  37004.6975     0.33073E+00 
  37036.9597     0.33190E+00 
  37069.2218     0.33306E+00 
  37101.4840     0.33423E+00 
  37133.7462     0.33540E+00 
  37166.0083     0.33658E+00 
  37198.2705     0.33776E+00 
  37230.5326     0.33894E+00 
  37262.7948     0.34012E+00 
  37295.0570     0.34131E+00 
  37327.3191     0.34250E+00 
  37359.5813     0.34370E+00 
  37391.8434     0.34489E+00 
  37424.1056     0.34609E+00 
  37456.3678     0.34730E+00 
  37488.6299     0.34850E+00 
  37520.8921     0.34971E+00 
  37553.1542     0.35092E+00 
  37585.4164     0.35214E+00 
  37617.6786     0.35336E+00 
  37649.9407     0.35458E+00 
  37682.2029     0.35581E+00 
  37714.4650     0.35703E+00 
  37746.7272     0.35827E+00 
  37778.9894     0.35950E+00 
  37811.2515     0.36074E+00 
  37843.5137     0.36198E+00 
  37875.7758     0.36322E+00 
  37908.0380     0.36447E+00 
  37940.3002     0.36572E+00 
  37972.5623     0.36698E+00 
  38004.8245     0.36823E+00 
  38037.0866     0.36949E+00 
  38069.3488     0.37076E+00 
  38101.6110     0.37203E+00 
  38133.8731     0.37330E+00 
  38166.1353     0.37457E+00 
  38198.3974     0.37585E+00 
  38230.6596     0.37713E+00 
  38262.9218     0.37841E+00 
  38295.1839     0.37970E+00 
  38327.4461     0.38099E+00 
  38359.7082     0.38228E+00 
  38391.9704     0.38357E+00 
  38424.2326     0.38487E+00 
  38456.4947     0.38618E+00 
  38488.7569     0.38748E+00 
  38521.0190     0.38879E+00 
  38553.2812     0.39011E+00 
  38585.5434     0.39142E+00 
  38617.8055     0.39274E+00 
  38650.0677     0.39407E+00 
  38682.3298     0.39539E+00 
  38714.5920     0.39672E+00 
  38746.8542     0.39805E+00 
  38779.1163     0.39939E+00 
  38811.3785     0.40073E+00 
  38843.6406     0.40207E+00 
  38875.9028     0.40342E+00 
  38908.1650     0.40477E+00 
  38940.4271     0.40612E+00 
  38972.6893     0.40748E+00 
  39004.9514     0.40884E+00 
  39037.2136     0.41020E+00 
  39069.4758     0.41157E+00 
  39101.7379     0.41294E+00 
  39134.0001     0.41431E+00 
  39166.2622     0.41569E+00 
  39198.5244     0.41707E+00 
  39230.7866     0.41845E+00 
  39263.0487     0.41984E+00 
  39295.3109     0.42123E+00 
  39327.5730     0.42263E+00 
  39359.8352     0.42403E+00 
  39392.0974     0.42543E+00 
  39424.3595     0.42683E+00 
  39456.6217     0.42824E+00 
  39488.8838     0.42965E+00 
  39521.1460     0.43107E+00 
  39553.4082     0.43249E+00 
  39585.6703     0.43391E+00 
  39617.9325     0.43533E+00 
  39650.1946     0.43676E+00 
  39682.4568     0.43820E+00 
  39714.7190     0.43963E+00 
  39746.9811     0.44107E+00 
  39779.2433     0.44251E+00 
  39811.5054     0.44396E+00 
  39843.7676     0.44541E+00 
  39876.0298     0.44687E+00 
  39908.2919     0.44832E+00 
  39940.5541     0.44978E+00 
  39972.8162     0.45125E+00 
  40005.0784     0.45272E+00 
  40037.3406     0.45419E+00 
  40069.6027     0.45567E+00 
  40101.8649     0.45714E+00 
  40134.1270     0.45863E+00 
  40166.3892     0.46011E+00 
  40198.6514     0.46160E+00 
  40230.9135     0.46310E+00 
  40263.1757     0.46459E+00 
  40295.4378     0.46609E+00 
  40327.7000     0.46760E+00 
  40359.9622     0.46911E+00 
  40392.2243     0.47062E+00 
  40424.4865     0.47213E+00 
  40456.7486     0.47365E+00 
  40489.0108     0.47518E+00 
  40521.2730     0.47670E+00 
  40553.5351     0.47823E+00 
  40585.7973     0.47977E+00 
  40618.0594     0.48130E+00 
  40650.3216     0.48284E+00 
  40682.5838     0.48439E+00 
  40714.8459     0.48594E+00 
  40747.1081     0.48749E+00 
  40779.3702     0.48905E+00 
  40811.6324     0.49061E+00 
  40843.8946     0.49217E+00 
  40876.1567     0.49374E+00 
  40908.4189     0.49531E+00 
  40940.6810     0.49688E+00 
  40972.9432     0.49846E+00 
  41005.2054     0.50004E+00 
  41037.4675     0.50163E+00 
  41069.7297     0.50322E+00 
  41101.9918     0.50481E+00 
  41134.2540     0.50641E+00 
  41166.5162     0.50801E+00 
  41198.7783     0.50962E+00 
  41231.0405     0.51122E+00 
  41263.3026     0.51284E+00 
  41295.5648     0.51445E+00 
  41327.8270     0.51607E+00 
  41360.0891     0.51770E+00 
  41392.3513     0.51933E+00 
  41424.6134     0.52096E+00 
  41456.8756     0.52259E+00 
  41489.1378     0.52423E+00 
  41521.3999     0.52587E+00 
  41553.6621     0.52752E+00 
  41585.9242     0.52917E+00 
  41618.1864     0.53083E+00 
  41650.4486     0.53249E+00 
  41682.7107     0.53415E+00 
  41714.9729     0.53582E+00 
  41747.2350     0.53749E+00 
  41779.4972     0.53916E+00 
  41811.7594     0.54084E+00 
  41844.0215     0.54252E+00 
  41876.2837     0.54421E+00 
  41908.5458     0.54590E+00 
  41940.8080     0.54759E+00 
  41973.0702     0.54929E+00 
  42005.3323     0.55099E+00 
  42037.5945     0.55270E+00 
  42069.8566     0.55441E+00 
  42102.1188     0.55612E+00 
  42134.3810     0.55784E+00 
  42166.6431     0.55956E+00 
  42198.9053     0.56129E+00 
  42231.1674     0.56302E+00 
  42263.4296     0.56475E+00 
  42295.6918     0.56649E+00 
  42327.9539     0.56823E+00 
  42360.2161     0.56998E+00 
  42392.4782     0.57173E+00 
  42424.7404     0.57348E+00 
  42457.0026     0.57524E+00 
  42489.2647     0.57700E+00 
  42521.5269     0.57876E+00 
  42553.7890     0.58053E+00 
  42586.0512     0.58231E+00 
  42618.3134     0.58409E+00 
  42650.5755     0.58587E+00 
  42682.8377     0.58766E+00 
  42715.0998     0.58945E+00 
  42747.3620     0.59124E+00 
  42779.6242     0.59304E+00 
  42811.8863     0.59484E+00 
  42844.1485     0.59665E+00 
  42876.4106     0.59846E+00 
  42908.6728     0.60028E+00 
  42940.9350     0.60209E+00 
  42973.1971     0.60392E+00 
  43005.4593     0.60575E+00 
  43037.7214     0.60758E+00 
  43069.9836     0.60941E+00 
  43102.2458     0.61125E+00 
  43134.5079     0.61310E+00 
  43166.7701     0.61495E+00 
  43199.0322     0.61680E+00 
  43231.2944     0.61866E+00 
  43263.5566     0.62052E+00 
  43295.8187     0.62238E+00 
  43328.0809     0.62425E+00 
  43360.3430     0.62612E+00 
  43392.6052     0.62800E+00 
  43424.8674     0.62988E+00 
  43457.1295     0.63177E+00 
  43489.3917     0.63366E+00 
  43521.6538     0.63556E+00 
  43553.9160     0.63746E+00 
  43586.1782     0.63936E+00 
  43618.4403     0.64127E+00 
  43650.7025     0.64318E+00 
  43682.9646     0.64509E+00 
  43715.2268     0.64701E+00 
  43747.4890     0.64894E+00 
  43779.7511     0.65087E+00 
  43812.0133     0.65280E+00 
  43844.2754     0.65474E+00 
  43876.5376     0.65668E+00 
  43908.7998     0.65863E+00 
  43941.0619     0.66058E+00 
  43973.3241     0.66253E+00 
  44005.5862     0.66449E+00 
  44037.8484     0.66646E+00 
  44070.1106     0.66842E+00 
  44102.3727     0.67040E+00 
  44134.6349     0.67237E+00 
  44166.8970     0.67435E+00 
  44199.1592     0.67634E+00 
  44231.4214     0.67833E+00 
  44263.6835     0.68032E+00 
  44295.9457     0.68232E+00 
  44328.2078     0.68433E+00 
  44360.4700     0.68633E+00 
  44392.7322     0.68834E+00 
  44424.9943     0.69036E+00 
  44457.2565     0.69238E+00 
  44489.5186     0.69441E+00 
  44521.7808     0.69644E+00 
  44554.0430     0.69847E+00 
  44586.3051     0.70051E+00 
  44618.5673     0.70255E+00 
  44650.8294     0.70460E+00 
  44683.0916     0.70665E+00 
  44715.3538     0.70871E+00 
  44747.6159     0.71077E+00 
  44779.8781     0.71284E+00 
  44812.1402     0.71491E+00 
  44844.4024     0.71698E+00 
  44876.6646     0.71906E+00 
  44908.9267     0.72114E+00 
  44941.1889     0.72323E+00 
  44973.4510     0.72532E+00 
  45005.7132     0.72742E+00 
  45037.9754     0.72952E+00 
  45070.2375     0.73163E+00 
  45102.4997     0.73374E+00 
  45134.7618     0.73586E+00 
  45167.0240     0.73798E+00 
  45199.2862     0.74010E+00 
  45231.5483     0.74223E+00 
  45263.8105     0.74436E+00 
  45296.0726     0.74650E+00 
  45328.3348     0.74864E+00 
  45360.5970     0.75079E+00 
  45392.8591     0.75294E+00 
  45425.1213     0.75510E+00 
  45457.3834     0.75726E+00 
  45489.6456     0.75943E+00 
  45521.9078     0.76160E+00 
  45554.1699     0.76378E+00 
  45586.4321     0.76596E+00 
  45618.6942     0.76814E+00 
  45650.9564     0.77033E+00 
  45683.2186     0.77252E+00 
  45715.4807     0.77472E+00 
  45747.7429     0.77693E+00 
  45780.0050     0.77914E+00 
  45812.2672     0.78135E+00 
  45844.5294     0.78357E+00 
  45876.7915     0.78579E+00 
  45909.0537     0.78802E+00 
  45941.3158     0.79025E+00 
  45973.5780     0.79249E+00 
  46005.8402     0.79473E+00 
  46038.1023     0.79697E+00 
  46070.3645     0.79922E+00 
  46102.6266     0.80148E+00 
  46134.8888     0.80374E+00 
  46167.1510     0.80601E+00 
  46199.4131     0.80828E+00 
  46231.6753     0.81055E+00 
  46263.9374     0.81283E+00 
  46296.1996     0.81512E+00 
  46328.4618     0.81741E+00 
  46360.7239     0.81970E+00 
  46392.9861     0.82200E+00 
  46425.2482     0.82430E+00 
  46457.5104     0.82661E+00 
  46489.7726     0.82892E+00 
  46522.0347     0.83124E+00 
  46554.2969     0.83357E+00 
  46586.5590     0.83590E+00 
  46618.8212     0.83823E+00 
  46651.0834     0.84057E+00 
  46683.3455     0.84291E+00 
  46715.6077     0.84526E+00 
  46747.8698     0.84761E+00 
  46780.1320     0.84997E+00 
  46812.3942     0.85233E+00 
  46844.6563     0.85470E+00 
  46876.9185     0.85707E+00 
  46909.1806     0.85945E+00 
  46941.4428     0.86183E+00 
  46973.7050     0.86422E+00 
  47005.9671     0.86661E+00 
  47038.2293     0.86901E+00 
  47070.4914     0.87141E+00 
  47102.7536     0.87382E+00 
  47135.0158     0.87623E+00 
  47167.2779     0.87865E+00 
  47199.5401     0.88107E+00 
  47231.8022     0.88350E+00 
  47264.0644     0.88593E+00 
  47296.3266     0.88837E+00 
  47328.5887     0.89081E+00 
  47360.8509     0.89326E+00 
  47393.1130     0.89571E+00 
  47425.3752     0.89816E+00 
  47457.6374     0.90063E+00 
  47489.8995     0.90310E+00 
  47522.1617     0.90557E+00 
  47554.4238     0.90805E+00 
  47586.6860     0.91053E+00 
  47618.9482     0.91302E+00 
  47651.2103     0.91551E+00 
  47683.4725     0.91801E+00 
  47715.7346     0.92051E+00 
  47747.9968     0.92302E+00 
  47780.2590     0.92553E+00 
  47812.5211     0.92805E+00 
  47844.7833     0.93058E+00 
  47877.0454     0.93311E+00 
  47909.3076     0.93564E+00 
  47941.5698     0.93818E+00 
  47973.8319     0.94072E+00 
  48006.0941     0.94327E+00 
  48038.3562     0.94583E+00 
  48070.6184     0.94839E+00 
  48102.8806     0.95095E+00 
  48135.1427     0.95352E+00 
  48167.4049     0.95610E+00 
  48199.6670     0.95868E+00 
  48231.9292     0.96127E+00 
  48264.1914     0.96386E+00 
  48296.4535     0.96645E+00 
  48328.7157     0.96906E+00 
  48360.9778     0.97166E+00 
  48393.2400     0.97428E+00 
  48425.5022     0.97689E+00 
  48457.7643     0.97952E+00 
  48490.0265     0.98215E+00 
  48522.2886     0.98478E+00 
  48554.5508     0.98742E+00 
  48586.8130     0.99006E+00 
  48619.0751     0.99271E+00 
  48651.3373     0.99537E+00 
  48683.5994     0.99803E+00 
  48715.8616     0.10007E+01 
  48748.1238     0.10034E+01 
  48780.3859     0.10060E+01 
  48812.6481     0.10087E+01 
  48844.9102     0.10114E+01 
  48877.1724     0.10141E+01 
  48909.4346     0.10168E+01 
  48941.6967     0.10195E+01 
  48973.9589     0.10222E+01 
  49006.2210     0.10249E+01 
  49038.4832     0.10276E+01 
  49070.7454     0.10304E+01 
  49103.0075     0.10331E+01 
  49135.2697     0.10358E+01 
  49167.5318     0.10386E+01 
  49199.7940     0.10413E+01 
  49232.0562     0.10441E+01 
  49264.3183     0.10468E+01 
  49296.5805     0.10496E+01 
  49328.8426     0.10524E+01 
  49361.1048     0.10551E+01 
  49393.3670     0.10579E+01 
  49425.6291     0.10607E+01 
  49457.8913     0.10635E+01 
  49490.1534     0.10663E+01 
  49522.4156     0.10691E+01 
  49554.6778     0.10719E+01 
  49586.9399     0.10747E+01 
  49619.2021     0.10775E+01 
  49651.4642     0.10803E+01 
  49683.7264     0.10832E+01 
  49715.9886     0.10860E+01 
  49748.2507     0.10889E+01 
  49780.5129     0.10917E+01 
  49812.7750     0.10945E+01 
  49845.0372     0.10974E+01 
  49877.2994     0.11003E+01 
  49909.5615     0.11031E+01 
  49941.8237     0.11060E+01 
  49974.0858     0.11089E+01 
  50006.3480     0.11118E+01 
  50038.6102     0.11147E+01 
  50070.8723     0.11176E+01 
  50103.1345     0.11205E+01 
  50135.3966     0.11234E+01 
  50167.6588     0.11263E+01 
  50199.9210     0.11292E+01 
  50232.1831     0.11321E+01 
  50264.4453     0.11351E+01 
  50296.7074     0.11380E+01 
  50328.9696     0.11409E+01 
  50361.2318     0.11439E+01 
  50393.4939     0.11468E+01 
  50425.7561     0.11498E+01 
  50458.0182     0.11528E+01 
  50490.2804     0.11557E+01 
  50522.5426     0.11587E+01 
  50554.8047     0.11617E+01 
  50587.0669     0.11647E+01 
  50619.3290     0.11677E+01 
  50651.5912     0.11707E+01 
  50683.8534     0.11737E+01 
  50716.1155     0.11767E+01 
  50748.3777     0.11797E+01 
  50780.6398     0.11827E+01 
  50812.9020     0.11857E+01 
  50845.1642     0.11888E+01 
  50877.4263     0.11918E+01 
  50909.6885     0.11949E+01 
  50941.9506     0.11979E+01 
  50974.2128     0.12010E+01 
  51006.4750     0.12040E+01 
  51038.7371     0.12071E+01 
  51070.9993     0.12102E+01 
  51103.2614     0.12133E+01 
  51135.5236     0.12163E+01 
  51167.7858     0.12194E+01 
  51200.0479     0.12225E+01 
  51232.3101     0.12256E+01 
  51264.5722     0.12288E+01 
  51296.8344     0.12319E+01 
  51329.0966     0.12350E+01 
  51361.3587     0.12381E+01 
  51393.6209     0.12413E+01 
  51425.8830     0.12444E+01 
  51458.1452     0.12475E+01 
  51490.4074     0.12507E+01 
  51522.6695     0.12538E+01 
  51554.9317     0.12570E+01 
  51587.1938     0.12602E+01 
  51619.4560     0.12634E+01 
  51651.7182     0.12665E+01 
  51683.9803     0.12697E+01 
  51716.2425     0.12729E+01 
  51748.5046     0.12761E+01 
  51780.7668     0.12793E+01 
  51813.0290     0.12825E+01 
  51845.2911     0.12858E+01 
  51877.5533     0.12890E+01 
  51909.8154     0.12922E+01 
  51942.0776     0.12954E+01 
  51974.3398     0.12987E+01 
  52006.6019     0.13019E+01 
  52038.8641     0.13052E+01 
  52071.1262     0.13085E+01 
  52103.3884     0.13117E+01 
  52135.6506     0.13150E+01 
  52167.9127     0.13183E+01 
  52200.1749     0.13216E+01 
  52232.4370     0.13248E+01 
  52264.6992     0.13281E+01 
  52296.9614     0.13314E+01 
  52329.2235     0.13348E+01 
  52361.4857     0.13381E+01 
  52393.7478     0.13414E+01 
  52426.0100     0.13447E+01 
  52458.2722     0.13481E+01 
  52490.5343     0.13514E+01 
  52522.7965     0.13547E+01 
  52555.0586     0.13581E+01 
  52587.3208     0.13615E+01 
  52619.5830     0.13648E+01 
  52651.8451     0.13682E+01 
  52684.1073     0.13716E+01 
  52716.3694     0.13750E+01 
  52748.6316     0.13783E+01 
  52780.8938     0.13817E+01 
  52813.1559     0.13851E+01 
  52845.4181     0.13886E+01 
  52877.6802     0.13920E+01 
  52909.9424     0.13954E+01 
  52942.2046     0.13988E+01 
  52974.4667     0.14023E+01 
  53006.7289     0.14057E+01 
  53038.9910     0.14091E+01 
  53071.2532     0.14126E+01 
  53103.5154     0.14161E+01 
  53135.7775     0.14195E+01 
  53168.0397     0.14230E+01 
  53200.3018     0.14265E+01 
  53232.5640     0.14300E+01 
  53264.8262     0.14334E+01 
  53297.0883     0.14369E+01 
  53329.3505     0.14404E+01 
  53361.6126     0.14440E+01 
  53393.8748     0.14475E+01 
  53426.1370     0.14510E+01 
  53458.3991     0.14545E+01 
  53490.6613     0.14581E+01 
  53522.9234     0.14616E+01 
  53555.1856     0.14652E+01 
  53587.4478     0.14687E+01 
  53619.7099     0.14723E+01 
  53651.9721     0.14758E+01 
  53684.2342     0.14794E+01 
  53716.4964     0.14830E+01 
  53748.7586     0.14866E+01 
  53781.0207     0.14902E+01 
  53813.2829     0.14938E+01 
  53845.5450     0.14974E+01 
  53877.8072     0.15010E+01 
  53910.0694     0.15046E+01 
  53942.3315     0.15083E+01 
  53974.5937     0.15119E+01 
  54006.8558     0.15155E+01 
  54039.1180     0.15192E+01 
  54071.3802     0.15228E+01 
  54103.6423     0.15265E+01 
  54135.9045     0.15302E+01 
  54168.1666     0.15338E+01 
  54200.4288     0.15375E+01 
  54232.6910     0.15412E+01 
  54264.9531     0.15449E+01 
  54297.2153     0.15486E+01 
  54329.4774     0.15523E+01 
  54361.7396     0.15560E+01 
  54394.0018     0.15597E+01 
  54426.2639     0.15635E+01 
  54458.5261     0.15672E+01 
  54490.7882     0.15709E+01 
  54523.0504     0.15747E+01 
  54555.3126     0.15784E+01 
  54587.5747     0.15822E+01 
  54619.8369     0.15860E+01 
  54652.0990     0.15897E+01 
  54684.3612     0.15935E+01 
  54716.6234     0.15973E+01 
  54748.8855     0.16011E+01 
  54781.1477     0.16049E+01 
  54813.4098     0.16087E+01 
  54845.6720     0.16125E+01 
  54877.9342     0.16163E+01 
  54910.1963     0.16202E+01 
  54942.4585     0.16240E+01 
  54974.7206     0.16278E+01 
  55006.9828     0.16317E+01 
  55039.2450     0.16355E+01 
  55071.5071     0.16394E+01 
  55103.7693     0.16433E+01 
  55136.0314     0.16471E+01 
  55168.2936     0.16510E+01 
  55200.5558     0.16549E+01 
  55232.8179     0.16588E+01 
  55265.0801     0.16627E+01 
  55297.3422     0.16666E+01 
  55329.6044     0.16705E+01 
  55361.8666     0.16745E+01 
  55394.1287     0.16784E+01 
  55426.3909     0.16823E+01 
  55458.6530     0.16863E+01 
  55490.9152     0.16902E+01 
  55523.1774     0.16942E+01 
  55555.4395     0.16981E+01 
  55587.7017     0.17021E+01 
  55619.9638     0.17061E+01 
  55652.2260     0.17101E+01 
  55684.4882     0.17141E+01 
  55716.7503     0.17181E+01 
  55749.0125     0.17221E+01 
  55781.2746     0.17261E+01 
  55813.5368     0.17301E+01 
  55845.7990     0.17341E+01 
  55878.0611     0.17382E+01 
  55910.3233     0.17422E+01 
  55942.5854     0.17463E+01 
  55974.8476     0.17503E+01 
  56007.1098     0.17544E+01 
  56039.3719     0.17584E+01 
  56071.6341     0.17625E+01 
  56103.8962     0.17666E+01 
  56136.1584     0.17707E+01 
  56168.4206     0.17748E+01 
  56200.6827     0.17789E+01 
  56232.9449     0.17830E+01 
  56265.2070     0.17871E+01 
  56297.4692     0.17913E+01 
  56329.7314     0.17954E+01 
  56361.9935     0.17995E+01 
  56394.2557     0.18037E+01 
  56426.5178     0.18078E+01 
  56458.7800     0.18120E+01 
  56491.0422     0.18162E+01 
  56523.3043     0.18203E+01 
  56555.5665     0.18245E+01 
  56587.8286     0.18287E+01 
  56620.0908     0.18329E+01 
  56652.3530     0.18371E+01 
  56684.6151     0.18413E+01 
  56716.8773     0.18456E+01 
  56749.1394     0.18498E+01 
  56781.4016     0.18540E+01 
  56813.6638     0.18583E+01 
  56845.9259     0.18625E+01 
  56878.1881     0.18668E+01 
  56910.4502     0.18710E+01 
  56942.7124     0.18753E+01 
  56974.9746     0.18796E+01 
  57007.2367     0.18839E+01 
  57039.4989     0.18882E+01 
  57071.7610     0.18925E+01 
  57104.0232     0.18968E+01 
  57136.2854     0.19011E+01 
  57168.5475     0.19054E+01 
  57200.8097     0.19097E+01 
  57233.0718     0.19141E+01 
  57265.3340     0.19184E+01 
  57297.5962     0.19228E+01 
  57329.8583     0.19271E+01 
  57362.1205     0.19315E+01 
  57394.3826     0.19359E+01 
  57426.6448     0.19402E+01 
  57458.9070     0.19446E+01 
  57491.1691     0.19490E+01 
  57523.4313     0.19534E+01 
  57555.6934     0.19578E+01 
  57587.9556     0.19623E+01 
  57620.2178     0.19667E+01 
  57652.4799     0.19711E+01 
  57684.7421     0.19755E+01 
  57717.0042     0.19800E+01 
  57749.2664     0.19845E+01 
  57781.5286     0.19889E+01 
  57813.7907     0.19934E+01 
  57846.0529     0.19979E+01 
  57878.3150     0.20023E+01 
  57910.5772     0.20068E+01 
  57942.8394     0.20113E+01 
  57975.1015     0.20159E+01 
  58007.3637     0.20204E+01 
  58039.6258     0.20249E+01 
  58071.8880     0.20294E+01 
  58104.1502     0.20340E+01 
  58136.4123     0.20385E+01 
  58168.6745     0.20431E+01 
  58200.9366     0.20476E+01 
  58233.1988     0.20522E+01 
  58265.4610     0.20568E+01 
  58297.7231     0.20613E+01 
  58329.9853     0.20659E+01 
  58362.2474     0.20705E+01 
  58394.5096     0.20751E+01 
  58426.7718     0.20798E+01 
  58459.0339     0.20844E+01 
  58491.2961     0.20890E+01 
  58523.5582     0.20937E+01 
  58555.8204     0.20983E+01 
  58588.0826     0.21029E+01 
  58620.3447     0.21076E+01 
  58652.6069     0.21123E+01 
  58684.8690     0.21170E+01 
  58717.1312     0.21216E+01 
  58749.3934     0.21263E+01 
  58781.6555     0.21310E+01 
  58813.9177     0.21357E+01 
  58846.1798     0.21405E+01 
  58878.4420     0.21452E+01 
  58910.7042     0.21499E+01 
  58942.9663     0.21546E+01 
  58975.2285     0.21594E+01 
  59007.4906     0.21641E+01 
  59039.7528     0.21689E+01 
  59072.0150     0.21737E+01 
  59104.2771     0.21785E+01 
  59136.5393     0.21832E+01 
  59168.8014     0.21880E+01 
  59201.0636     0.21928E+01 
  59233.3258     0.21976E+01 
  59265.5879     0.22025E+01 
  59297.8501     0.22073E+01 
  59330.1122     0.22121E+01 
  59362.3744     0.22170E+01 
  59394.6366     0.22218E+01 
  59426.8987     0.22267E+01 
  59459.1609     0.22315E+01 
  59491.4230     0.22364E+01 
  59523.6852     0.22413E+01 
  59555.9474     0.22462E+01 
  59588.2095     0.22511E+01 
  59620.4717     0.22560E+01 
  59652.7338     0.22609E+01 
  59684.9960     0.22658E+01 
  59717.2582     0.22707E+01 
  59749.5203     0.22757E+01 
  59781.7825     0.22806E+01 
  59814.0446     0.22856E+01 
  59846.3068     0.22905E+01 
  59878.5690     0.22955E+01 
  59910.8311     0.23005E+01 
  59943.0933     0.23054E+01 
  59975.3554     0.23104E+01 
  60007.6176     0.23154E+01 
  60039.8798     0.23204E+01 
  60072.1419     0.23255E+01 
  60104.4041     0.23305E+01 
  60136.6662     0.23355E+01 
  60168.9284     0.23406E+01 
  60201.1906     0.23456E+01 
  60233.4527     0.23507E+01 
  60265.7149     0.23557E+01 
  60297.9770     0.23608E+01 
  60330.2392     0.23659E+01 
  60362.5014     0.23710E+01 
  60394.7635     0.23761E+01 
  60427.0257     0.23812E+01 
  60459.2878     0.23863E+01 
  60491.5500     0.23914E+01 
  60523.8122     0.23965E+01 
  60556.0743     0.24017E+01 
  60588.3365     0.24068E+01 
  60620.5986     0.24120E+01 
  60652.8608     0.24172E+01 
  60685.1230     0.24223E+01 
  60717.3851     0.24275E+01 
  60749.6473     0.24327E+01 
  60781.9094     0.24379E+01 
  60814.1716     0.24431E+01 
  60846.4338     0.24483E+01 
  60878.6959     0.24535E+01 
  60910.9581     0.24588E+01 
  60943.2202     0.24640E+01 
  60975.4824     0.24692E+01 
  61007.7446     0.24745E+01 
  61040.0067     0.24798E+01 
  61072.2689     0.24850E+01 
  61104.5310     0.24903E+01 
  61136.7932     0.24956E+01 
  61169.0554     0.25009E+01 
  61201.3175     0.25062E+01 
  61233.5797     0.25115E+01 
  61265.8418     0.25168E+01 
  61298.1040     0.25222E+01 
  61330.3662     0.25275E+01 
  61362.6283     0.25329E+01 
  61394.8905     0.25382E+01 
  61427.1526     0.25436E+01 
  61459.4148     0.25490E+01 
  61491.6770     0.25543E+01 
  61523.9391     0.25597E+01 
  61556.2013     0.25651E+01 
  61588.4634     0.25705E+01 
  61620.7256     0.25759E+01 
  61652.9878     0.25814E+01 
  61685.2499     0.25868E+01 
  61717.5121     0.25922E+01 
  61749.7742     0.25977E+01 
  61782.0364     0.26031E+01 
  61814.2986     0.26086E+01 
  61846.5607     0.26141E+01 
  61878.8229     0.26196E+01 
  61911.0850     0.26251E+01 
  61943.3472     0.26306E+01 
  61975.6094     0.26361E+01 
  62007.8715     0.26416E+01 
  62040.1337     0.26471E+01 
  62072.3958     0.26527E+01 
  62104.6580     0.26582E+01 
  62136.9202     0.26638E+01 
  62169.1823     0.26693E+01 
  62201.4445     0.26749E+01 
  62233.7066     0.26805E+01 
  62265.9688     0.26860E+01 
  62298.2310     0.26916E+01 
  62330.4931     0.26972E+01 
  62362.7553     0.27029E+01 
  62395.0174     0.27085E+01 
  62427.2796     0.27141E+01 
  62459.5418     0.27198E+01 
  62491.8039     0.27254E+01 
  62524.0661     0.27311E+01 
  62556.3282     0.27367E+01 
  62588.5904     0.27424E+01 
  62620.8526     0.27481E+01 
  62653.1147     0.27538E+01 
  62685.3769     0.27595E+01 
  62717.6390     0.27652E+01 
  62749.9012     0.27709E+01 
  62782.1634     0.27766E+01 
  62814.4255     0.27824E+01 
  62846.6877     0.27881E+01 
  62878.9498     0.27939E+01 
  62911.2120     0.27996E+01 
  62943.4742     0.28054E+01 
  62975.7363     0.28112E+01 
  63007.9985     0.28170E+01 
  63040.2606     0.28228E+01 
  63072.5228     0.28286E+01 
  63104.7850     0.28344E+01 
  63137.0471     0.28402E+01 
  63169.3093     0.28461E+01 
  63201.5714     0.28519E+01 
  63233.8336     0.28577E+01 
  63266.0958     0.28636E+01 
  63298.3579     0.28695E+01 
  63330.6201     0.28754E+01 
  63362.8822     0.28812E+01 
  63395.1444     0.28871E+01 
  63427.4066     0.28930E+01 
  63459.6687     0.28990E+01 
  63491.9309     0.29049E+01 
  63524.1930     0.29108E+01 
  63556.4552     0.29168E+01 
  63588.7174     0.29227E+01 
  63620.9795     0.29287E+01 
  63653.2417     0.29346E+01 
  63685.5038     0.29406E+01 
  63717.7660     0.29466E+01 
  63750.0282     0.29526E+01 
  63782.2903     0.29586E+01 
  63814.5525     0.29646E+01 
  63846.8146     0.29706E+01 
  63879.0768     0.29767E+01 
  63911.3390     0.29827E+01 
  63943.6011     0.29888E+01 
  63975.8633     0.29948E+01 
  64008.1254     0.30009E+01 
  64040.3876     0.30070E+01 
  64072.6498     0.30131E+01 
  64104.9119     0.30192E+01 
  64137.1741     0.30253E+01 
  64169.4362     0.30314E+01 
  64201.6984     0.30375E+01 
  64233.9606     0.30436E+01 
  64266.2227     0.30498E+01 
  64298.4849     0.30559E+01 
  64330.7470     0.30621E+01 
  64363.0092     0.30683E+01 
  64395.2714     0.30745E+01 
  64427.5335     0.30806E+01 
  64459.7957     0.30868E+01 
  64492.0578     0.30930E+01 
  64524.3200     0.30993E+01 
  64556.5822     0.31055E+01 
  64588.8443     0.31117E+01 
  64621.1065     0.31180E+01 
  64653.3686     0.31242E+01 
  64685.6308     0.31305E+01 
  64717.8930     0.31368E+01 
  64750.1551     0.31430E+01 
  64782.4173     0.31493E+01 
  64814.6794     0.31556E+01 
  64846.9416     0.31620E+01 
  64879.2038     0.31683E+01 
  64911.4659     0.31746E+01 
  64943.7281     0.31809E+01 
  64975.9902     0.31873E+01 
  65008.2524     0.31937E+01 
  65040.5146     0.32000E+01 
  65072.7767     0.32064E+01 
  65105.0389     0.32128E+01 
  65137.3010     0.32192E+01 
  65169.5632     0.32256E+01 
  65201.8254     0.32320E+01 
  65234.0875     0.32384E+01 
  65266.3497     0.32449E+01 
  65298.6118     0.32513E+01 
  65330.8740     0.32578E+01 
  65363.1362     0.32642E+01 
  65395.3983     0.32707E+01 
  65427.6605     0.32772E+01 
  65459.9226     0.32837E+01 
  65492.1848     0.32902E+01 
  65524.4470     0.32967E+01 
  65556.7091     0.33032E+01 
  65588.9713     0.33097E+01 
  65621.2334     0.33163E+01 
  65653.4956     0.33228E+01 
  65685.7578     0.33294E+01 
  65718.0199     0.33359E+01 
  65750.2821     0.33425E+01 
  65782.5442     0.33491E+01 
  65814.8064     0.33557E+01 
  65847.0686     0.33623E+01 
  65879.3307     0.33689E+01 
  65911.5929     0.33756E+01 
  65943.8550     0.33822E+01 
  65976.1172     0.33888E+01 
  66008.3794     0.33955E+01 
  66040.6415     0.34022E+01 
  66072.9037     0.34088E+01 
  66105.1658     0.34155E+01 
  66137.4280     0.34222E+01 
  66169.6902     0.34289E+01 
  66201.9523     0.34356E+01 
  66234.2145     0.34424E+01 
  66266.4766     0.34491E+01 
  66298.7388     0.34558E+01 
  66331.0010     0.34626E+01 
  66363.2631     0.34694E+01 
  66395.5253     0.34761E+01 
  66427.7874     0.34829E+01 
  66460.0496     0.34897E+01 
  66492.3118     0.34965E+01 
  66524.5739     0.35033E+01 
  66556.8361     0.35101E+01 
  66589.0982     0.35170E+01 
  66621.3604     0.35238E+01 
  66653.6226     0.35307E+01 
  66685.8847     0.35375E+01 
  66718.1469     0.35444E+01 
  66750.4090     0.35513E+01 
  66782.6712     0.35582E+01 
  66814.9334     0.35651E+01 
  66847.1955     0.35720E+01 
  66879.4577     0.35789E+01 
  66911.7198     0.35859E+01 
  66943.9820     0.35928E+01 
  66976.2442     0.35998E+01 
  67008.5063     0.36067E+01 
  67040.7685     0.36137E+01 
  67073.0306     0.36207E+01 
  67105.2928     0.36277E+01 
  67137.5550     0.36347E+01 
  67169.8171     0.36417E+01 
  67202.0793     0.36487E+01 
  67234.3414     0.36557E+01 
  67266.6036     0.36628E+01 
  67298.8658     0.36698E+01 
  67331.1279     0.36769E+01 
  67363.3901     0.36840E+01 
  67395.6522     0.36911E+01 
  67427.9144     0.36982E+01 
  67460.1766     0.37053E+01 
  67492.4387     0.37124E+01 
  67524.7009     0.37195E+01 
  67556.9630     0.37266E+01 
  67589.2252     0.37338E+01 
  67621.4874     0.37409E+01 
  67653.7495     0.37481E+01 
  67686.0117     0.37553E+01 
  67718.2738     0.37625E+01 
  67750.5360     0.37697E+01 
  67782.7982     0.37769E+01 
  67815.0603     0.37841E+01 
  67847.3225     0.37913E+01 
  67879.5846     0.37985E+01 
  67911.8468     0.38058E+01 
  67944.1090     0.38131E+01 
  67976.3711     0.38203E+01 
  68008.6333     0.38276E+01 
  68040.8954     0.38349E+01 
  68073.1576     0.38422E+01 
  68105.4198     0.38495E+01 
  68137.6819     0.38568E+01 
  68169.9441     0.38641E+01 
  68202.2062     0.38715E+01 
  68234.4684     0.38788E+01 
  68266.7306     0.38862E+01 
  68298.9927     0.38936E+01 
  68331.2549     0.39010E+01 
  68363.5170     0.39084E+01 
  68395.7792     0.39158E+01 
  68428.0414     0.39232E+01 
  68460.3035     0.39306E+01 
  68492.5657     0.39380E+01 
  68524.8278     0.39455E+01 
  68557.0900     0.39529E+01 
  68589.3522     0.39604E+01 
  68621.6143     0.39679E+01 
  68653.8765     0.39754E+01 
  68686.1386     0.39829E+01 
  68718.4008     0.39904E+01 
  68750.6630     0.39979E+01 
  68782.9251     0.40054E+01 
  68815.1873     0.40130E+01 
  68847.4494     0.40205E+01 
  68879.7116     0.40281E+01 
  68911.9738     0.40356E+01 
  68944.2359     0.40432E+01 
  68976.4981     0.40508E+01 
  69008.7602     0.40584E+01 
  69041.0224     0.40660E+01 
  69073.2846     0.40737E+01 
  69105.5467     0.40813E+01 
  69137.8089     0.40890E+01 
  69170.0710     0.40966E+01 
  69202.3332     0.41043E+01 
  69234.5954     0.41120E+01 
  69266.8575     0.41197E+01 
  69299.1197     0.41274E+01 
  69331.3818     0.41351E+01 
  69363.6440     0.41428E+01 
  69395.9062     0.41505E+01 
  69428.1683     0.41583E+01 
  69460.4305     0.41660E+01 
  69492.6926     0.41738E+01 
  69524.9548     0.41816E+01 
  69557.2170     0.41893E+01 
  69589.4791     0.41971E+01 
  69621.7413     0.42050E+01 
  69654.0034     0.42128E+01 
  69686.2656     0.42206E+01 
  69718.5278     0.42284E+01 
  69750.7899     0.42363E+01 
  69783.0521     0.42442E+01 
  69815.3142     0.42520E+01 
  69847.5764     0.42599E+01 
  69879.8386     0.42678E+01 
  69912.1007     0.42757E+01 
  69944.3629     0.42836E+01 
  69976.6250     0.42916E+01 
  70008.8872     0.42995E+01 
  70041.1494     0.43075E+01 
  70073.4115     0.43154E+01 
  70105.6737     0.43234E+01 
  70137.9358     0.43314E+01 
  70170.1980     0.43394E+01 
  70202.4602     0.43474E+01 
  70234.7223     0.43554E+01 
  70266.9845     0.43634E+01 
  70299.2466     0.43715E+01 
  70331.5088     0.43795E+01 
  70363.7710     0.43876E+01 
  70396.0331     0.43956E+01 
  70428.2953     0.44037E+01 
  70460.5574     0.44118E+01 
  70492.8196     0.44199E+01 
  70525.0818     0.44280E+01 
  70557.3439     0.44362E+01 
  70589.6061     0.44443E+01 
  70621.8682     0.44525E+01 
  70654.1304     0.44606E+01 
  70686.3926     0.44688E+01 
  70718.6547     0.44770E+01 
  70750.9169     0.44852E+01 
  70783.1790     0.44934E+01 
  70815.4412     0.45016E+01 
  70847.7034     0.45098E+01 
  70879.9655     0.45181E+01 
  70912.2277     0.45263E+01 
  70944.4898     0.45346E+01 
  70976.7520     0.45428E+01 
  71009.0142     0.45511E+01 
  71041.2763     0.45594E+01 
  71073.5385     0.45677E+01 
  71105.8006     0.45761E+01 
  71138.0628     0.45844E+01 
  71170.3250     0.45927E+01 
  71202.5871     0.46011E+01 
  71234.8493     0.46094E+01 
  71267.1114     0.46178E+01 
  71299.3736     0.46262E+01 
  71331.6358     0.46346E+01 
  71363.8979     0.46430E+01 
  71396.1601     0.46514E+01 
  71428.4222     0.46599E+01 
  71460.6844     0.46683E+01 
  71492.9466     0.46768E+01 
  71525.2087     0.46852E+01 
  71557.4709     0.46937E+01 
  71589.7330     0.47022E+01 
  71621.9952     0.47107E+01 
  71654.2574     0.47192E+01 
  71686.5195     0.47277E+01 
  71718.7817     0.47363E+01 
  71751.0438     0.47448E+01 
  71783.3060     0.47534E+01 
  71815.5682     0.47620E+01 
  71847.8303     0.47705E+01 
  71880.0925     0.47791E+01 
  71912.3546     0.47877E+01 
  71944.6168     0.47963E+01 
  71976.8790     0.48050E+01 
  72009.1411     0.48136E+01 
  72041.4033     0.48223E+01 
  72073.6654     0.48309E+01 
  72105.9276     0.48396E+01 
  72138.1898     0.48483E+01 
  72170.4519     0.48570E+01 
  72202.7141     0.48657E+01 
  72234.9762     0.48744E+01 
  72267.2384     0.48832E+01 
  72299.5006     0.48919E+01 
  72331.7627     0.49007E+01 
  72364.0249     0.49094E+01 
  72396.2870     0.49182E+01 
  72428.5492     0.49270E+01 
  72460.8114     0.49358E+01 
  72493.0735     0.49446E+01 
  72525.3357     0.49534E+01 
  72557.5978     0.49623E+01 
  72589.8600     0.49711E+01 
