  32262.1600     0.55002E-03 
  32294.4222     0.55671E-03 
  32326.6843     0.56346E-03 
  32358.9465     0.57026E-03 
  32391.2086     0.57712E-03 
  32423.4708     0.58403E-03 
  32455.7330     0.59100E-03 
  32487.9951     0.59802E-03 
  32520.2573     0.60510E-03 
  32552.5194     0.61224E-03 
  32584.7816     0.61943E-03 
  32617.0438     0.62668E-03 
  32649.3059     0.63398E-03 
  32681.5681     0.64134E-03 
  32713.8302     0.64875E-03 
  32746.0924     0.65622E-03 
  32778.3546     0.66375E-03 
  32810.6167     0.67133E-03 
  32842.8789     0.67897E-03 
  32875.1410     0.68666E-03 
  32907.4032     0.69441E-03 
  32939.6654     0.70221E-03 
  32971.9275     0.71007E-03 
  33004.1897     0.71799E-03 
  33036.4518     0.72596E-03 
  33068.7140     0.73399E-03 
  33100.9762     0.74207E-03 
  33133.2383     0.75020E-03 
  33165.5005     0.75839E-03 
  33197.7626     0.76664E-03 
  33230.0248     0.77494E-03 
  33262.2870     0.78330E-03 
  33294.5491     0.79171E-03 
  33326.8113     0.80017E-03 
  33359.0734     0.80869E-03 
  33391.3356     0.81727E-03 
  33423.5978     0.82589E-03 
  33455.8599     0.83458E-03 
  33488.1221     0.84331E-03 
  33520.3842     0.85210E-03 
  33552.6464     0.86094E-03 
  33584.9086     0.86984E-03 
  33617.1707     0.87878E-03 
  33649.4329     0.88778E-03 
  33681.6950     0.89684E-03 
  33713.9572     0.90594E-03 
  33746.2194     0.91510E-03 
  33778.4815     0.92431E-03 
  33810.7437     0.93357E-03 
  33843.0058     0.94288E-03 
  33875.2680     0.95224E-03 
  33907.5302     0.96166E-03 
  33939.7923     0.97112E-03 
  33972.0545     0.98063E-03 
  34004.3166     0.99020E-03 
  34036.5788     0.99981E-03 
  34068.8410     0.10095E-02 
  34101.1031     0.10192E-02 
  34133.3653     0.10289E-02 
  34165.6274     0.10388E-02 
  34197.8896     0.10486E-02 
  34230.1518     0.10585E-02 
  34262.4139     0.10685E-02 
  34294.6761     0.10785E-02 
  34326.9382     0.10885E-02 
  34359.2004     0.10986E-02 
  34391.4626     0.11087E-02 
  34423.7247     0.11189E-02 
  34455.9869     0.11291E-02 
  34488.2490     0.11394E-02 
  34520.5112     0.11497E-02 
  34552.7734     0.11601E-02 
  34585.0355     0.11705E-02 
  34617.2977     0.11809E-02 
  34649.5598     0.11914E-02 
  34681.8220     0.12019E-02 
  34714.0842     0.12125E-02 
  34746.3463     0.12231E-02 
  34778.6085     0.12338E-02 
  34810.8706     0.12445E-02 
  34843.1328     0.12552E-02 
  34875.3950     0.12660E-02 
  34907.6571     0.12768E-02 
  34939.9193     0.12876E-02 
  34972.1814     0.12985E-02 
  35004.4436     0.13094E-02 
  35036.7058     0.13204E-02 
  35068.9679     0.13314E-02 
  35101.2301     0.13424E-02 
  35133.4922     0.13535E-02 
  35165.7544     0.13646E-02 
  35198.0166     0.13757E-02 
  35230.2787     0.13868E-02 
  35262.5409     0.13980E-02 
  35294.8030     0.14093E-02 
  35327.0652     0.14205E-02 
  35359.3274     0.14318E-02 
  35391.5895     0.14431E-02 
  35423.8517     0.14545E-02 
  35456.1138     0.14658E-02 
  35488.3760     0.14772E-02 
  35520.6382     0.14887E-02 
  35552.9003     0.15001E-02 
  35585.1625     0.15116E-02 
  35617.4246     0.15231E-02 
  35649.6868     0.15347E-02 
  35681.9490     0.15462E-02 
  35714.2111     0.15578E-02 
  35746.4733     0.15694E-02 
  35778.7354     0.15810E-02 
  35810.9976     0.15927E-02 
  35843.2598     0.16043E-02 
  35875.5219     0.16160E-02 
  35907.7841     0.16277E-02 
  35940.0462     0.16395E-02 
  35972.3084     0.16512E-02 
  36004.5706     0.16630E-02 
  36036.8327     0.16747E-02 
  36069.0949     0.16865E-02 
  36101.3570     0.16983E-02 
  36133.6192     0.17101E-02 
  36165.8814     0.17220E-02 
  36198.1435     0.17338E-02 
  36230.4057     0.17457E-02 
  36262.6678     0.17575E-02 
  36294.9300     0.17694E-02 
  36327.1922     0.17813E-02 
  36359.4543     0.17932E-02 
  36391.7165     0.18051E-02 
  36423.9786     0.18170E-02 
  36456.2408     0.18289E-02 
  36488.5030     0.18409E-02 
  36520.7651     0.18528E-02 
  36553.0273     0.18647E-02 
  36585.2894     0.18767E-02 
  36617.5516     0.18886E-02 
  36649.8138     0.19005E-02 
  36682.0759     0.19125E-02 
  36714.3381     0.19244E-02 
  36746.6002     0.19364E-02 
  36778.8624     0.19483E-02 
  36811.1246     0.19602E-02 
  36843.3867     0.19721E-02 
  36875.6489     0.19841E-02 
  36907.9110     0.19960E-02 
  36940.1732     0.20079E-02 
  36972.4354     0.20198E-02 
  37004.6975     0.20317E-02 
  37036.9597     0.20436E-02 
  37069.2218     0.20555E-02 
  37101.4840     0.20674E-02 
  37133.7462     0.20792E-02 
  37166.0083     0.20911E-02 
  37198.2705     0.21029E-02 
  37230.5326     0.21147E-02 
  37262.7948     0.21265E-02 
  37295.0570     0.21383E-02 
  37327.3191     0.21501E-02 
  37359.5813     0.21619E-02 
  37391.8434     0.21736E-02 
  37424.1056     0.21853E-02 
  37456.3678     0.21970E-02 
  37488.6299     0.22087E-02 
  37520.8921     0.22204E-02 
  37553.1542     0.22320E-02 
  37585.4164     0.22436E-02 
  37617.6786     0.22552E-02 
  37649.9407     0.22668E-02 
  37682.2029     0.22783E-02 
  37714.4650     0.22899E-02 
  37746.7272     0.23013E-02 
  37778.9894     0.23128E-02 
  37811.2515     0.23242E-02 
  37843.5137     0.23356E-02 
  37875.7758     0.23470E-02 
  37908.0380     0.23584E-02 
  37940.3002     0.23697E-02 
  37972.5623     0.23809E-02 
  38004.8245     0.23922E-02 
  38037.0866     0.24034E-02 
  38069.3488     0.24146E-02 
  38101.6110     0.24257E-02 
  38133.8731     0.24368E-02 
  38166.1353     0.24478E-02 
  38198.3974     0.24589E-02 
  38230.6596     0.24698E-02 
  38262.9218     0.24808E-02 
  38295.1839     0.24917E-02 
  38327.4461     0.25025E-02 
  38359.7082     0.25133E-02 
  38391.9704     0.25241E-02 
  38424.2326     0.25348E-02 
  38456.4947     0.25455E-02 
  38488.7569     0.25561E-02 
  38521.0190     0.25667E-02 
  38553.2812     0.25773E-02 
  38585.5434     0.25877E-02 
  38617.8055     0.25982E-02 
  38650.0677     0.26086E-02 
  38682.3298     0.26189E-02 
  38714.5920     0.26292E-02 
  38746.8542     0.26394E-02 
  38779.1163     0.26496E-02 
  38811.3785     0.26597E-02 
  38843.6406     0.26698E-02 
  38875.9028     0.26798E-02 
  38908.1650     0.26897E-02 
  38940.4271     0.26996E-02 
  38972.6893     0.27095E-02 
  39004.9514     0.27193E-02 
  39037.2136     0.27290E-02 
  39069.4758     0.27386E-02 
  39101.7379     0.27482E-02 
  39134.0001     0.27578E-02 
  39166.2622     0.27673E-02 
  39198.5244     0.27767E-02 
  39230.7866     0.27860E-02 
  39263.0487     0.27953E-02 
  39295.3109     0.28045E-02 
  39327.5730     0.28137E-02 
  39359.8352     0.28228E-02 
  39392.0974     0.28318E-02 
  39424.3595     0.28407E-02 
  39456.6217     0.28496E-02 
  39488.8838     0.28584E-02 
  39521.1460     0.28672E-02 
  39553.4082     0.28759E-02 
  39585.6703     0.28845E-02 
  39617.9325     0.28930E-02 
  39650.1946     0.29015E-02 
  39682.4568     0.29098E-02 
  39714.7190     0.29182E-02 
  39746.9811     0.29264E-02 
  39779.2433     0.29346E-02 
  39811.5054     0.29426E-02 
  39843.7676     0.29507E-02 
  39876.0298     0.29586E-02 
  39908.2919     0.29665E-02 
  39940.5541     0.29742E-02 
  39972.8162     0.29819E-02 
  40005.0784     0.29896E-02 
  40037.3406     0.29971E-02 
  40069.6027     0.30046E-02 
  40101.8649     0.30120E-02 
  40134.1270     0.30193E-02 
  40166.3892     0.30265E-02 
  40198.6514     0.30336E-02 
  40230.9135     0.30407E-02 
  40263.1757     0.30477E-02 
  40295.4378     0.30546E-02 
  40327.7000     0.30614E-02 
  40359.9622     0.30681E-02 
  40392.2243     0.30747E-02 
  40424.4865     0.30813E-02 
  40456.7486     0.30878E-02 
  40489.0108     0.30942E-02 
  40521.2730     0.31005E-02 
  40553.5351     0.31067E-02 
  40585.7973     0.31128E-02 
  40618.0594     0.31188E-02 
  40650.3216     0.31248E-02 
  40682.5838     0.31306E-02 
  40714.8459     0.31364E-02 
  40747.1081     0.31421E-02 
  40779.3702     0.31477E-02 
  40811.6324     0.31532E-02 
  40843.8946     0.31586E-02 
  40876.1567     0.31639E-02 
  40908.4189     0.31692E-02 
  40940.6810     0.31743E-02 
  40972.9432     0.31794E-02 
  41005.2054     0.31843E-02 
  41037.4675     0.31892E-02 
  41069.7297     0.31940E-02 
  41101.9918     0.31987E-02 
  41134.2540     0.32033E-02 
  41166.5162     0.32078E-02 
  41198.7783     0.32122E-02 
  41231.0405     0.32165E-02 
  41263.3026     0.32207E-02 
  41295.5648     0.32248E-02 
  41327.8270     0.32289E-02 
  41360.0891     0.32328E-02 
  41392.3513     0.32367E-02 
  41424.6134     0.32404E-02 
  41456.8756     0.32441E-02 
  41489.1378     0.32476E-02 
  41521.3999     0.32511E-02 
  41553.6621     0.32545E-02 
  41585.9242     0.32578E-02 
  41618.1864     0.32609E-02 
  41650.4486     0.32640E-02 
  41682.7107     0.32670E-02 
  41714.9729     0.32699E-02 
  41747.2350     0.32727E-02 
  41779.4972     0.32754E-02 
  41811.7594     0.32780E-02 
  41844.0215     0.32805E-02 
  41876.2837     0.32830E-02 
  41908.5458     0.32853E-02 
  41940.8080     0.32875E-02 
  41973.0702     0.32896E-02 
  42005.3323     0.32917E-02 
  42037.5945     0.32936E-02 
  42069.8566     0.32954E-02 
  42102.1188     0.32972E-02 
  42134.3810     0.32988E-02 
  42166.6431     0.33004E-02 
  42198.9053     0.33019E-02 
  42231.1674     0.33032E-02 
  42263.4296     0.33045E-02 
  42295.6918     0.33057E-02 
  42327.9539     0.33067E-02 
  42360.2161     0.33077E-02 
  42392.4782     0.33086E-02 
  42424.7404     0.33094E-02 
  42457.0026     0.33101E-02 
  42489.2647     0.33107E-02 
  42521.5269     0.33112E-02 
  42553.7890     0.33116E-02 
  42586.0512     0.33119E-02 
  42618.3134     0.33121E-02 
  42650.5755     0.33122E-02 
  42682.8377     0.33123E-02 
  42715.0998     0.33122E-02 
  42747.3620     0.33121E-02 
  42779.6242     0.33118E-02 
  42811.8863     0.33115E-02 
  42844.1485     0.33110E-02 
  42876.4106     0.33105E-02 
  42908.6728     0.33099E-02 
  42940.9350     0.33091E-02 
  42973.1971     0.33083E-02 
  43005.4593     0.33074E-02 
  43037.7214     0.33064E-02 
  43069.9836     0.33053E-02 
  43102.2458     0.33042E-02 
  43134.5079     0.33029E-02 
  43166.7701     0.33015E-02 
  43199.0322     0.33001E-02 
  43231.2944     0.32985E-02 
  43263.5566     0.32969E-02 
  43295.8187     0.32952E-02 
  43328.0809     0.32934E-02 
  43360.3430     0.32914E-02 
  43392.6052     0.32895E-02 
  43424.8674     0.32874E-02 
  43457.1295     0.32852E-02 
  43489.3917     0.32829E-02 
  43521.6538     0.32806E-02 
  43553.9160     0.32782E-02 
  43586.1782     0.32756E-02 
  43618.4403     0.32730E-02 
  43650.7025     0.32703E-02 
  43682.9646     0.32676E-02 
  43715.2268     0.32647E-02 
  43747.4890     0.32618E-02 
  43779.7511     0.32587E-02 
  43812.0133     0.32556E-02 
  43844.2754     0.32524E-02 
  43876.5376     0.32491E-02 
  43908.7998     0.32457E-02 
  43941.0619     0.32423E-02 
  43973.3241     0.32387E-02 
  44005.5862     0.32351E-02 
  44037.8484     0.32314E-02 
  44070.1106     0.32276E-02 
  44102.3727     0.32238E-02 
  44134.6349     0.32198E-02 
  44166.8970     0.32158E-02 
  44199.1592     0.32117E-02 
  44231.4214     0.32075E-02 
  44263.6835     0.32033E-02 
  44295.9457     0.31989E-02 
  44328.2078     0.31945E-02 
  44360.4700     0.31900E-02 
  44392.7322     0.31855E-02 
  44424.9943     0.31808E-02 
  44457.2565     0.31761E-02 
  44489.5186     0.31713E-02 
  44521.7808     0.31665E-02 
  44554.0430     0.31615E-02 
  44586.3051     0.31565E-02 
  44618.5673     0.31514E-02 
  44650.8294     0.31462E-02 
  44683.0916     0.31410E-02 
  44715.3538     0.31357E-02 
  44747.6159     0.31303E-02 
  44779.8781     0.31249E-02 
  44812.1402     0.31194E-02 
  44844.4024     0.31138E-02 
  44876.6646     0.31081E-02 
  44908.9267     0.31024E-02 
  44941.1889     0.30966E-02 
  44973.4510     0.30907E-02 
  45005.7132     0.30848E-02 
  45037.9754     0.30788E-02 
  45070.2375     0.30728E-02 
  45102.4997     0.30666E-02 
  45134.7618     0.30605E-02 
  45167.0240     0.30542E-02 
  45199.2862     0.30479E-02 
  45231.5483     0.30415E-02 
  45263.8105     0.30351E-02 
  45296.0726     0.30286E-02 
  45328.3348     0.30220E-02 
  45360.5970     0.30154E-02 
  45392.8591     0.30087E-02 
  45425.1213     0.30020E-02 
  45457.3834     0.29952E-02 
  45489.6456     0.29883E-02 
  45521.9078     0.29814E-02 
  45554.1699     0.29744E-02 
  45586.4321     0.29674E-02 
  45618.6942     0.29603E-02 
  45650.9564     0.29532E-02 
  45683.2186     0.29460E-02 
  45715.4807     0.29387E-02 
  45747.7429     0.29314E-02 
  45780.0050     0.29241E-02 
  45812.2672     0.29167E-02 
  45844.5294     0.29092E-02 
  45876.7915     0.29017E-02 
  45909.0537     0.28941E-02 
  45941.3158     0.28865E-02 
  45973.5780     0.28789E-02 
  46005.8402     0.28712E-02 
  46038.1023     0.28634E-02 
  46070.3645     0.28556E-02 
  46102.6266     0.28478E-02 
  46134.8888     0.28399E-02 
  46167.1510     0.28319E-02 
  46199.4131     0.28239E-02 
  46231.6753     0.28159E-02 
  46263.9374     0.28078E-02 
  46296.1996     0.27997E-02 
  46328.4618     0.27916E-02 
  46360.7239     0.27834E-02 
  46392.9861     0.27751E-02 
  46425.2482     0.27668E-02 
  46457.5104     0.27585E-02 
  46489.7726     0.27501E-02 
  46522.0347     0.27417E-02 
  46554.2969     0.27333E-02 
  46586.5590     0.27248E-02 
  46618.8212     0.27163E-02 
  46651.0834     0.27077E-02 
  46683.3455     0.26992E-02 
  46715.6077     0.26905E-02 
  46747.8698     0.26819E-02 
  46780.1320     0.26732E-02 
  46812.3942     0.26645E-02 
  46844.6563     0.26557E-02 
  46876.9185     0.26469E-02 
  46909.1806     0.26381E-02 
  46941.4428     0.26292E-02 
  46973.7050     0.26203E-02 
  47005.9671     0.26114E-02 
  47038.2293     0.26025E-02 
  47070.4914     0.25935E-02 
  47102.7536     0.25845E-02 
  47135.0158     0.25755E-02 
  47167.2779     0.25664E-02 
  47199.5401     0.25573E-02 
  47231.8022     0.25482E-02 
  47264.0644     0.25391E-02 
  47296.3266     0.25299E-02 
  47328.5887     0.25208E-02 
  47360.8509     0.25116E-02 
  47393.1130     0.25023E-02 
  47425.3752     0.24931E-02 
  47457.6374     0.24838E-02 
  47489.8995     0.24745E-02 
  47522.1617     0.24652E-02 
  47554.4238     0.24559E-02 
  47586.6860     0.24465E-02 
  47618.9482     0.24371E-02 
  47651.2103     0.24278E-02 
  47683.4725     0.24183E-02 
  47715.7346     0.24089E-02 
  47747.9968     0.23995E-02 
  47780.2590     0.23900E-02 
  47812.5211     0.23805E-02 
  47844.7833     0.23710E-02 
  47877.0454     0.23615E-02 
  47909.3076     0.23520E-02 
  47941.5698     0.23425E-02 
  47973.8319     0.23329E-02 
  48006.0941     0.23234E-02 
  48038.3562     0.23138E-02 
  48070.6184     0.23042E-02 
  48102.8806     0.22947E-02 
  48135.1427     0.22850E-02 
  48167.4049     0.22754E-02 
  48199.6670     0.22658E-02 
  48231.9292     0.22562E-02 
  48264.1914     0.22465E-02 
  48296.4535     0.22369E-02 
  48328.7157     0.22272E-02 
  48360.9778     0.22176E-02 
  48393.2400     0.22079E-02 
  48425.5022     0.21983E-02 
  48457.7643     0.21886E-02 
  48490.0265     0.21789E-02 
  48522.2886     0.21692E-02 
  48554.5508     0.21595E-02 
  48586.8130     0.21498E-02 
  48619.0751     0.21401E-02 
  48651.3373     0.21304E-02 
  48683.5994     0.21207E-02 
  48715.8616     0.21110E-02 
  48748.1238     0.21013E-02 
  48780.3859     0.20916E-02 
  48812.6481     0.20819E-02 
  48844.9102     0.20722E-02 
  48877.1724     0.20625E-02 
  48909.4346     0.20528E-02 
  48941.6967     0.20431E-02 
  48973.9589     0.20334E-02 
  49006.2210     0.20237E-02 
  49038.4832     0.20140E-02 
  49070.7454     0.20043E-02 
  49103.0075     0.19947E-02 
  49135.2697     0.19850E-02 
  49167.5318     0.19753E-02 
  49199.7940     0.19656E-02 
  49232.0562     0.19560E-02 
  49264.3183     0.19463E-02 
  49296.5805     0.19367E-02 
  49328.8426     0.19270E-02 
  49361.1048     0.19174E-02 
  49393.3670     0.19078E-02 
  49425.6291     0.18981E-02 
  49457.8913     0.18885E-02 
  49490.1534     0.18789E-02 
  49522.4156     0.18693E-02 
  49554.6778     0.18597E-02 
  49586.9399     0.18502E-02 
  49619.2021     0.18406E-02 
  49651.4642     0.18310E-02 
  49683.7264     0.18215E-02 
  49715.9886     0.18120E-02 
  49748.2507     0.18024E-02 
  49780.5129     0.17929E-02 
  49812.7750     0.17834E-02 
  49845.0372     0.17740E-02 
  49877.2994     0.17645E-02 
  49909.5615     0.17550E-02 
  49941.8237     0.17456E-02 
  49974.0858     0.17362E-02 
  50006.3480     0.17267E-02 
  50038.6102     0.17173E-02 
  50070.8723     0.17080E-02 
  50103.1345     0.16986E-02 
  50135.3966     0.16892E-02 
  50167.6588     0.16799E-02 
  50199.9210     0.16706E-02 
  50232.1831     0.16613E-02 
  50264.4453     0.16520E-02 
  50296.7074     0.16427E-02 
  50328.9696     0.16335E-02 
  50361.2318     0.16242E-02 
  50393.4939     0.16150E-02 
  50425.7561     0.16058E-02 
  50458.0182     0.15967E-02 
  50490.2804     0.15875E-02 
  50522.5426     0.15784E-02 
  50554.8047     0.15692E-02 
  50587.0669     0.15601E-02 
  50619.3290     0.15511E-02 
  50651.5912     0.15420E-02 
  50683.8534     0.15330E-02 
  50716.1155     0.15239E-02 
  50748.3777     0.15149E-02 
  50780.6398     0.15060E-02 
  50812.9020     0.14970E-02 
  50845.1642     0.14881E-02 
  50877.4263     0.14792E-02 
  50909.6885     0.14703E-02 
  50941.9506     0.14614E-02 
  50974.2128     0.14526E-02 
  51006.4750     0.14438E-02 
  51038.7371     0.14350E-02 
  51070.9993     0.14262E-02 
  51103.2614     0.14174E-02 
  51135.5236     0.14087E-02 
  51167.7858     0.14000E-02 
  51200.0479     0.13913E-02 
  51232.3101     0.13827E-02 
  51264.5722     0.13741E-02 
  51296.8344     0.13655E-02 
  51329.0966     0.13569E-02 
  51361.3587     0.13483E-02 
  51393.6209     0.13398E-02 
  51425.8830     0.13313E-02 
  51458.1452     0.13228E-02 
  51490.4074     0.13144E-02 
  51522.6695     0.13060E-02 
  51554.9317     0.12976E-02 
  51587.1938     0.12892E-02 
  51619.4560     0.12808E-02 
  51651.7182     0.12725E-02 
  51683.9803     0.12642E-02 
  51716.2425     0.12560E-02 
  51748.5046     0.12477E-02 
  51780.7668     0.12395E-02 
  51813.0290     0.12313E-02 
  51845.2911     0.12232E-02 
  51877.5533     0.12151E-02 
  51909.8154     0.12070E-02 
  51942.0776     0.11989E-02 
  51974.3398     0.11909E-02 
  52006.6019     0.11828E-02 
  52038.8641     0.11749E-02 
  52071.1262     0.11669E-02 
  52103.3884     0.11590E-02 
  52135.6506     0.11511E-02 
  52167.9127     0.11432E-02 
  52200.1749     0.11354E-02 
  52232.4370     0.11276E-02 
  52264.6992     0.11198E-02 
  52296.9614     0.11120E-02 
  52329.2235     0.11043E-02 
  52361.4857     0.10966E-02 
  52393.7478     0.10889E-02 
  52426.0100     0.10813E-02 
  52458.2722     0.10737E-02 
  52490.5343     0.10661E-02 
  52522.7965     0.10586E-02 
  52555.0586     0.10511E-02 
  52587.3208     0.10436E-02 
  52619.5830     0.10361E-02 
  52651.8451     0.10287E-02 
  52684.1073     0.10213E-02 
  52716.3694     0.10139E-02 
  52748.6316     0.10066E-02 
  52780.8938     0.99928E-03 
  52813.1559     0.99201E-03 
  52845.4181     0.98476E-03 
  52877.6802     0.97755E-03 
  52909.9424     0.97037E-03 
  52942.2046     0.96321E-03 
  52974.4667     0.95609E-03 
  53006.7289     0.94900E-03 
  53038.9910     0.94194E-03 
  53071.2532     0.93491E-03 
  53103.5154     0.92791E-03 
  53135.7775     0.92095E-03 
  53168.0397     0.91401E-03 
  53200.3018     0.90711E-03 
  53232.5640     0.90023E-03 
  53264.8262     0.89339E-03 
  53297.0883     0.88657E-03 
  53329.3505     0.87979E-03 
  53361.6126     0.87304E-03 
  53393.8748     0.86632E-03 
  53426.1370     0.85964E-03 
  53458.3991     0.85298E-03 
  53490.6613     0.84635E-03 
  53522.9234     0.83976E-03 
  53555.1856     0.83319E-03 
  53587.4478     0.82666E-03 
  53619.7099     0.82016E-03 
  53651.9721     0.81369E-03 
  53684.2342     0.80725E-03 
  53716.4964     0.80084E-03 
  53748.7586     0.79446E-03 
  53781.0207     0.78812E-03 
  53813.2829     0.78180E-03 
  53845.5450     0.77552E-03 
  53877.8072     0.76926E-03 
  53910.0694     0.76304E-03 
  53942.3315     0.75685E-03 
  53974.5937     0.75069E-03 
  54006.8558     0.74456E-03 
  54039.1180     0.73847E-03 
  54071.3802     0.73240E-03 
  54103.6423     0.72636E-03 
  54135.9045     0.72036E-03 
  54168.1666     0.71438E-03 
  54200.4288     0.70844E-03 
  54232.6910     0.70253E-03 
  54264.9531     0.69665E-03 
  54297.2153     0.69080E-03 
  54329.4774     0.68497E-03 
  54361.7396     0.67919E-03 
  54394.0018     0.67343E-03 
  54426.2639     0.66770E-03 
  54458.5261     0.66200E-03 
  54490.7882     0.65633E-03 
  54523.0504     0.65070E-03 
  54555.3126     0.64509E-03 
  54587.5747     0.63951E-03 
  54619.8369     0.63397E-03 
  54652.0990     0.62845E-03 
  54684.3612     0.62297E-03 
  54716.6234     0.61751E-03 
  54748.8855     0.61209E-03 
  54781.1477     0.60669E-03 
  54813.4098     0.60133E-03 
  54845.6720     0.59599E-03 
  54877.9342     0.59069E-03 
  54910.1963     0.58541E-03 
  54942.4585     0.58016E-03 
  54974.7206     0.57495E-03 
  55006.9828     0.56976E-03 
  55039.2450     0.56461E-03 
  55071.5071     0.55948E-03 
  55103.7693     0.55438E-03 
  55136.0314     0.54931E-03 
  55168.2936     0.54427E-03 
  55200.5558     0.53926E-03 
  55232.8179     0.53428E-03 
  55265.0801     0.52933E-03 
  55297.3422     0.52441E-03 
  55329.6044     0.51952E-03 
  55361.8666     0.51465E-03 
  55394.1287     0.50982E-03 
  55426.3909     0.50501E-03 
  55458.6530     0.50023E-03 
  55490.9152     0.49548E-03 
  55523.1774     0.49076E-03 
  55555.4395     0.48607E-03 
  55587.7017     0.48140E-03 
  55619.9638     0.47677E-03 
  55652.2260     0.47216E-03 
  55684.4882     0.46758E-03 
  55716.7503     0.46303E-03 
  55749.0125     0.45850E-03 
  55781.2746     0.45401E-03 
  55813.5368     0.44954E-03 
  55845.7990     0.44510E-03 
  55878.0611     0.44069E-03 
  55910.3233     0.43630E-03 
  55942.5854     0.43194E-03 
  55974.8476     0.42761E-03 
  56007.1098     0.42331E-03 
  56039.3719     0.41904E-03 
  56071.6341     0.41479E-03 
  56103.8962     0.41057E-03 
  56136.1584     0.40637E-03 
  56168.4206     0.40220E-03 
  56200.6827     0.39806E-03 
  56232.9449     0.39395E-03 
  56265.2070     0.38986E-03 
  56297.4692     0.38580E-03 
  56329.7314     0.38177E-03 
  56361.9935     0.37776E-03 
  56394.2557     0.37378E-03 
  56426.5178     0.36982E-03 
  56458.7800     0.36589E-03 
  56491.0422     0.36199E-03 
  56523.3043     0.35811E-03 
  56555.5665     0.35426E-03 
  56587.8286     0.35043E-03 
  56620.0908     0.34663E-03 
  56652.3530     0.34285E-03 
  56684.6151     0.33910E-03 
  56716.8773     0.33538E-03 
  56749.1394     0.33168E-03 
  56781.4016     0.32801E-03 
  56813.6638     0.32436E-03 
  56845.9259     0.32073E-03 
  56878.1881     0.31713E-03 
  56910.4502     0.31356E-03 
  56942.7124     0.31001E-03 
  56974.9746     0.30649E-03 
  57007.2367     0.30298E-03 
  57039.4989     0.29951E-03 
  57071.7610     0.29606E-03 
  57104.0232     0.29263E-03 
  57136.2854     0.28923E-03 
  57168.5475     0.28585E-03 
  57200.8097     0.28249E-03 
  57233.0718     0.27916E-03 
  57265.3340     0.27585E-03 
  57297.5962     0.27257E-03 
  57329.8583     0.26931E-03 
  57362.1205     0.26607E-03 
  57394.3826     0.26286E-03 
  57426.6448     0.25967E-03 
  57458.9070     0.25650E-03 
  57491.1691     0.25336E-03 
  57523.4313     0.25024E-03 
  57555.6934     0.24714E-03 
  57587.9556     0.24406E-03 
  57620.2178     0.24101E-03 
  57652.4799     0.23798E-03 
  57684.7421     0.23497E-03 
  57717.0042     0.23199E-03 
  57749.2664     0.22903E-03 
  57781.5286     0.22609E-03 
  57813.7907     0.22317E-03 
  57846.0529     0.22028E-03 
  57878.3150     0.21740E-03 
  57910.5772     0.21455E-03 
  57942.8394     0.21172E-03 
  57975.1015     0.20892E-03 
  58007.3637     0.20613E-03 
  58039.6258     0.20337E-03 
  58071.8880     0.20062E-03 
  58104.1502     0.19790E-03 
  58136.4123     0.19520E-03 
  58168.6745     0.19253E-03 
  58200.9366     0.18987E-03 
  58233.1988     0.18723E-03 
  58265.4610     0.18462E-03 
  58297.7231     0.18202E-03 
  58329.9853     0.17945E-03 
  58362.2474     0.17690E-03 
  58394.5096     0.17437E-03 
  58426.7718     0.17186E-03 
  58459.0339     0.16937E-03 
  58491.2961     0.16690E-03 
  58523.5582     0.16445E-03 
  58555.8204     0.16202E-03 
  58588.0826     0.15961E-03 
  58620.3447     0.15723E-03 
  58652.6069     0.15486E-03 
  58684.8690     0.15251E-03 
  58717.1312     0.15018E-03 
  58749.3934     0.14788E-03 
  58781.6555     0.14559E-03 
  58813.9177     0.14332E-03 
  58846.1798     0.14107E-03 
  58878.4420     0.13885E-03 
  58910.7042     0.13664E-03 
  58942.9663     0.13445E-03 
  58975.2285     0.13228E-03 
  59007.4906     0.13013E-03 
  59039.7528     0.12800E-03 
  59072.0150     0.12589E-03 
  59104.2771     0.12379E-03 
  59136.5393     0.12172E-03 
  59168.8014     0.11967E-03 
  59201.0636     0.11763E-03 
  59233.3258     0.11562E-03 
  59265.5879     0.11362E-03 
  59297.8501     0.11164E-03 
  59330.1122     0.10968E-03 
  59362.3744     0.10774E-03 
  59394.6366     0.10582E-03 
  59426.8987     0.10392E-03 
  59459.1609     0.10203E-03 
  59491.4230     0.10017E-03 
  59523.6852     0.98322E-04 
  59555.9474     0.96494E-04 
  59588.2095     0.94685E-04 
  59620.4717     0.92893E-04 
  59652.7338     0.91121E-04 
  59684.9960     0.89366E-04 
  59717.2582     0.87630E-04 
  59749.5203     0.85912E-04 
  59781.7825     0.84213E-04 
  59814.0446     0.82532E-04 
  59846.3068     0.80869E-04 
  59878.5690     0.79224E-04 
  59910.8311     0.77597E-04 
  59943.0933     0.75989E-04 
  59975.3554     0.74399E-04 
  60007.6176     0.72826E-04 
  60039.8798     0.71272E-04 
  60072.1419     0.69736E-04 
  60104.4041     0.68218E-04 
  60136.6662     0.66718E-04 
  60168.9284     0.65236E-04 
  60201.1906     0.63772E-04 
  60233.4527     0.62326E-04 
  60265.7149     0.60898E-04 
  60297.9770     0.59488E-04 
  60330.2392     0.58096E-04 
  60362.5014     0.56722E-04 
  60394.7635     0.55365E-04 
  60427.0257     0.54027E-04 
  60459.2878     0.52707E-04 
  60491.5500     0.51405E-04 
  60523.8122     0.50120E-04 
  60556.0743     0.48854E-04 
  60588.3365     0.47606E-04 
  60620.5986     0.46376E-04 
  60652.8608     0.45164E-04 
  60685.1230     0.43969E-04 
  60717.3851     0.42793E-04 
  60749.6473     0.41635E-04 
  60781.9094     0.40496E-04 
  60814.1716     0.39374E-04 
  60846.4338     0.38271E-04 
  60878.6959     0.37185E-04 
  60910.9581     0.36119E-04 
  60943.2202     0.35070E-04 
  60975.4824     0.34040E-04 
  61007.7446     0.33028E-04 
  61040.0067     0.32034E-04 
  61072.2689     0.31059E-04 
  61104.5310     0.30103E-04 
  61136.7932     0.29165E-04 
  61169.0554     0.28246E-04 
  61201.3175     0.27346E-04 
  61233.5797     0.26464E-04 
  61265.8418     0.25601E-04 
  61298.1040     0.24758E-04 
  61330.3662     0.23933E-04 
  61362.6283     0.23127E-04 
  61394.8905     0.22341E-04 
  61427.1526     0.21573E-04 
  61459.4148     0.20825E-04 
  61491.6770     0.20097E-04 
  61523.9391     0.19388E-04 
  61556.2013     0.18698E-04 
  61588.4634     0.18029E-04 
  61620.7256     0.17379E-04 
  61652.9878     0.16749E-04 
  61685.2499     0.16139E-04 
  61717.5121     0.15550E-04 
  61749.7742     0.14981E-04 
  61782.0364     0.14432E-04 
  61814.2986     0.13903E-04 
  61846.5607     0.13396E-04 
  61878.8229     0.12909E-04 
  61911.0850     0.12443E-04 
  61943.3472     0.11999E-04 
  61975.6094     0.11575E-04 
  62007.8715     0.11174E-04 
  62040.1337     0.10793E-04 
  62072.3958     0.10435E-04 
  62104.6580     0.10098E-04 
  62136.9202     0.97838E-05 
  62169.1823     0.94916E-05 
  62201.4445     0.92220E-05 
  62233.7066     0.89750E-05 
  62265.9688     0.87510E-05 
  62298.2310     0.85500E-05 
  62330.4931     0.83723E-05 
  62362.7553     0.82181E-05 
  62395.0174     0.80877E-05 
  62427.2796     0.79812E-05 
  62459.5418     0.78988E-05 
  62491.8039     0.78410E-05 
  62524.0661     0.78077E-05 
  62556.3282     0.77994E-05 
  62588.5904     0.78163E-05 
  62620.8526     0.78586E-05 
  62653.1147     0.79266E-05 
  62685.3769     0.80206E-05 
  62717.6390     0.81408E-05 
  62749.9012     0.82876E-05 
  62782.1634     0.84612E-05 
  62814.4255     0.86620E-05 
  62846.6877     0.88902E-05 
  62878.9498     0.91462E-05 
  62911.2120     0.94303E-05 
  62943.4742     0.97428E-05 
  62975.7363     0.10084E-04 
  63007.9985     0.10455E-04 
  63040.2606     0.10854E-04 
  63072.5228     0.11284E-04 
  63104.7850     0.11744E-04 
  63137.0471     0.12235E-04 
  63169.3093     0.12756E-04 
  63201.5714     0.13309E-04 
  63233.8336     0.13893E-04 
  63266.0958     0.14510E-04 
  63298.3579     0.15160E-04 
  63330.6201     0.15842E-04 
  63362.8822     0.16558E-04 
  63395.1444     0.17308E-04 
  63427.4066     0.18092E-04 
  63459.6687     0.18911E-04 
  63491.9309     0.19766E-04 
  63524.1930     0.20656E-04 
  63556.4552     0.21582E-04 
  63588.7174     0.22546E-04 
  63620.9795     0.23546E-04 
  63653.2417     0.24585E-04 
  63685.5038     0.25662E-04 
  63717.7660     0.26778E-04 
  63750.0282     0.27934E-04 
  63782.2903     0.29129E-04 
  63814.5525     0.30365E-04 
  63846.8146     0.31643E-04 
  63879.0768     0.32963E-04 
  63911.3390     0.34325E-04 
  63943.6011     0.35730E-04 
  63975.8633     0.37179E-04 
  64008.1254     0.38672E-04 
  64040.3876     0.40211E-04 
  64072.6498     0.41795E-04 
  64104.9119     0.43426E-04 
  64137.1741     0.45104E-04 
  64169.4362     0.46829E-04 
  64201.6984     0.48604E-04 
  64233.9606     0.50428E-04 
  64266.2227     0.52302E-04 
  64298.4849     0.54227E-04 
  64330.7470     0.56204E-04 
  64363.0092     0.58233E-04 
  64395.2714     0.60316E-04 
  64427.5335     0.62452E-04 
  64459.7957     0.64644E-04 
  64492.0578     0.66892E-04 
  64524.3200     0.69197E-04 
  64556.5822     0.71559E-04 
  64588.8443     0.73979E-04 
  64621.1065     0.76460E-04 
  64653.3686     0.79000E-04 
  64685.6308     0.81603E-04 
  64717.8930     0.84267E-04 
  64750.1551     0.86995E-04 
  64782.4173     0.89787E-04 
  64814.6794     0.92645E-04 
  64846.9416     0.95569E-04 
  64879.2038     0.98561E-04 
  64911.4659     0.10162E-03 
  64943.7281     0.10475E-03 
  64975.9902     0.10795E-03 
  65008.2524     0.11122E-03 
  65040.5146     0.11457E-03 
  65072.7767     0.11799E-03 
  65105.0389     0.12149E-03 
  65137.3010     0.12506E-03 
  65169.5632     0.12871E-03 
  65201.8254     0.13244E-03 
  65234.0875     0.13625E-03 
  65266.3497     0.14014E-03 
  65298.6118     0.14411E-03 
  65330.8740     0.14817E-03 
  65363.1362     0.15232E-03 
  65395.3983     0.15655E-03 
  65427.6605     0.16087E-03 
  65459.9226     0.16528E-03 
  65492.1848     0.16978E-03 
  65524.4470     0.17438E-03 
  65556.7091     0.17906E-03 
  65588.9713     0.18385E-03 
  65621.2334     0.18873E-03 
  65653.4956     0.19371E-03 
  65685.7578     0.19879E-03 
  65718.0199     0.20398E-03 
  65750.2821     0.20926E-03 
  65782.5442     0.21466E-03 
  65814.8064     0.22016E-03 
  65847.0686     0.22576E-03 
  65879.3307     0.23148E-03 
  65911.5929     0.23731E-03 
  65943.8550     0.24326E-03 
  65976.1172     0.24932E-03 
  66008.3794     0.25550E-03 
  66040.6415     0.26179E-03 
  66072.9037     0.26821E-03 
  66105.1658     0.27476E-03 
  66137.4280     0.28142E-03 
  66169.6902     0.28822E-03 
  66201.9523     0.29514E-03 
  66234.2145     0.30219E-03 
  66266.4766     0.30938E-03 
  66298.7388     0.31670E-03 
  66331.0010     0.32416E-03 
  66363.2631     0.33176E-03 
  66395.5253     0.33951E-03 
  66427.7874     0.34739E-03 
  66460.0496     0.35542E-03 
  66492.3118     0.36360E-03 
  66524.5739     0.37193E-03 
  66556.8361     0.38041E-03 
  66589.0982     0.38905E-03 
  66621.3604     0.39784E-03 
  66653.6226     0.40679E-03 
  66685.8847     0.41591E-03 
  66718.1469     0.42519E-03 
  66750.4090     0.43464E-03 
  66782.6712     0.44426E-03 
  66814.9334     0.45404E-03 
  66847.1955     0.46401E-03 
  66879.4577     0.47415E-03 
  66911.7198     0.48447E-03 
  66943.9820     0.49497E-03 
  66976.2442     0.50566E-03 
  67008.5063     0.51654E-03 
  67040.7685     0.52760E-03 
  67073.0306     0.53887E-03 
  67105.2928     0.55032E-03 
  67137.5550     0.56198E-03 
  67169.8171     0.57383E-03 
  67202.0793     0.58590E-03 
  67234.3414     0.59817E-03 
  67266.6036     0.61065E-03 
  67298.8658     0.62334E-03 
  67331.1279     0.63625E-03 
  67363.3901     0.64938E-03 
  67395.6522     0.66274E-03 
  67427.9144     0.67631E-03 
  67460.1766     0.69012E-03 
  67492.4387     0.70416E-03 
  67524.7009     0.71844E-03 
  67556.9630     0.73296E-03 
  67589.2252     0.74771E-03 
  67621.4874     0.76272E-03 
  67653.7495     0.77797E-03 
  67686.0117     0.79347E-03 
  67718.2738     0.80923E-03 
  67750.5360     0.82525E-03 
  67782.7982     0.84153E-03 
  67815.0603     0.85808E-03 
  67847.3225     0.87489E-03 
  67879.5846     0.89198E-03 
  67911.8468     0.90935E-03 
  67944.1090     0.92700E-03 
  67976.3711     0.94493E-03 
  68008.6333     0.96314E-03 
  68040.8954     0.98165E-03 
  68073.1576     0.10005E-02 
  68105.4198     0.10196E-02 
  68137.6819     0.10390E-02 
  68169.9441     0.10587E-02 
  68202.2062     0.10787E-02 
  68234.4684     0.10991E-02 
  68266.7306     0.11197E-02 
  68298.9927     0.11407E-02 
  68331.2549     0.11620E-02 
  68363.5170     0.11836E-02 
  68395.7792     0.12056E-02 
  68428.0414     0.12279E-02 
  68460.3035     0.12506E-02 
  68492.5657     0.12736E-02 
  68524.8278     0.12969E-02 
  68557.0900     0.13206E-02 
  68589.3522     0.13447E-02 
  68621.6143     0.13691E-02 
  68653.8765     0.13939E-02 
  68686.1386     0.14191E-02 
  68718.4008     0.14447E-02 
  68750.6630     0.14706E-02 
  68782.9251     0.14969E-02 
  68815.1873     0.15236E-02 
  68847.4494     0.15507E-02 
  68879.7116     0.15782E-02 
  68911.9738     0.16062E-02 
  68944.2359     0.16345E-02 
  68976.4981     0.16632E-02 
  69008.7602     0.16924E-02 
  69041.0224     0.17219E-02 
  69073.2846     0.17519E-02 
  69105.5467     0.17824E-02 
  69137.8089     0.18132E-02 
  69170.0710     0.18445E-02 
  69202.3332     0.18763E-02 
  69234.5954     0.19085E-02 
  69266.8575     0.19411E-02 
  69299.1197     0.19743E-02 
  69331.3818     0.20078E-02 
  69363.6440     0.20419E-02 
  69395.9062     0.20764E-02 
  69428.1683     0.21114E-02 
  69460.4305     0.21469E-02 
  69492.6926     0.21829E-02 
  69524.9548     0.22194E-02 
  69557.2170     0.22564E-02 
  69589.4791     0.22939E-02 
  69621.7413     0.23319E-02 
  69654.0034     0.23704E-02 
  69686.2656     0.24094E-02 
  69718.5278     0.24489E-02 
  69750.7899     0.24890E-02 
  69783.0521     0.25296E-02 
  69815.3142     0.25708E-02 
  69847.5764     0.26125E-02 
  69879.8386     0.26547E-02 
  69912.1007     0.26975E-02 
  69944.3629     0.27409E-02 
  69976.6250     0.27848E-02 
  70008.8872     0.28293E-02 
  70041.1494     0.28744E-02 
  70073.4115     0.29200E-02 
  70105.6737     0.29663E-02 
  70137.9358     0.30131E-02 
  70170.1980     0.30605E-02 
  70202.4602     0.31086E-02 
  70234.7223     0.31572E-02 
  70266.9845     0.32064E-02 
  70299.2466     0.32563E-02 
  70331.5088     0.33068E-02 
  70363.7710     0.33579E-02 
  70396.0331     0.34096E-02 
  70428.2953     0.34620E-02 
  70460.5574     0.35150E-02 
  70492.8196     0.35686E-02 
  70525.0818     0.36230E-02 
  70557.3439     0.36779E-02 
  70589.6061     0.37335E-02 
  70621.8682     0.37898E-02 
  70654.1304     0.38468E-02 
  70686.3926     0.39044E-02 
  70718.6547     0.39628E-02 
  70750.9169     0.40218E-02 
  70783.1790     0.40815E-02 
  70815.4412     0.41419E-02 
  70847.7034     0.42030E-02 
  70879.9655     0.42648E-02 
  70912.2277     0.43273E-02 
  70944.4898     0.43905E-02 
  70976.7520     0.44545E-02 
  71009.0142     0.45192E-02 
  71041.2763     0.45846E-02 
  71073.5385     0.46507E-02 
  71105.8006     0.47176E-02 
  71138.0628     0.47852E-02 
  71170.3250     0.48536E-02 
  71202.5871     0.49227E-02 
  71234.8493     0.49926E-02 
  71267.1114     0.50633E-02 
  71299.3736     0.51347E-02 
  71331.6358     0.52069E-02 
  71363.8979     0.52798E-02 
  71396.1601     0.53536E-02 
  71428.4222     0.54281E-02 
  71460.6844     0.55034E-02 
  71492.9466     0.55795E-02 
  71525.2087     0.56564E-02 
  71557.4709     0.57341E-02 
  71589.7330     0.58126E-02 
  71621.9952     0.58920E-02 
  71654.2574     0.59721E-02 
  71686.5195     0.60530E-02 
  71718.7817     0.61348E-02 
  71751.0438     0.62174E-02 
  71783.3060     0.63008E-02 
  71815.5682     0.63851E-02 
  71847.8303     0.64702E-02 
  71880.0925     0.65561E-02 
  71912.3546     0.66429E-02 
  71944.6168     0.67306E-02 
  71976.8790     0.68190E-02 
  72009.1411     0.69084E-02 
  72041.4033     0.69986E-02 
  72073.6654     0.70896E-02 
  72105.9276     0.71815E-02 
  72138.1898     0.72743E-02 
  72170.4519     0.73679E-02 
  72202.7141     0.74625E-02 
  72234.9762     0.75579E-02 
  72267.2384     0.76541E-02 
  72299.5006     0.77513E-02 
  72331.7627     0.78493E-02 
  72364.0249     0.79483E-02 
  72396.2870     0.80481E-02 
  72428.5492     0.81488E-02 
  72460.8114     0.82504E-02 
  72493.0735     0.83529E-02 
  72525.3357     0.84563E-02 
  72557.5978     0.85606E-02 
  72589.8600     0.86658E-02 
