  32262.1600     0.59779E-05 
  32294.4222     0.60539E-05 
  32326.6843     0.61306E-05 
  32358.9465     0.62079E-05 
  32391.2086     0.62859E-05 
  32423.4708     0.63646E-05 
  32455.7330     0.64439E-05 
  32487.9951     0.65239E-05 
  32520.2573     0.66045E-05 
  32552.5194     0.66859E-05 
  32584.7816     0.67679E-05 
  32617.0438     0.68505E-05 
  32649.3059     0.69339E-05 
  32681.5681     0.70179E-05 
  32713.8302     0.71025E-05 
  32746.0924     0.71879E-05 
  32778.3546     0.72739E-05 
  32810.6167     0.73606E-05 
  32842.8789     0.74479E-05 
  32875.1410     0.75360E-05 
  32907.4032     0.76246E-05 
  32939.6654     0.77140E-05 
  32971.9275     0.78040E-05 
  33004.1897     0.78947E-05 
  33036.4518     0.79861E-05 
  33068.7140     0.80781E-05 
  33100.9762     0.81708E-05 
  33133.2383     0.82641E-05 
  33165.5005     0.83582E-05 
  33197.7626     0.84528E-05 
  33230.0248     0.85482E-05 
  33262.2870     0.86442E-05 
  33294.5491     0.87408E-05 
  33326.8113     0.88381E-05 
  33359.0734     0.89361E-05 
  33391.3356     0.90347E-05 
  33423.5978     0.91339E-05 
  33455.8599     0.92338E-05 
  33488.1221     0.93344E-05 
  33520.3842     0.94356E-05 
  33552.6464     0.95374E-05 
  33584.9086     0.96398E-05 
  33617.1707     0.97430E-05 
  33649.4329     0.98467E-05 
  33681.6950     0.99511E-05 
  33713.9572     0.10056E-04 
  33746.2194     0.10162E-04 
  33778.4815     0.10268E-04 
  33810.7437     0.10375E-04 
  33843.0058     0.10482E-04 
  33875.2680     0.10590E-04 
  33907.5302     0.10699E-04 
  33939.7923     0.10808E-04 
  33972.0545     0.10918E-04 
  34004.3166     0.11029E-04 
  34036.5788     0.11140E-04 
  34068.8410     0.11252E-04 
  34101.1031     0.11364E-04 
  34133.3653     0.11477E-04 
  34165.6274     0.11590E-04 
  34197.8896     0.11704E-04 
  34230.1518     0.11819E-04 
  34262.4139     0.11934E-04 
  34294.6761     0.12049E-04 
  34326.9382     0.12166E-04 
  34359.2004     0.12282E-04 
  34391.4626     0.12400E-04 
  34423.7247     0.12518E-04 
  34455.9869     0.12636E-04 
  34488.2490     0.12755E-04 
  34520.5112     0.12875E-04 
  34552.7734     0.12995E-04 
  34585.0355     0.13115E-04 
  34617.2977     0.13236E-04 
  34649.5598     0.13358E-04 
  34681.8220     0.13480E-04 
  34714.0842     0.13602E-04 
  34746.3463     0.13725E-04 
  34778.6085     0.13849E-04 
  34810.8706     0.13972E-04 
  34843.1328     0.14097E-04 
  34875.3950     0.14222E-04 
  34907.6571     0.14347E-04 
  34939.9193     0.14473E-04 
  34972.1814     0.14599E-04 
  35004.4436     0.14726E-04 
  35036.7058     0.14853E-04 
  35068.9679     0.14980E-04 
  35101.2301     0.15108E-04 
  35133.4922     0.15236E-04 
  35165.7544     0.15365E-04 
  35198.0166     0.15494E-04 
  35230.2787     0.15624E-04 
  35262.5409     0.15753E-04 
  35294.8030     0.15884E-04 
  35327.0652     0.16014E-04 
  35359.3274     0.16145E-04 
  35391.5895     0.16276E-04 
  35423.8517     0.16408E-04 
  35456.1138     0.16540E-04 
  35488.3760     0.16672E-04 
  35520.6382     0.16805E-04 
  35552.9003     0.16937E-04 
  35585.1625     0.17071E-04 
  35617.4246     0.17204E-04 
  35649.6868     0.17338E-04 
  35681.9490     0.17472E-04 
  35714.2111     0.17606E-04 
  35746.4733     0.17741E-04 
  35778.7354     0.17875E-04 
  35810.9976     0.18010E-04 
  35843.2598     0.18145E-04 
  35875.5219     0.18281E-04 
  35907.7841     0.18417E-04 
  35940.0462     0.18552E-04 
  35972.3084     0.18688E-04 
  36004.5706     0.18825E-04 
  36036.8327     0.18961E-04 
  36069.0949     0.19098E-04 
  36101.3570     0.19234E-04 
  36133.6192     0.19371E-04 
  36165.8814     0.19508E-04 
  36198.1435     0.19645E-04 
  36230.4057     0.19782E-04 
  36262.6678     0.19920E-04 
  36294.9300     0.20057E-04 
  36327.1922     0.20195E-04 
  36359.4543     0.20332E-04 
  36391.7165     0.20470E-04 
  36423.9786     0.20608E-04 
  36456.2408     0.20745E-04 
  36488.5030     0.20883E-04 
  36520.7651     0.21021E-04 
  36553.0273     0.21159E-04 
  36585.2894     0.21297E-04 
  36617.5516     0.21434E-04 
  36649.8138     0.21572E-04 
  36682.0759     0.21710E-04 
  36714.3381     0.21848E-04 
  36746.6002     0.21985E-04 
  36778.8624     0.22123E-04 
  36811.1246     0.22261E-04 
  36843.3867     0.22398E-04 
  36875.6489     0.22536E-04 
  36907.9110     0.22673E-04 
  36940.1732     0.22810E-04 
  36972.4354     0.22947E-04 
  37004.6975     0.23084E-04 
  37036.9597     0.23221E-04 
  37069.2218     0.23358E-04 
  37101.4840     0.23494E-04 
  37133.7462     0.23631E-04 
  37166.0083     0.23767E-04 
  37198.2705     0.23903E-04 
  37230.5326     0.24039E-04 
  37262.7948     0.24174E-04 
  37295.0570     0.24310E-04 
  37327.3191     0.24445E-04 
  37359.5813     0.24580E-04 
  37391.8434     0.24714E-04 
  37424.1056     0.24849E-04 
  37456.3678     0.24983E-04 
  37488.6299     0.25117E-04 
  37520.8921     0.25250E-04 
  37553.1542     0.25383E-04 
  37585.4164     0.25516E-04 
  37617.6786     0.25649E-04 
  37649.9407     0.25781E-04 
  37682.2029     0.25913E-04 
  37714.4650     0.26044E-04 
  37746.7272     0.26175E-04 
  37778.9894     0.26306E-04 
  37811.2515     0.26437E-04 
  37843.5137     0.26566E-04 
  37875.7758     0.26696E-04 
  37908.0380     0.26825E-04 
  37940.3002     0.26954E-04 
  37972.5623     0.27082E-04 
  38004.8245     0.27210E-04 
  38037.0866     0.27337E-04 
  38069.3488     0.27464E-04 
  38101.6110     0.27591E-04 
  38133.8731     0.27716E-04 
  38166.1353     0.27842E-04 
  38198.3974     0.27967E-04 
  38230.6596     0.28091E-04 
  38262.9218     0.28215E-04 
  38295.1839     0.28338E-04 
  38327.4461     0.28461E-04 
  38359.7082     0.28583E-04 
  38391.9704     0.28705E-04 
  38424.2326     0.28826E-04 
  38456.4947     0.28946E-04 
  38488.7569     0.29066E-04 
  38521.0190     0.29185E-04 
  38553.2812     0.29303E-04 
  38585.5434     0.29421E-04 
  38617.8055     0.29539E-04 
  38650.0677     0.29655E-04 
  38682.3298     0.29771E-04 
  38714.5920     0.29887E-04 
  38746.8542     0.30001E-04 
  38779.1163     0.30115E-04 
  38811.3785     0.30229E-04 
  38843.6406     0.30341E-04 
  38875.9028     0.30453E-04 
  38908.1650     0.30564E-04 
  38940.4271     0.30674E-04 
  38972.6893     0.30784E-04 
  39004.9514     0.30893E-04 
  39037.2136     0.31001E-04 
  39069.4758     0.31108E-04 
  39101.7379     0.31215E-04 
  39134.0001     0.31321E-04 
  39166.2622     0.31426E-04 
  39198.5244     0.31530E-04 
  39230.7866     0.31634E-04 
  39263.0487     0.31736E-04 
  39295.3109     0.31838E-04 
  39327.5730     0.31939E-04 
  39359.8352     0.32039E-04 
  39392.0974     0.32138E-04 
  39424.3595     0.32237E-04 
  39456.6217     0.32334E-04 
  39488.8838     0.32431E-04 
  39521.1460     0.32527E-04 
  39553.4082     0.32622E-04 
  39585.6703     0.32716E-04 
  39617.9325     0.32809E-04 
  39650.1946     0.32901E-04 
  39682.4568     0.32992E-04 
  39714.7190     0.33083E-04 
  39746.9811     0.33172E-04 
  39779.2433     0.33261E-04 
  39811.5054     0.33349E-04 
  39843.7676     0.33435E-04 
  39876.0298     0.33521E-04 
  39908.2919     0.33606E-04 
  39940.5541     0.33689E-04 
  39972.8162     0.33772E-04 
  40005.0784     0.33854E-04 
  40037.3406     0.33935E-04 
  40069.6027     0.34015E-04 
  40101.8649     0.34094E-04 
  40134.1270     0.34172E-04 
  40166.3892     0.34249E-04 
  40198.6514     0.34325E-04 
  40230.9135     0.34399E-04 
  40263.1757     0.34473E-04 
  40295.4378     0.34546E-04 
  40327.7000     0.34618E-04 
  40359.9622     0.34689E-04 
  40392.2243     0.34758E-04 
  40424.4865     0.34827E-04 
  40456.7486     0.34895E-04 
  40489.0108     0.34961E-04 
  40521.2730     0.35027E-04 
  40553.5351     0.35091E-04 
  40585.7973     0.35155E-04 
  40618.0594     0.35217E-04 
  40650.3216     0.35278E-04 
  40682.5838     0.35339E-04 
  40714.8459     0.35398E-04 
  40747.1081     0.35456E-04 
  40779.3702     0.35513E-04 
  40811.6324     0.35569E-04 
  40843.8946     0.35623E-04 
  40876.1567     0.35677E-04 
  40908.4189     0.35730E-04 
  40940.6810     0.35781E-04 
  40972.9432     0.35832E-04 
  41005.2054     0.35881E-04 
  41037.4675     0.35929E-04 
  41069.7297     0.35976E-04 
  41101.9918     0.36022E-04 
  41134.2540     0.36067E-04 
  41166.5162     0.36111E-04 
  41198.7783     0.36153E-04 
  41231.0405     0.36195E-04 
  41263.3026     0.36235E-04 
  41295.5648     0.36274E-04 
  41327.8270     0.36312E-04 
  41360.0891     0.36349E-04 
  41392.3513     0.36385E-04 
  41424.6134     0.36420E-04 
  41456.8756     0.36453E-04 
  41489.1378     0.36486E-04 
  41521.3999     0.36517E-04 
  41553.6621     0.36547E-04 
  41585.9242     0.36577E-04 
  41618.1864     0.36604E-04 
  41650.4486     0.36631E-04 
  41682.7107     0.36657E-04 
  41714.9729     0.36681E-04 
  41747.2350     0.36705E-04 
  41779.4972     0.36727E-04 
  41811.7594     0.36748E-04 
  41844.0215     0.36768E-04 
  41876.2837     0.36787E-04 
  41908.5458     0.36805E-04 
  41940.8080     0.36821E-04 
  41973.0702     0.36837E-04 
  42005.3323     0.36851E-04 
  42037.5945     0.36864E-04 
  42069.8566     0.36876E-04 
  42102.1188     0.36887E-04 
  42134.3810     0.36897E-04 
  42166.6431     0.36906E-04 
  42198.9053     0.36913E-04 
  42231.1674     0.36920E-04 
  42263.4296     0.36925E-04 
  42295.6918     0.36929E-04 
  42327.9539     0.36932E-04 
  42360.2161     0.36934E-04 
  42392.4782     0.36935E-04 
  42424.7404     0.36935E-04 
  42457.0026     0.36934E-04 
  42489.2647     0.36931E-04 
  42521.5269     0.36927E-04 
  42553.7890     0.36923E-04 
  42586.0512     0.36917E-04 
  42618.3134     0.36910E-04 
  42650.5755     0.36902E-04 
  42682.8377     0.36893E-04 
  42715.0998     0.36883E-04 
  42747.3620     0.36872E-04 
  42779.6242     0.36859E-04 
  42811.8863     0.36846E-04 
  42844.1485     0.36831E-04 
  42876.4106     0.36816E-04 
  42908.6728     0.36799E-04 
  42940.9350     0.36781E-04 
  42973.1971     0.36763E-04 
  43005.4593     0.36743E-04 
  43037.7214     0.36722E-04 
  43069.9836     0.36700E-04 
  43102.2458     0.36677E-04 
  43134.5079     0.36653E-04 
  43166.7701     0.36628E-04 
  43199.0322     0.36602E-04 
  43231.2944     0.36575E-04 
  43263.5566     0.36547E-04 
  43295.8187     0.36517E-04 
  43328.0809     0.36487E-04 
  43360.3430     0.36456E-04 
  43392.6052     0.36424E-04 
  43424.8674     0.36390E-04 
  43457.1295     0.36356E-04 
  43489.3917     0.36321E-04 
  43521.6538     0.36285E-04 
  43553.9160     0.36248E-04 
  43586.1782     0.36209E-04 
  43618.4403     0.36170E-04 
  43650.7025     0.36130E-04 
  43682.9646     0.36089E-04 
  43715.2268     0.36047E-04 
  43747.4890     0.36004E-04 
  43779.7511     0.35960E-04 
  43812.0133     0.35915E-04 
  43844.2754     0.35869E-04 
  43876.5376     0.35823E-04 
  43908.7998     0.35775E-04 
  43941.0619     0.35726E-04 
  43973.3241     0.35677E-04 
  44005.5862     0.35626E-04 
  44037.8484     0.35575E-04 
  44070.1106     0.35523E-04 
  44102.3727     0.35470E-04 
  44134.6349     0.35416E-04 
  44166.8970     0.35361E-04 
  44199.1592     0.35305E-04 
  44231.4214     0.35248E-04 
  44263.6835     0.35191E-04 
  44295.9457     0.35133E-04 
  44328.2078     0.35073E-04 
  44360.4700     0.35013E-04 
  44392.7322     0.34953E-04 
  44424.9943     0.34891E-04 
  44457.2565     0.34828E-04 
  44489.5186     0.34765E-04 
  44521.7808     0.34701E-04 
  44554.0430     0.34636E-04 
  44586.3051     0.34570E-04 
  44618.5673     0.34504E-04 
  44650.8294     0.34436E-04 
  44683.0916     0.34368E-04 
  44715.3538     0.34299E-04 
  44747.6159     0.34230E-04 
  44779.8781     0.34159E-04 
  44812.1402     0.34088E-04 
  44844.4024     0.34016E-04 
  44876.6646     0.33944E-04 
  44908.9267     0.33870E-04 
  44941.1889     0.33796E-04 
  44973.4510     0.33722E-04 
  45005.7132     0.33646E-04 
  45037.9754     0.33570E-04 
  45070.2375     0.33493E-04 
  45102.4997     0.33416E-04 
  45134.7618     0.33337E-04 
  45167.0240     0.33259E-04 
  45199.2862     0.33179E-04 
  45231.5483     0.33099E-04 
  45263.8105     0.33018E-04 
  45296.0726     0.32936E-04 
  45328.3348     0.32854E-04 
  45360.5970     0.32771E-04 
  45392.8591     0.32688E-04 
  45425.1213     0.32604E-04 
  45457.3834     0.32519E-04 
  45489.6456     0.32434E-04 
  45521.9078     0.32348E-04 
  45554.1699     0.32262E-04 
  45586.4321     0.32175E-04 
  45618.6942     0.32088E-04 
  45650.9564     0.31999E-04 
  45683.2186     0.31911E-04 
  45715.4807     0.31822E-04 
  45747.7429     0.31732E-04 
  45780.0050     0.31642E-04 
  45812.2672     0.31551E-04 
  45844.5294     0.31459E-04 
  45876.7915     0.31368E-04 
  45909.0537     0.31275E-04 
  45941.3158     0.31182E-04 
  45973.5780     0.31089E-04 
  46005.8402     0.30995E-04 
  46038.1023     0.30901E-04 
  46070.3645     0.30806E-04 
  46102.6266     0.30711E-04 
  46134.8888     0.30615E-04 
  46167.1510     0.30519E-04 
  46199.4131     0.30423E-04 
  46231.6753     0.30326E-04 
  46263.9374     0.30228E-04 
  46296.1996     0.30131E-04 
  46328.4618     0.30032E-04 
  46360.7239     0.29934E-04 
  46392.9861     0.29835E-04 
  46425.2482     0.29735E-04 
  46457.5104     0.29635E-04 
  46489.7726     0.29535E-04 
  46522.0347     0.29435E-04 
  46554.2969     0.29334E-04 
  46586.5590     0.29233E-04 
  46618.8212     0.29131E-04 
  46651.0834     0.29029E-04 
  46683.3455     0.28927E-04 
  46715.6077     0.28824E-04 
  46747.8698     0.28721E-04 
  46780.1320     0.28618E-04 
  46812.3942     0.28515E-04 
  46844.6563     0.28411E-04 
  46876.9185     0.28307E-04 
  46909.1806     0.28203E-04 
  46941.4428     0.28098E-04 
  46973.7050     0.27993E-04 
  47005.9671     0.27888E-04 
  47038.2293     0.27782E-04 
  47070.4914     0.27677E-04 
  47102.7536     0.27571E-04 
  47135.0158     0.27465E-04 
  47167.2779     0.27358E-04 
  47199.5401     0.27252E-04 
  47231.8022     0.27145E-04 
  47264.0644     0.27038E-04 
  47296.3266     0.26931E-04 
  47328.5887     0.26823E-04 
  47360.8509     0.26716E-04 
  47393.1130     0.26608E-04 
  47425.3752     0.26500E-04 
  47457.6374     0.26392E-04 
  47489.8995     0.26284E-04 
  47522.1617     0.26175E-04 
  47554.4238     0.26067E-04 
  47586.6860     0.25958E-04 
  47618.9482     0.25849E-04 
  47651.2103     0.25740E-04 
  47683.4725     0.25631E-04 
  47715.7346     0.25522E-04 
  47747.9968     0.25413E-04 
  47780.2590     0.25303E-04 
  47812.5211     0.25194E-04 
  47844.7833     0.25084E-04 
  47877.0454     0.24975E-04 
  47909.3076     0.24865E-04 
  47941.5698     0.24755E-04 
  47973.8319     0.24645E-04 
  48006.0941     0.24535E-04 
  48038.3562     0.24425E-04 
  48070.6184     0.24315E-04 
  48102.8806     0.24205E-04 
  48135.1427     0.24095E-04 
  48167.4049     0.23985E-04 
  48199.6670     0.23874E-04 
  48231.9292     0.23764E-04 
  48264.1914     0.23654E-04 
  48296.4535     0.23544E-04 
  48328.7157     0.23433E-04 
  48360.9778     0.23323E-04 
  48393.2400     0.23213E-04 
  48425.5022     0.23103E-04 
  48457.7643     0.22992E-04 
  48490.0265     0.22882E-04 
  48522.2886     0.22772E-04 
  48554.5508     0.22662E-04 
  48586.8130     0.22552E-04 
  48619.0751     0.22442E-04 
  48651.3373     0.22332E-04 
  48683.5994     0.22222E-04 
  48715.8616     0.22112E-04 
  48748.1238     0.22002E-04 
  48780.3859     0.21892E-04 
  48812.6481     0.21783E-04 
  48844.9102     0.21673E-04 
  48877.1724     0.21564E-04 
  48909.4346     0.21454E-04 
  48941.6967     0.21345E-04 
  48973.9589     0.21236E-04 
  49006.2210     0.21126E-04 
  49038.4832     0.21017E-04 
  49070.7454     0.20909E-04 
  49103.0075     0.20800E-04 
  49135.2697     0.20691E-04 
  49167.5318     0.20582E-04 
  49199.7940     0.20474E-04 
  49232.0562     0.20366E-04 
  49264.3183     0.20258E-04 
  49296.5805     0.20150E-04 
  49328.8426     0.20042E-04 
  49361.1048     0.19934E-04 
  49393.3670     0.19826E-04 
  49425.6291     0.19719E-04 
  49457.8913     0.19612E-04 
  49490.1534     0.19505E-04 
  49522.4156     0.19398E-04 
  49554.6778     0.19291E-04 
  49586.9399     0.19185E-04 
  49619.2021     0.19078E-04 
  49651.4642     0.18972E-04 
  49683.7264     0.18866E-04 
  49715.9886     0.18760E-04 
  49748.2507     0.18655E-04 
  49780.5129     0.18549E-04 
  49812.7750     0.18444E-04 
  49845.0372     0.18339E-04 
  49877.2994     0.18234E-04 
  49909.5615     0.18130E-04 
  49941.8237     0.18025E-04 
  49974.0858     0.17921E-04 
  50006.3480     0.17817E-04 
  50038.6102     0.17714E-04 
  50070.8723     0.17610E-04 
  50103.1345     0.17507E-04 
  50135.3966     0.17404E-04 
  50167.6588     0.17302E-04 
  50199.9210     0.17199E-04 
  50232.1831     0.17097E-04 
  50264.4453     0.16995E-04 
  50296.7074     0.16893E-04 
  50328.9696     0.16792E-04 
  50361.2318     0.16690E-04 
  50393.4939     0.16589E-04 
  50425.7561     0.16489E-04 
  50458.0182     0.16388E-04 
  50490.2804     0.16288E-04 
  50522.5426     0.16188E-04 
  50554.8047     0.16089E-04 
  50587.0669     0.15989E-04 
  50619.3290     0.15890E-04 
  50651.5912     0.15792E-04 
  50683.8534     0.15693E-04 
  50716.1155     0.15595E-04 
  50748.3777     0.15497E-04 
  50780.6398     0.15399E-04 
  50812.9020     0.15302E-04 
  50845.1642     0.15205E-04 
  50877.4263     0.15108E-04 
  50909.6885     0.15012E-04 
  50941.9506     0.14916E-04 
  50974.2128     0.14820E-04 
  51006.4750     0.14724E-04 
  51038.7371     0.14629E-04 
  51070.9993     0.14534E-04 
  51103.2614     0.14439E-04 
  51135.5236     0.14345E-04 
  51167.7858     0.14251E-04 
  51200.0479     0.14158E-04 
  51232.3101     0.14064E-04 
  51264.5722     0.13971E-04 
  51296.8344     0.13878E-04 
  51329.0966     0.13786E-04 
  51361.3587     0.13694E-04 
  51393.6209     0.13602E-04 
  51425.8830     0.13511E-04 
  51458.1452     0.13420E-04 
  51490.4074     0.13329E-04 
  51522.6695     0.13239E-04 
  51554.9317     0.13149E-04 
  51587.1938     0.13059E-04 
  51619.4560     0.12970E-04 
  51651.7182     0.12880E-04 
  51683.9803     0.12792E-04 
  51716.2425     0.12703E-04 
  51748.5046     0.12615E-04 
  51780.7668     0.12528E-04 
  51813.0290     0.12440E-04 
  51845.2911     0.12353E-04 
  51877.5533     0.12267E-04 
  51909.8154     0.12180E-04 
  51942.0776     0.12094E-04 
  51974.3398     0.12009E-04 
  52006.6019     0.11923E-04 
  52038.8641     0.11838E-04 
  52071.1262     0.11754E-04 
  52103.3884     0.11670E-04 
  52135.6506     0.11586E-04 
  52167.9127     0.11502E-04 
  52200.1749     0.11419E-04 
  52232.4370     0.11336E-04 
  52264.6992     0.11254E-04 
  52296.9614     0.11172E-04 
  52329.2235     0.11090E-04 
  52361.4857     0.11009E-04 
  52393.7478     0.10928E-04 
  52426.0100     0.10847E-04 
  52458.2722     0.10767E-04 
  52490.5343     0.10687E-04 
  52522.7965     0.10607E-04 
  52555.0586     0.10528E-04 
  52587.3208     0.10449E-04 
  52619.5830     0.10370E-04 
  52651.8451     0.10292E-04 
  52684.1073     0.10214E-04 
  52716.3694     0.10137E-04 
  52748.6316     0.10060E-04 
  52780.8938     0.99831E-05 
  52813.1559     0.99068E-05 
  52845.4181     0.98308E-05 
  52877.6802     0.97551E-05 
  52909.9424     0.96799E-05 
  52942.2046     0.96050E-05 
  52974.4667     0.95304E-05 
  53006.7289     0.94562E-05 
  53038.9910     0.93824E-05 
  53071.2532     0.93089E-05 
  53103.5154     0.92358E-05 
  53135.7775     0.91631E-05 
  53168.0397     0.90907E-05 
  53200.3018     0.90187E-05 
  53232.5640     0.89471E-05 
  53264.8262     0.88758E-05 
  53297.0883     0.88048E-05 
  53329.3505     0.87343E-05 
  53361.6126     0.86641E-05 
  53393.8748     0.85942E-05 
  53426.1370     0.85247E-05 
  53458.3991     0.84556E-05 
  53490.6613     0.83868E-05 
  53522.9234     0.83184E-05 
  53555.1856     0.82503E-05 
  53587.4478     0.81827E-05 
  53619.7099     0.81153E-05 
  53651.9721     0.80483E-05 
  53684.2342     0.79817E-05 
  53716.4964     0.79154E-05 
  53748.7586     0.78495E-05 
  53781.0207     0.77840E-05 
  53813.2829     0.77188E-05 
  53845.5450     0.76539E-05 
  53877.8072     0.75895E-05 
  53910.0694     0.75253E-05 
  53942.3315     0.74615E-05 
  53974.5937     0.73981E-05 
  54006.8558     0.73350E-05 
  54039.1180     0.72723E-05 
  54071.3802     0.72099E-05 
  54103.6423     0.71479E-05 
  54135.9045     0.70862E-05 
  54168.1666     0.70249E-05 
  54200.4288     0.69639E-05 
  54232.6910     0.69033E-05 
  54264.9531     0.68430E-05 
  54297.2153     0.67831E-05 
  54329.4774     0.67235E-05 
  54361.7396     0.66642E-05 
  54394.0018     0.66053E-05 
  54426.2639     0.65467E-05 
  54458.5261     0.64885E-05 
  54490.7882     0.64306E-05 
  54523.0504     0.63731E-05 
  54555.3126     0.63159E-05 
  54587.5747     0.62590E-05 
  54619.8369     0.62025E-05 
  54652.0990     0.61463E-05 
  54684.3612     0.60905E-05 
  54716.6234     0.60350E-05 
  54748.8855     0.59798E-05 
  54781.1477     0.59249E-05 
  54813.4098     0.58704E-05 
  54845.6720     0.58162E-05 
  54877.9342     0.57624E-05 
  54910.1963     0.57089E-05 
  54942.4585     0.56557E-05 
  54974.7206     0.56028E-05 
  55006.9828     0.55503E-05 
  55039.2450     0.54981E-05 
  55071.5071     0.54462E-05 
  55103.7693     0.53946E-05 
  55136.0314     0.53434E-05 
  55168.2936     0.52924E-05 
  55200.5558     0.52418E-05 
  55232.8179     0.51916E-05 
  55265.0801     0.51416E-05 
  55297.3422     0.50920E-05 
  55329.6044     0.50426E-05 
  55361.8666     0.49936E-05 
  55394.1287     0.49449E-05 
  55426.3909     0.48965E-05 
  55458.6530     0.48485E-05 
  55490.9152     0.48007E-05 
  55523.1774     0.47533E-05 
  55555.4395     0.47061E-05 
  55587.7017     0.46593E-05 
  55619.9638     0.46128E-05 
  55652.2260     0.45665E-05 
  55684.4882     0.45206E-05 
  55716.7503     0.44750E-05 
  55749.0125     0.44297E-05 
  55781.2746     0.43847E-05 
  55813.5368     0.43400E-05 
  55845.7990     0.42956E-05 
  55878.0611     0.42515E-05 
  55910.3233     0.42077E-05 
  55942.5854     0.41641E-05 
  55974.8476     0.41209E-05 
  56007.1098     0.40780E-05 
  56039.3719     0.40353E-05 
  56071.6341     0.39930E-05 
  56103.8962     0.39509E-05 
  56136.1584     0.39092E-05 
  56168.4206     0.38677E-05 
  56200.6827     0.38265E-05 
  56232.9449     0.37856E-05 
  56265.2070     0.37450E-05 
  56297.4692     0.37046E-05 
  56329.7314     0.36646E-05 
  56361.9935     0.36248E-05 
  56394.2557     0.35853E-05 
  56426.5178     0.35460E-05 
  56458.7800     0.35071E-05 
  56491.0422     0.34684E-05 
  56523.3043     0.34300E-05 
  56555.5665     0.33919E-05 
  56587.8286     0.33541E-05 
  56620.0908     0.33165E-05 
  56652.3530     0.32792E-05 
  56684.6151     0.32421E-05 
  56716.8773     0.32054E-05 
  56749.1394     0.31688E-05 
  56781.4016     0.31326E-05 
  56813.6638     0.30966E-05 
  56845.9259     0.30609E-05 
  56878.1881     0.30255E-05 
  56910.4502     0.29903E-05 
  56942.7124     0.29553E-05 
  56974.9746     0.29207E-05 
  57007.2367     0.28862E-05 
  57039.4989     0.28521E-05 
  57071.7610     0.28182E-05 
  57104.0232     0.27845E-05 
  57136.2854     0.27511E-05 
  57168.5475     0.27180E-05 
  57200.8097     0.26851E-05 
  57233.0718     0.26524E-05 
  57265.3340     0.26200E-05 
  57297.5962     0.25879E-05 
  57329.8583     0.25560E-05 
  57362.1205     0.25243E-05 
  57394.3826     0.24929E-05 
  57426.6448     0.24617E-05 
  57458.9070     0.24308E-05 
  57491.1691     0.24001E-05 
  57523.4313     0.23696E-05 
  57555.6934     0.23394E-05 
  57587.9556     0.23094E-05 
  57620.2178     0.22797E-05 
  57652.4799     0.22501E-05 
  57684.7421     0.22209E-05 
  57717.0042     0.21918E-05 
  57749.2664     0.21630E-05 
  57781.5286     0.21344E-05 
  57813.7907     0.21061E-05 
  57846.0529     0.20779E-05 
  57878.3150     0.20500E-05 
  57910.5772     0.20223E-05 
  57942.8394     0.19949E-05 
  57975.1015     0.19677E-05 
  58007.3637     0.19407E-05 
  58039.6258     0.19139E-05 
  58071.8880     0.18873E-05 
  58104.1502     0.18610E-05 
  58136.4123     0.18349E-05 
  58168.6745     0.18090E-05 
  58200.9366     0.17833E-05 
  58233.1988     0.17578E-05 
  58265.4610     0.17325E-05 
  58297.7231     0.17075E-05 
  58329.9853     0.16827E-05 
  58362.2474     0.16581E-05 
  58394.5096     0.16336E-05 
  58426.7718     0.16095E-05 
  58459.0339     0.15855E-05 
  58491.2961     0.15617E-05 
  58523.5582     0.15381E-05 
  58555.8204     0.15148E-05 
  58588.0826     0.14916E-05 
  58620.3447     0.14686E-05 
  58652.6069     0.14459E-05 
  58684.8690     0.14234E-05 
  58717.1312     0.14010E-05 
  58749.3934     0.13789E-05 
  58781.6555     0.13569E-05 
  58813.9177     0.13352E-05 
  58846.1798     0.13136E-05 
  58878.4420     0.12923E-05 
  58910.7042     0.12711E-05 
  58942.9663     0.12502E-05 
  58975.2285     0.12294E-05 
  59007.4906     0.12089E-05 
  59039.7528     0.11885E-05 
  59072.0150     0.11683E-05 
  59104.2771     0.11484E-05 
  59136.5393     0.11286E-05 
  59168.8014     0.11090E-05 
  59201.0636     0.10896E-05 
  59233.3258     0.10703E-05 
  59265.5879     0.10513E-05 
  59297.8501     0.10325E-05 
  59330.1122     0.10138E-05 
  59362.3744     0.99537E-06 
  59394.6366     0.97709E-06 
  59426.8987     0.95900E-06 
  59459.1609     0.94109E-06 
  59491.4230     0.92337E-06 
  59523.6852     0.90583E-06 
  59555.9474     0.88848E-06 
  59588.2095     0.87131E-06 
  59620.4717     0.85432E-06 
  59652.7338     0.83751E-06 
  59684.9960     0.82089E-06 
  59717.2582     0.80445E-06 
  59749.5203     0.78818E-06 
  59781.7825     0.77210E-06 
  59814.0446     0.75620E-06 
  59846.3068     0.74047E-06 
  59878.5690     0.72493E-06 
  59910.8311     0.70956E-06 
  59943.0933     0.69437E-06 
  59975.3554     0.67936E-06 
  60007.6176     0.66452E-06 
  60039.8798     0.64986E-06 
  60072.1419     0.63538E-06 
  60104.4041     0.62108E-06 
  60136.6662     0.60695E-06 
  60168.9284     0.59299E-06 
  60201.1906     0.57921E-06 
  60233.4527     0.56561E-06 
  60265.7149     0.55218E-06 
  60297.9770     0.53893E-06 
  60330.2392     0.52585E-06 
  60362.5014     0.51294E-06 
  60394.7635     0.50021E-06 
  60427.0257     0.48765E-06 
  60459.2878     0.47527E-06 
  60491.5500     0.46306E-06 
  60523.8122     0.45103E-06 
  60556.0743     0.43916E-06 
  60588.3365     0.42747E-06 
  60620.5986     0.41596E-06 
  60652.8608     0.40462E-06 
  60685.1230     0.39345E-06 
  60717.3851     0.38246E-06 
  60749.6473     0.37164E-06 
  60781.9094     0.36099E-06 
  60814.1716     0.35052E-06 
  60846.4338     0.34022E-06 
  60878.6959     0.33010E-06 
  60910.9581     0.32015E-06 
  60943.2202     0.31038E-06 
  60975.4824     0.30078E-06 
  61007.7446     0.29135E-06 
  61040.0067     0.28210E-06 
  61072.2689     0.27303E-06 
  61104.5310     0.26414E-06 
  61136.7932     0.25542E-06 
  61169.0554     0.24687E-06 
  61201.3175     0.23851E-06 
  61233.5797     0.23032E-06 
  61265.8418     0.22231E-06 
  61298.1040     0.21448E-06 
  61330.3662     0.20683E-06 
  61362.6283     0.19936E-06 
  61394.8905     0.19207E-06 
  61427.1526     0.18497E-06 
  61459.4148     0.17804E-06 
  61491.6770     0.17130E-06 
  61523.9391     0.16474E-06 
  61556.2013     0.15836E-06 
  61588.4634     0.15217E-06 
  61620.7256     0.14616E-06 
  61652.9878     0.14034E-06 
  61685.2499     0.13471E-06 
  61717.5121     0.12927E-06 
  61749.7742     0.12402E-06 
  61782.0364     0.11896E-06 
  61814.2986     0.11409E-06 
  61846.5607     0.10941E-06 
  61878.8229     0.10493E-06 
  61911.0850     0.10064E-06 
  61943.3472     0.96544E-07 
  61975.6094     0.92649E-07 
  62007.8715     0.88953E-07 
  62040.1337     0.85457E-07 
  62072.3958     0.82162E-07 
  62104.6580     0.79071E-07 
  62136.9202     0.76184E-07 
  62169.1823     0.73503E-07 
  62201.4445     0.71030E-07 
  62233.7066     0.68766E-07 
  62265.9688     0.66713E-07 
  62298.2310     0.64873E-07 
  62330.4931     0.63246E-07 
  62362.7553     0.61837E-07 
  62395.0174     0.60645E-07 
  62427.2796     0.59673E-07 
  62459.5418     0.58923E-07 
  62491.8039     0.58398E-07 
  62524.0661     0.58098E-07 
  62556.3282     0.58027E-07 
  62588.5904     0.58186E-07 
  62620.8526     0.58578E-07 
  62653.1147     0.59205E-07 
  62685.3769     0.60069E-07 
  62717.6390     0.61174E-07 
  62749.9012     0.62521E-07 
  62782.1634     0.64112E-07 
  62814.4255     0.65952E-07 
  62846.6877     0.68042E-07 
  62878.9498     0.70385E-07 
  62911.2120     0.72984E-07 
  62943.4742     0.75842E-07 
  62975.7363     0.78962E-07 
  63007.9985     0.82347E-07 
  63040.2606     0.86000E-07 
  63072.5228     0.89925E-07 
  63104.7850     0.94124E-07 
  63137.0471     0.98601E-07 
  63169.3093     0.10336E-06 
  63201.5714     0.10840E-06 
  63233.8336     0.11373E-06 
  63266.0958     0.11936E-06 
  63298.3579     0.12528E-06 
  63330.6201     0.13150E-06 
  63362.8822     0.13802E-06 
  63395.1444     0.14486E-06 
  63427.4066     0.15200E-06 
  63459.6687     0.15946E-06 
  63491.9309     0.16724E-06 
  63524.1930     0.17535E-06 
  63556.4552     0.18378E-06 
  63588.7174     0.19255E-06 
  63620.9795     0.20166E-06 
  63653.2417     0.21111E-06 
  63685.5038     0.22091E-06 
  63717.7660     0.23107E-06 
  63750.0282     0.24158E-06 
  63782.2903     0.25246E-06 
  63814.5525     0.26370E-06 
  63846.8146     0.27532E-06 
  63879.0768     0.28732E-06 
  63911.3390     0.29971E-06 
  63943.6011     0.31249E-06 
  63975.8633     0.32567E-06 
  64008.1254     0.33925E-06 
  64040.3876     0.35324E-06 
  64072.6498     0.36765E-06 
  64104.9119     0.38248E-06 
  64137.1741     0.39774E-06 
  64169.4362     0.41343E-06 
  64201.6984     0.42957E-06 
  64233.9606     0.44616E-06 
  64266.2227     0.46321E-06 
  64298.4849     0.48072E-06 
  64330.7470     0.49870E-06 
  64363.0092     0.51716E-06 
  64395.2714     0.53611E-06 
  64427.5335     0.55555E-06 
  64459.7957     0.57549E-06 
  64492.0578     0.59595E-06 
  64524.3200     0.61693E-06 
  64556.5822     0.63843E-06 
  64588.8443     0.66047E-06 
  64621.1065     0.68305E-06 
  64653.3686     0.70619E-06 
  64685.6308     0.72990E-06 
  64717.8930     0.75417E-06 
  64750.1551     0.77903E-06 
  64782.4173     0.80448E-06 
  64814.6794     0.83053E-06 
  64846.9416     0.85719E-06 
  64879.2038     0.88448E-06 
  64911.4659     0.91239E-06 
  64943.7281     0.94095E-06 
  64975.9902     0.97016E-06 
  65008.2524     0.10000E-05 
  65040.5146     0.10306E-05 
  65072.7767     0.10618E-05 
  65105.0389     0.10938E-05 
  65137.3010     0.11264E-05 
  65169.5632     0.11598E-05 
  65201.8254     0.11939E-05 
  65234.0875     0.12288E-05 
  65266.3497     0.12644E-05 
  65298.6118     0.13008E-05 
  65330.8740     0.13379E-05 
  65363.1362     0.13759E-05 
  65395.3983     0.14147E-05 
  65427.6605     0.14543E-05 
  65459.9226     0.14948E-05 
  65492.1848     0.15361E-05 
  65524.4470     0.15783E-05 
  65556.7091     0.16213E-05 
  65588.9713     0.16653E-05 
  65621.2334     0.17102E-05 
  65653.4956     0.17560E-05 
  65685.7578     0.18027E-05 
  65718.0199     0.18504E-05 
  65750.2821     0.18991E-05 
  65782.5442     0.19488E-05 
  65814.8064     0.19995E-05 
  65847.0686     0.20512E-05 
  65879.3307     0.21040E-05 
  65911.5929     0.21578E-05 
  65943.8550     0.22128E-05 
  65976.1172     0.22688E-05 
  66008.3794     0.23259E-05 
  66040.6415     0.23842E-05 
  66072.9037     0.24436E-05 
  66105.1658     0.25042E-05 
  66137.4280     0.25660E-05 
  66169.6902     0.26291E-05 
  66201.9523     0.26933E-05 
  66234.2145     0.27588E-05 
  66266.4766     0.28256E-05 
  66298.7388     0.28937E-05 
  66331.0010     0.29631E-05 
  66363.2631     0.30339E-05 
  66395.5253     0.31060E-05 
  66427.7874     0.31795E-05 
  66460.0496     0.32544E-05 
  66492.3118     0.33308E-05 
  66524.5739     0.34086E-05 
  66556.8361     0.34879E-05 
  66589.0982     0.35687E-05 
  66621.3604     0.36510E-05 
  66653.6226     0.37349E-05 
  66685.8847     0.38203E-05 
  66718.1469     0.39074E-05 
  66750.4090     0.39961E-05 
  66782.6712     0.40865E-05 
  66814.9334     0.41785E-05 
  66847.1955     0.42723E-05 
  66879.4577     0.43678E-05 
  66911.7198     0.44650E-05 
  66943.9820     0.45641E-05 
  66976.2442     0.46650E-05 
  67008.5063     0.47677E-05 
  67040.7685     0.48724E-05 
  67073.0306     0.49789E-05 
  67105.2928     0.50874E-05 
  67137.5550     0.51979E-05 
  67169.8171     0.53103E-05 
  67202.0793     0.54248E-05 
  67234.3414     0.55414E-05 
  67266.6036     0.56601E-05 
  67298.8658     0.57809E-05 
  67331.1279     0.59039E-05 
  67363.3901     0.60290E-05 
  67395.6522     0.61564E-05 
  67427.9144     0.62861E-05 
  67460.1766     0.64181E-05 
  67492.4387     0.65524E-05 
  67524.7009     0.66891E-05 
  67556.9630     0.68282E-05 
  67589.2252     0.69697E-05 
  67621.4874     0.71138E-05 
  67653.7495     0.72603E-05 
  67686.0117     0.74094E-05 
  67718.2738     0.75611E-05 
  67750.5360     0.77154E-05 
  67782.7982     0.78724E-05 
  67815.0603     0.80321E-05 
  67847.3225     0.81946E-05 
  67879.5846     0.83599E-05 
  67911.8468     0.85280E-05 
  67944.1090     0.86989E-05 
  67976.3711     0.88728E-05 
  68008.6333     0.90496E-05 
  68040.8954     0.92295E-05 
  68073.1576     0.94124E-05 
  68105.4198     0.95983E-05 
  68137.6819     0.97874E-05 
  68169.9441     0.99797E-05 
  68202.2062     0.10175E-04 
  68234.4684     0.10374E-04 
  68266.7306     0.10576E-04 
  68298.9927     0.10781E-04 
  68331.2549     0.10990E-04 
  68363.5170     0.11202E-04 
  68395.7792     0.11418E-04 
  68428.0414     0.11637E-04 
  68460.3035     0.11860E-04 
  68492.5657     0.12087E-04 
  68524.8278     0.12317E-04 
  68557.0900     0.12551E-04 
  68589.3522     0.12789E-04 
  68621.6143     0.13030E-04 
  68653.8765     0.13276E-04 
  68686.1386     0.13525E-04 
  68718.4008     0.13778E-04 
  68750.6630     0.14036E-04 
  68782.9251     0.14297E-04 
  68815.1873     0.14563E-04 
  68847.4494     0.14833E-04 
  68879.7116     0.15107E-04 
  68911.9738     0.15385E-04 
  68944.2359     0.15668E-04 
  68976.4981     0.15955E-04 
  69008.7602     0.16246E-04 
  69041.0224     0.16543E-04 
  69073.2846     0.16843E-04 
  69105.5467     0.17149E-04 
  69137.8089     0.17459E-04 
  69170.0710     0.17773E-04 
  69202.3332     0.18093E-04 
  69234.5954     0.18417E-04 
  69266.8575     0.18747E-04 
  69299.1197     0.19081E-04 
  69331.3818     0.19420E-04 
  69363.6440     0.19765E-04 
  69395.9062     0.20115E-04 
  69428.1683     0.20469E-04 
  69460.4305     0.20829E-04 
  69492.6926     0.21195E-04 
  69524.9548     0.21566E-04 
  69557.2170     0.21942E-04 
  69589.4791     0.22324E-04 
  69621.7413     0.22711E-04 
  69654.0034     0.23104E-04 
  69686.2656     0.23503E-04 
  69718.5278     0.23907E-04 
  69750.7899     0.24317E-04 
  69783.0521     0.24733E-04 
  69815.3142     0.25155E-04 
  69847.5764     0.25584E-04 
  69879.8386     0.26018E-04 
  69912.1007     0.26458E-04 
  69944.3629     0.26904E-04 
  69976.6250     0.27357E-04 
  70008.8872     0.27816E-04 
  70041.1494     0.28282E-04 
  70073.4115     0.28754E-04 
  70105.6737     0.29232E-04 
  70137.9358     0.29717E-04 
  70170.1980     0.30209E-04 
  70202.4602     0.30707E-04 
  70234.7223     0.31212E-04 
  70266.9845     0.31724E-04 
  70299.2466     0.32243E-04 
  70331.5088     0.32769E-04 
  70363.7710     0.33301E-04 
  70396.0331     0.33841E-04 
  70428.2953     0.34389E-04 
  70460.5574     0.34943E-04 
  70492.8196     0.35505E-04 
  70525.0818     0.36074E-04 
  70557.3439     0.36650E-04 
  70589.6061     0.37234E-04 
  70621.8682     0.37825E-04 
  70654.1304     0.38424E-04 
  70686.3926     0.39031E-04 
  70718.6547     0.39646E-04 
  70750.9169     0.40268E-04 
  70783.1790     0.40898E-04 
  70815.4412     0.41536E-04 
  70847.7034     0.42182E-04 
  70879.9655     0.42836E-04 
  70912.2277     0.43499E-04 
  70944.4898     0.44169E-04 
  70976.7520     0.44848E-04 
  71009.0142     0.45535E-04 
  71041.2763     0.46231E-04 
  71073.5385     0.46934E-04 
  71105.8006     0.47647E-04 
  71138.0628     0.48368E-04 
  71170.3250     0.49098E-04 
  71202.5871     0.49836E-04 
  71234.8493     0.50583E-04 
  71267.1114     0.51339E-04 
  71299.3736     0.52104E-04 
  71331.6358     0.52877E-04 
  71363.8979     0.53660E-04 
  71396.1601     0.54452E-04 
  71428.4222     0.55253E-04 
  71460.6844     0.56063E-04 
  71492.9466     0.56882E-04 
  71525.2087     0.57711E-04 
  71557.4709     0.58548E-04 
  71589.7330     0.59396E-04 
  71621.9952     0.60253E-04 
  71654.2574     0.61119E-04 
  71686.5195     0.61995E-04 
  71718.7817     0.62880E-04 
  71751.0438     0.63775E-04 
  71783.3060     0.64680E-04 
  71815.5682     0.65595E-04 
  71847.8303     0.66519E-04 
  71880.0925     0.67454E-04 
  71912.3546     0.68398E-04 
  71944.6168     0.69352E-04 
  71976.8790     0.70317E-04 
  72009.1411     0.71291E-04 
  72041.4033     0.72276E-04 
  72073.6654     0.73270E-04 
  72105.9276     0.74275E-04 
  72138.1898     0.75291E-04 
  72170.4519     0.76316E-04 
  72202.7141     0.77352E-04 
  72234.9762     0.78398E-04 
  72267.2384     0.79455E-04 
  72299.5006     0.80522E-04 
  72331.7627     0.81600E-04 
  72364.0249     0.82688E-04 
  72396.2870     0.83787E-04 
  72428.5492     0.84897E-04 
  72460.8114     0.86017E-04 
  72493.0735     0.87148E-04 
  72525.3357     0.88290E-04 
  72557.5978     0.89442E-04 
  72589.8600     0.90605E-04 
