  32262.1600     0.23381E-01 
  32294.4222     0.23575E-01 
  32326.6843     0.23770E-01 
  32358.9465     0.23966E-01 
  32391.2086     0.24162E-01 
  32423.4708     0.24360E-01 
  32455.7330     0.24559E-01 
  32487.9951     0.24759E-01 
  32520.2573     0.24959E-01 
  32552.5194     0.25161E-01 
  32584.7816     0.25363E-01 
  32617.0438     0.25567E-01 
  32649.3059     0.25771E-01 
  32681.5681     0.25977E-01 
  32713.8302     0.26183E-01 
  32746.0924     0.26390E-01 
  32778.3546     0.26599E-01 
  32810.6167     0.26808E-01 
  32842.8789     0.27018E-01 
  32875.1410     0.27229E-01 
  32907.4032     0.27441E-01 
  32939.6654     0.27654E-01 
  32971.9275     0.27868E-01 
  33004.1897     0.28082E-01 
  33036.4518     0.28298E-01 
  33068.7140     0.28515E-01 
  33100.9762     0.28732E-01 
  33133.2383     0.28951E-01 
  33165.5005     0.29170E-01 
  33197.7626     0.29390E-01 
  33230.0248     0.29612E-01 
  33262.2870     0.29834E-01 
  33294.5491     0.30057E-01 
  33326.8113     0.30281E-01 
  33359.0734     0.30505E-01 
  33391.3356     0.30731E-01 
  33423.5978     0.30958E-01 
  33455.8599     0.31185E-01 
  33488.1221     0.31413E-01 
  33520.3842     0.31643E-01 
  33552.6464     0.31873E-01 
  33584.9086     0.32104E-01 
  33617.1707     0.32335E-01 
  33649.4329     0.32568E-01 
  33681.6950     0.32801E-01 
  33713.9572     0.33036E-01 
  33746.2194     0.33271E-01 
  33778.4815     0.33507E-01 
  33810.7437     0.33744E-01 
  33843.0058     0.33982E-01 
  33875.2680     0.34220E-01 
  33907.5302     0.34459E-01 
  33939.7923     0.34700E-01 
  33972.0545     0.34941E-01 
  34004.3166     0.35182E-01 
  34036.5788     0.35425E-01 
  34068.8410     0.35668E-01 
  34101.1031     0.35912E-01 
  34133.3653     0.36157E-01 
  34165.6274     0.36403E-01 
  34197.8896     0.36650E-01 
  34230.1518     0.36897E-01 
  34262.4139     0.37145E-01 
  34294.6761     0.37394E-01 
  34326.9382     0.37643E-01 
  34359.2004     0.37893E-01 
  34391.4626     0.38144E-01 
  34423.7247     0.38396E-01 
  34455.9869     0.38649E-01 
  34488.2490     0.38902E-01 
  34520.5112     0.39156E-01 
  34552.7734     0.39410E-01 
  34585.0355     0.39666E-01 
  34617.2977     0.39922E-01 
  34649.5598     0.40179E-01 
  34681.8220     0.40436E-01 
  34714.0842     0.40694E-01 
  34746.3463     0.40953E-01 
  34778.6085     0.41212E-01 
  34810.8706     0.41472E-01 
  34843.1328     0.41733E-01 
  34875.3950     0.41994E-01 
  34907.6571     0.42256E-01 
  34939.9193     0.42519E-01 
  34972.1814     0.42782E-01 
  35004.4436     0.43046E-01 
  35036.7058     0.43311E-01 
  35068.9679     0.43576E-01 
  35101.2301     0.43841E-01 
  35133.4922     0.44108E-01 
  35165.7544     0.44374E-01 
  35198.0166     0.44642E-01 
  35230.2787     0.44910E-01 
  35262.5409     0.45178E-01 
  35294.8030     0.45447E-01 
  35327.0652     0.45717E-01 
  35359.3274     0.45987E-01 
  35391.5895     0.46258E-01 
  35423.8517     0.46529E-01 
  35456.1138     0.46801E-01 
  35488.3760     0.47073E-01 
  35520.6382     0.47346E-01 
  35552.9003     0.47619E-01 
  35585.1625     0.47892E-01 
  35617.4246     0.48167E-01 
  35649.6868     0.48441E-01 
  35681.9490     0.48716E-01 
  35714.2111     0.48992E-01 
  35746.4733     0.49267E-01 
  35778.7354     0.49544E-01 
  35810.9976     0.49820E-01 
  35843.2598     0.50098E-01 
  35875.5219     0.50375E-01 
  35907.7841     0.50653E-01 
  35940.0462     0.50931E-01 
  35972.3084     0.51210E-01 
  36004.5706     0.51489E-01 
  36036.8327     0.51768E-01 
  36069.0949     0.52048E-01 
  36101.3570     0.52328E-01 
  36133.6192     0.52609E-01 
  36165.8814     0.52889E-01 
  36198.1435     0.53170E-01 
  36230.4057     0.53452E-01 
  36262.6678     0.53733E-01 
  36294.9300     0.54015E-01 
  36327.1922     0.54297E-01 
  36359.4543     0.54580E-01 
  36391.7165     0.54862E-01 
  36423.9786     0.55145E-01 
  36456.2408     0.55428E-01 
  36488.5030     0.55711E-01 
  36520.7651     0.55995E-01 
  36553.0273     0.56279E-01 
  36585.2894     0.56563E-01 
  36617.5516     0.56847E-01 
  36649.8138     0.57131E-01 
  36682.0759     0.57415E-01 
  36714.3381     0.57700E-01 
  36746.6002     0.57985E-01 
  36778.8624     0.58269E-01 
  36811.1246     0.58554E-01 
  36843.3867     0.58839E-01 
  36875.6489     0.59125E-01 
  36907.9110     0.59410E-01 
  36940.1732     0.59695E-01 
  36972.4354     0.59981E-01 
  37004.6975     0.60266E-01 
  37036.9597     0.60552E-01 
  37069.2218     0.60837E-01 
  37101.4840     0.61123E-01 
  37133.7462     0.61408E-01 
  37166.0083     0.61694E-01 
  37198.2705     0.61979E-01 
  37230.5326     0.62265E-01 
  37262.7948     0.62550E-01 
  37295.0570     0.62836E-01 
  37327.3191     0.63121E-01 
  37359.5813     0.63406E-01 
  37391.8434     0.63692E-01 
  37424.1056     0.63977E-01 
  37456.3678     0.64262E-01 
  37488.6299     0.64547E-01 
  37520.8921     0.64832E-01 
  37553.1542     0.65117E-01 
  37585.4164     0.65401E-01 
  37617.6786     0.65686E-01 
  37649.9407     0.65970E-01 
  37682.2029     0.66254E-01 
  37714.4650     0.66538E-01 
  37746.7272     0.66822E-01 
  37778.9894     0.67105E-01 
  37811.2515     0.67389E-01 
  37843.5137     0.67672E-01 
  37875.7758     0.67955E-01 
  37908.0380     0.68237E-01 
  37940.3002     0.68520E-01 
  37972.5623     0.68802E-01 
  38004.8245     0.69083E-01 
  38037.0866     0.69365E-01 
  38069.3488     0.69646E-01 
  38101.6110     0.69927E-01 
  38133.8731     0.70207E-01 
  38166.1353     0.70488E-01 
  38198.3974     0.70768E-01 
  38230.6596     0.71047E-01 
  38262.9218     0.71326E-01 
  38295.1839     0.71605E-01 
  38327.4461     0.71883E-01 
  38359.7082     0.72161E-01 
  38391.9704     0.72439E-01 
  38424.2326     0.72716E-01 
  38456.4947     0.72992E-01 
  38488.7569     0.73268E-01 
  38521.0190     0.73544E-01 
  38553.2812     0.73819E-01 
  38585.5434     0.74094E-01 
  38617.8055     0.74368E-01 
  38650.0677     0.74642E-01 
  38682.3298     0.74915E-01 
  38714.5920     0.75188E-01 
  38746.8542     0.75460E-01 
  38779.1163     0.75732E-01 
  38811.3785     0.76003E-01 
  38843.6406     0.76273E-01 
  38875.9028     0.76543E-01 
  38908.1650     0.76812E-01 
  38940.4271     0.77081E-01 
  38972.6893     0.77349E-01 
  39004.9514     0.77616E-01 
  39037.2136     0.77883E-01 
  39069.4758     0.78149E-01 
  39101.7379     0.78414E-01 
  39134.0001     0.78679E-01 
  39166.2622     0.78943E-01 
  39198.5244     0.79207E-01 
  39230.7866     0.79469E-01 
  39263.0487     0.79731E-01 
  39295.3109     0.79992E-01 
  39327.5730     0.80253E-01 
  39359.8352     0.80512E-01 
  39392.0974     0.80771E-01 
  39424.3595     0.81029E-01 
  39456.6217     0.81287E-01 
  39488.8838     0.81543E-01 
  39521.1460     0.81799E-01 
  39553.4082     0.82054E-01 
  39585.6703     0.82308E-01 
  39617.9325     0.82561E-01 
  39650.1946     0.82813E-01 
  39682.4568     0.83065E-01 
  39714.7190     0.83315E-01 
  39746.9811     0.83565E-01 
  39779.2433     0.83814E-01 
  39811.5054     0.84062E-01 
  39843.7676     0.84309E-01 
  39876.0298     0.84555E-01 
  39908.2919     0.84800E-01 
  39940.5541     0.85044E-01 
  39972.8162     0.85287E-01 
  40005.0784     0.85529E-01 
  40037.3406     0.85771E-01 
  40069.6027     0.86011E-01 
  40101.8649     0.86250E-01 
  40134.1270     0.86488E-01 
  40166.3892     0.86726E-01 
  40198.6514     0.86962E-01 
  40230.9135     0.87197E-01 
  40263.1757     0.87431E-01 
  40295.4378     0.87664E-01 
  40327.7000     0.87896E-01 
  40359.9622     0.88127E-01 
  40392.2243     0.88356E-01 
  40424.4865     0.88585E-01 
  40456.7486     0.88812E-01 
  40489.0108     0.89039E-01 
  40521.2730     0.89264E-01 
  40553.5351     0.89488E-01 
  40585.7973     0.89711E-01 
  40618.0594     0.89933E-01 
  40650.3216     0.90154E-01 
  40682.5838     0.90373E-01 
  40714.8459     0.90591E-01 
  40747.1081     0.90808E-01 
  40779.3702     0.91024E-01 
  40811.6324     0.91239E-01 
  40843.8946     0.91452E-01 
  40876.1567     0.91664E-01 
  40908.4189     0.91875E-01 
  40940.6810     0.92085E-01 
  40972.9432     0.92293E-01 
  41005.2054     0.92500E-01 
  41037.4675     0.92706E-01 
  41069.7297     0.92910E-01 
  41101.9918     0.93114E-01 
  41134.2540     0.93315E-01 
  41166.5162     0.93516E-01 
  41198.7783     0.93715E-01 
  41231.0405     0.93913E-01 
  41263.3026     0.94110E-01 
  41295.5648     0.94305E-01 
  41327.8270     0.94499E-01 
  41360.0891     0.94691E-01 
  41392.3513     0.94882E-01 
  41424.6134     0.95072E-01 
  41456.8756     0.95260E-01 
  41489.1378     0.95447E-01 
  41521.3999     0.95632E-01 
  41553.6621     0.95816E-01 
  41585.9242     0.95999E-01 
  41618.1864     0.96180E-01 
  41650.4486     0.96360E-01 
  41682.7107     0.96538E-01 
  41714.9729     0.96715E-01 
  41747.2350     0.96891E-01 
  41779.4972     0.97064E-01 
  41811.7594     0.97237E-01 
  41844.0215     0.97408E-01 
  41876.2837     0.97577E-01 
  41908.5458     0.97745E-01 
  41940.8080     0.97911E-01 
  41973.0702     0.98076E-01 
  42005.3323     0.98240E-01 
  42037.5945     0.98402E-01 
  42069.8566     0.98562E-01 
  42102.1188     0.98721E-01 
  42134.3810     0.98878E-01 
  42166.6431     0.99033E-01 
  42198.9053     0.99188E-01 
  42231.1674     0.99340E-01 
  42263.4296     0.99491E-01 
  42295.6918     0.99640E-01 
  42327.9539     0.99788E-01 
  42360.2161     0.99934E-01 
  42392.4782     0.10008E+00 
  42424.7404     0.10022E+00 
  42457.0026     0.10036E+00 
  42489.2647     0.10050E+00 
  42521.5269     0.10064E+00 
  42553.7890     0.10078E+00 
  42586.0512     0.10091E+00 
  42618.3134     0.10105E+00 
  42650.5755     0.10118E+00 
  42682.8377     0.10131E+00 
  42715.0998     0.10144E+00 
  42747.3620     0.10156E+00 
  42779.6242     0.10169E+00 
  42811.8863     0.10181E+00 
  42844.1485     0.10193E+00 
  42876.4106     0.10205E+00 
  42908.6728     0.10217E+00 
  42940.9350     0.10229E+00 
  42973.1971     0.10240E+00 
  43005.4593     0.10251E+00 
  43037.7214     0.10263E+00 
  43069.9836     0.10273E+00 
  43102.2458     0.10284E+00 
  43134.5079     0.10295E+00 
  43166.7701     0.10305E+00 
  43199.0322     0.10316E+00 
  43231.2944     0.10326E+00 
  43263.5566     0.10336E+00 
  43295.8187     0.10345E+00 
  43328.0809     0.10355E+00 
  43360.3430     0.10364E+00 
  43392.6052     0.10374E+00 
  43424.8674     0.10383E+00 
  43457.1295     0.10392E+00 
  43489.3917     0.10400E+00 
  43521.6538     0.10409E+00 
  43553.9160     0.10417E+00 
  43586.1782     0.10425E+00 
  43618.4403     0.10433E+00 
  43650.7025     0.10441E+00 
  43682.9646     0.10449E+00 
  43715.2268     0.10456E+00 
  43747.4890     0.10464E+00 
  43779.7511     0.10471E+00 
  43812.0133     0.10478E+00 
  43844.2754     0.10484E+00 
  43876.5376     0.10491E+00 
  43908.7998     0.10497E+00 
  43941.0619     0.10504E+00 
  43973.3241     0.10510E+00 
  44005.5862     0.10516E+00 
  44037.8484     0.10521E+00 
  44070.1106     0.10527E+00 
  44102.3727     0.10532E+00 
  44134.6349     0.10537E+00 
  44166.8970     0.10542E+00 
  44199.1592     0.10547E+00 
  44231.4214     0.10551E+00 
  44263.6835     0.10556E+00 
  44295.9457     0.10560E+00 
  44328.2078     0.10564E+00 
  44360.4700     0.10568E+00 
  44392.7322     0.10572E+00 
  44424.9943     0.10575E+00 
  44457.2565     0.10579E+00 
  44489.5186     0.10582E+00 
  44521.7808     0.10585E+00 
  44554.0430     0.10587E+00 
  44586.3051     0.10590E+00 
  44618.5673     0.10593E+00 
  44650.8294     0.10595E+00 
  44683.0916     0.10597E+00 
  44715.3538     0.10599E+00 
  44747.6159     0.10600E+00 
  44779.8781     0.10602E+00 
  44812.1402     0.10603E+00 
  44844.4024     0.10604E+00 
  44876.6646     0.10605E+00 
  44908.9267     0.10606E+00 
  44941.1889     0.10607E+00 
  44973.4510     0.10607E+00 
  45005.7132     0.10607E+00 
  45037.9754     0.10607E+00 
  45070.2375     0.10607E+00 
  45102.4997     0.10607E+00 
  45134.7618     0.10607E+00 
  45167.0240     0.10606E+00 
  45199.2862     0.10605E+00 
  45231.5483     0.10604E+00 
  45263.8105     0.10603E+00 
  45296.0726     0.10602E+00 
  45328.3348     0.10600E+00 
  45360.5970     0.10598E+00 
  45392.8591     0.10596E+00 
  45425.1213     0.10594E+00 
  45457.3834     0.10592E+00 
  45489.6456     0.10589E+00 
  45521.9078     0.10587E+00 
  45554.1699     0.10584E+00 
  45586.4321     0.10581E+00 
  45618.6942     0.10578E+00 
  45650.9564     0.10575E+00 
  45683.2186     0.10571E+00 
  45715.4807     0.10567E+00 
  45747.7429     0.10563E+00 
  45780.0050     0.10559E+00 
  45812.2672     0.10555E+00 
  45844.5294     0.10551E+00 
  45876.7915     0.10546E+00 
  45909.0537     0.10541E+00 
  45941.3158     0.10536E+00 
  45973.5780     0.10531E+00 
  46005.8402     0.10526E+00 
  46038.1023     0.10521E+00 
  46070.3645     0.10515E+00 
  46102.6266     0.10509E+00 
  46134.8888     0.10503E+00 
  46167.1510     0.10497E+00 
  46199.4131     0.10491E+00 
  46231.6753     0.10484E+00 
  46263.9374     0.10478E+00 
  46296.1996     0.10471E+00 
  46328.4618     0.10464E+00 
  46360.7239     0.10457E+00 
  46392.9861     0.10449E+00 
  46425.2482     0.10442E+00 
  46457.5104     0.10434E+00 
  46489.7726     0.10426E+00 
  46522.0347     0.10418E+00 
  46554.2969     0.10410E+00 
  46586.5590     0.10402E+00 
  46618.8212     0.10393E+00 
  46651.0834     0.10384E+00 
  46683.3455     0.10376E+00 
  46715.6077     0.10367E+00 
  46747.8698     0.10357E+00 
  46780.1320     0.10348E+00 
  46812.3942     0.10339E+00 
  46844.6563     0.10329E+00 
  46876.9185     0.10319E+00 
  46909.1806     0.10309E+00 
  46941.4428     0.10299E+00 
  46973.7050     0.10289E+00 
  47005.9671     0.10278E+00 
  47038.2293     0.10267E+00 
  47070.4914     0.10257E+00 
  47102.7536     0.10246E+00 
  47135.0158     0.10235E+00 
  47167.2779     0.10223E+00 
  47199.5401     0.10212E+00 
  47231.8022     0.10200E+00 
  47264.0644     0.10188E+00 
  47296.3266     0.10177E+00 
  47328.5887     0.10164E+00 
  47360.8509     0.10152E+00 
  47393.1130     0.10140E+00 
  47425.3752     0.10127E+00 
  47457.6374     0.10115E+00 
  47489.8995     0.10102E+00 
  47522.1617     0.10089E+00 
  47554.4238     0.10076E+00 
  47586.6860     0.10063E+00 
  47618.9482     0.10049E+00 
  47651.2103     0.10036E+00 
  47683.4725     0.10022E+00 
  47715.7346     0.10008E+00 
  47747.9968     0.99939E-01 
  47780.2590     0.99797E-01 
  47812.5211     0.99654E-01 
  47844.7833     0.99510E-01 
  47877.0454     0.99364E-01 
  47909.3076     0.99216E-01 
  47941.5698     0.99067E-01 
  47973.8319     0.98917E-01 
  48006.0941     0.98765E-01 
  48038.3562     0.98612E-01 
  48070.6184     0.98458E-01 
  48102.8806     0.98302E-01 
  48135.1427     0.98145E-01 
  48167.4049     0.97986E-01 
  48199.6670     0.97826E-01 
  48231.9292     0.97665E-01 
  48264.1914     0.97502E-01 
  48296.4535     0.97338E-01 
  48328.7157     0.97173E-01 
  48360.9778     0.97006E-01 
  48393.2400     0.96838E-01 
  48425.5022     0.96668E-01 
  48457.7643     0.96498E-01 
  48490.0265     0.96326E-01 
  48522.2886     0.96152E-01 
  48554.5508     0.95978E-01 
  48586.8130     0.95802E-01 
  48619.0751     0.95625E-01 
  48651.3373     0.95446E-01 
  48683.5994     0.95267E-01 
  48715.8616     0.95086E-01 
  48748.1238     0.94903E-01 
  48780.3859     0.94720E-01 
  48812.6481     0.94535E-01 
  48844.9102     0.94350E-01 
  48877.1724     0.94163E-01 
  48909.4346     0.93974E-01 
  48941.6967     0.93785E-01 
  48973.9589     0.93594E-01 
  49006.2210     0.93402E-01 
  49038.4832     0.93209E-01 
  49070.7454     0.93015E-01 
  49103.0075     0.92820E-01 
  49135.2697     0.92624E-01 
  49167.5318     0.92426E-01 
  49199.7940     0.92227E-01 
  49232.0562     0.92028E-01 
  49264.3183     0.91827E-01 
  49296.5805     0.91625E-01 
  49328.8426     0.91421E-01 
  49361.1048     0.91217E-01 
  49393.3670     0.91012E-01 
  49425.6291     0.90806E-01 
  49457.8913     0.90598E-01 
  49490.1534     0.90390E-01 
  49522.4156     0.90180E-01 
  49554.6778     0.89970E-01 
  49586.9399     0.89758E-01 
  49619.2021     0.89545E-01 
  49651.4642     0.89332E-01 
  49683.7264     0.89117E-01 
  49715.9886     0.88901E-01 
  49748.2507     0.88685E-01 
  49780.5129     0.88467E-01 
  49812.7750     0.88249E-01 
  49845.0372     0.88029E-01 
  49877.2994     0.87809E-01 
  49909.5615     0.87587E-01 
  49941.8237     0.87365E-01 
  49974.0858     0.87142E-01 
  50006.3480     0.86917E-01 
  50038.6102     0.86692E-01 
  50070.8723     0.86466E-01 
  50103.1345     0.86239E-01 
  50135.3966     0.86012E-01 
  50167.6588     0.85783E-01 
  50199.9210     0.85553E-01 
  50232.1831     0.85323E-01 
  50264.4453     0.85092E-01 
  50296.7074     0.84860E-01 
  50328.9696     0.84627E-01 
  50361.2318     0.84393E-01 
  50393.4939     0.84159E-01 
  50425.7561     0.83923E-01 
  50458.0182     0.83687E-01 
  50490.2804     0.83450E-01 
  50522.5426     0.83212E-01 
  50554.8047     0.82974E-01 
  50587.0669     0.82735E-01 
  50619.3290     0.82495E-01 
  50651.5912     0.82254E-01 
  50683.8534     0.82013E-01 
  50716.1155     0.81770E-01 
  50748.3777     0.81527E-01 
  50780.6398     0.81284E-01 
  50812.9020     0.81040E-01 
  50845.1642     0.80795E-01 
  50877.4263     0.80549E-01 
  50909.6885     0.80302E-01 
  50941.9506     0.80055E-01 
  50974.2128     0.79808E-01 
  51006.4750     0.79559E-01 
  51038.7371     0.79310E-01 
  51070.9993     0.79061E-01 
  51103.2614     0.78811E-01 
  51135.5236     0.78560E-01 
  51167.7858     0.78308E-01 
  51200.0479     0.78056E-01 
  51232.3101     0.77804E-01 
  51264.5722     0.77550E-01 
  51296.8344     0.77297E-01 
  51329.0966     0.77042E-01 
  51361.3587     0.76787E-01 
  51393.6209     0.76532E-01 
  51425.8830     0.76276E-01 
  51458.1452     0.76019E-01 
  51490.4074     0.75762E-01 
  51522.6695     0.75505E-01 
  51554.9317     0.75247E-01 
  51587.1938     0.74988E-01 
  51619.4560     0.74729E-01 
  51651.7182     0.74470E-01 
  51683.9803     0.74210E-01 
  51716.2425     0.73949E-01 
  51748.5046     0.73688E-01 
  51780.7668     0.73427E-01 
  51813.0290     0.73165E-01 
  51845.2911     0.72903E-01 
  51877.5533     0.72641E-01 
  51909.8154     0.72378E-01 
  51942.0776     0.72114E-01 
  51974.3398     0.71850E-01 
  52006.6019     0.71586E-01 
  52038.8641     0.71322E-01 
  52071.1262     0.71057E-01 
  52103.3884     0.70792E-01 
  52135.6506     0.70526E-01 
  52167.9127     0.70260E-01 
  52200.1749     0.69994E-01 
  52232.4370     0.69727E-01 
  52264.6992     0.69460E-01 
  52296.9614     0.69193E-01 
  52329.2235     0.68925E-01 
  52361.4857     0.68657E-01 
  52393.7478     0.68389E-01 
  52426.0100     0.68121E-01 
  52458.2722     0.67852E-01 
  52490.5343     0.67583E-01 
  52522.7965     0.67314E-01 
  52555.0586     0.67045E-01 
  52587.3208     0.66775E-01 
  52619.5830     0.66505E-01 
  52651.8451     0.66235E-01 
  52684.1073     0.65965E-01 
  52716.3694     0.65694E-01 
  52748.6316     0.65424E-01 
  52780.8938     0.65153E-01 
  52813.1559     0.64882E-01 
  52845.4181     0.64610E-01 
  52877.6802     0.64339E-01 
  52909.9424     0.64068E-01 
  52942.2046     0.63796E-01 
  52974.4667     0.63524E-01 
  53006.7289     0.63252E-01 
  53038.9910     0.62980E-01 
  53071.2532     0.62708E-01 
  53103.5154     0.62435E-01 
  53135.7775     0.62163E-01 
  53168.0397     0.61891E-01 
  53200.3018     0.61618E-01 
  53232.5640     0.61345E-01 
  53264.8262     0.61073E-01 
  53297.0883     0.60800E-01 
  53329.3505     0.60527E-01 
  53361.6126     0.60254E-01 
  53393.8748     0.59981E-01 
  53426.1370     0.59708E-01 
  53458.3991     0.59435E-01 
  53490.6613     0.59162E-01 
  53522.9234     0.58889E-01 
  53555.1856     0.58616E-01 
  53587.4478     0.58343E-01 
  53619.7099     0.58070E-01 
  53651.9721     0.57797E-01 
  53684.2342     0.57524E-01 
  53716.4964     0.57251E-01 
  53748.7586     0.56979E-01 
  53781.0207     0.56706E-01 
  53813.2829     0.56433E-01 
  53845.5450     0.56160E-01 
  53877.8072     0.55888E-01 
  53910.0694     0.55615E-01 
  53942.3315     0.55343E-01 
  53974.5937     0.55071E-01 
  54006.8558     0.54798E-01 
  54039.1180     0.54526E-01 
  54071.3802     0.54254E-01 
  54103.6423     0.53983E-01 
  54135.9045     0.53711E-01 
  54168.1666     0.53439E-01 
  54200.4288     0.53168E-01 
  54232.6910     0.52897E-01 
  54264.9531     0.52626E-01 
  54297.2153     0.52355E-01 
  54329.4774     0.52084E-01 
  54361.7396     0.51813E-01 
  54394.0018     0.51543E-01 
  54426.2639     0.51273E-01 
  54458.5261     0.51003E-01 
  54490.7882     0.50733E-01 
  54523.0504     0.50463E-01 
  54555.3126     0.50194E-01 
  54587.5747     0.49925E-01 
  54619.8369     0.49656E-01 
  54652.0990     0.49388E-01 
  54684.3612     0.49119E-01 
  54716.6234     0.48851E-01 
  54748.8855     0.48583E-01 
  54781.1477     0.48316E-01 
  54813.4098     0.48049E-01 
  54845.6720     0.47782E-01 
  54877.9342     0.47515E-01 
  54910.1963     0.47249E-01 
  54942.4585     0.46983E-01 
  54974.7206     0.46717E-01 
  55006.9828     0.46452E-01 
  55039.2450     0.46187E-01 
  55071.5071     0.45922E-01 
  55103.7693     0.45658E-01 
  55136.0314     0.45394E-01 
  55168.2936     0.45130E-01 
  55200.5558     0.44867E-01 
  55232.8179     0.44604E-01 
  55265.0801     0.44341E-01 
  55297.3422     0.44079E-01 
  55329.6044     0.43817E-01 
  55361.8666     0.43556E-01 
  55394.1287     0.43295E-01 
  55426.3909     0.43035E-01 
  55458.6530     0.42775E-01 
  55490.9152     0.42515E-01 
  55523.1774     0.42256E-01 
  55555.4395     0.41997E-01 
  55587.7017     0.41739E-01 
  55619.9638     0.41481E-01 
  55652.2260     0.41223E-01 
  55684.4882     0.40967E-01 
  55716.7503     0.40710E-01 
  55749.0125     0.40454E-01 
  55781.2746     0.40199E-01 
  55813.5368     0.39944E-01 
  55845.7990     0.39689E-01 
  55878.0611     0.39435E-01 
  55910.3233     0.39182E-01 
  55942.5854     0.38929E-01 
  55974.8476     0.38677E-01 
  56007.1098     0.38425E-01 
  56039.3719     0.38174E-01 
  56071.6341     0.37923E-01 
  56103.8962     0.37673E-01 
  56136.1584     0.37423E-01 
  56168.4206     0.37174E-01 
  56200.6827     0.36926E-01 
  56232.9449     0.36678E-01 
  56265.2070     0.36431E-01 
  56297.4692     0.36185E-01 
  56329.7314     0.35939E-01 
  56361.9935     0.35693E-01 
  56394.2557     0.35449E-01 
  56426.5178     0.35204E-01 
  56458.7800     0.34961E-01 
  56491.0422     0.34718E-01 
  56523.3043     0.34476E-01 
  56555.5665     0.34235E-01 
  56587.8286     0.33994E-01 
  56620.0908     0.33754E-01 
  56652.3530     0.33514E-01 
  56684.6151     0.33276E-01 
  56716.8773     0.33038E-01 
  56749.1394     0.32800E-01 
  56781.4016     0.32564E-01 
  56813.6638     0.32328E-01 
  56845.9259     0.32093E-01 
  56878.1881     0.31859E-01 
  56910.4502     0.31625E-01 
  56942.7124     0.31392E-01 
  56974.9746     0.31160E-01 
  57007.2367     0.30929E-01 
  57039.4989     0.30698E-01 
  57071.7610     0.30469E-01 
  57104.0232     0.30240E-01 
  57136.2854     0.30011E-01 
  57168.5475     0.29784E-01 
  57200.8097     0.29558E-01 
  57233.0718     0.29332E-01 
  57265.3340     0.29107E-01 
  57297.5962     0.28883E-01 
  57329.8583     0.28660E-01 
  57362.1205     0.28438E-01 
  57394.3826     0.28216E-01 
  57426.6448     0.27996E-01 
  57458.9070     0.27776E-01 
  57491.1691     0.27558E-01 
  57523.4313     0.27340E-01 
  57555.6934     0.27123E-01 
  57587.9556     0.26907E-01 
  57620.2178     0.26692E-01 
  57652.4799     0.26478E-01 
  57684.7421     0.26265E-01 
  57717.0042     0.26053E-01 
  57749.2664     0.25842E-01 
  57781.5286     0.25631E-01 
  57813.7907     0.25422E-01 
  57846.0529     0.25214E-01 
  57878.3150     0.25007E-01 
  57910.5772     0.24801E-01 
  57942.8394     0.24596E-01 
  57975.1015     0.24391E-01 
  58007.3637     0.24188E-01 
  58039.6258     0.23986E-01 
  58071.8880     0.23785E-01 
  58104.1502     0.23586E-01 
  58136.4123     0.23387E-01 
  58168.6745     0.23189E-01 
  58200.9366     0.22993E-01 
  58233.1988     0.22797E-01 
  58265.4610     0.22603E-01 
  58297.7231     0.22410E-01 
  58329.9853     0.22218E-01 
  58362.2474     0.22027E-01 
  58394.5096     0.21837E-01 
  58426.7718     0.21649E-01 
  58459.0339     0.21461E-01 
  58491.2961     0.21275E-01 
  58523.5582     0.21090E-01 
  58555.8204     0.20907E-01 
  58588.0826     0.20724E-01 
  58620.3447     0.20543E-01 
  58652.6069     0.20363E-01 
  58684.8690     0.20184E-01 
  58717.1312     0.20007E-01 
  58749.3934     0.19831E-01 
  58781.6555     0.19656E-01 
  58813.9177     0.19483E-01 
  58846.1798     0.19311E-01 
  58878.4420     0.19140E-01 
  58910.7042     0.18971E-01 
  58942.9663     0.18803E-01 
  58975.2285     0.18636E-01 
  59007.4906     0.18471E-01 
  59039.7528     0.18307E-01 
  59072.0150     0.18145E-01 
  59104.2771     0.17984E-01 
  59136.5393     0.17824E-01 
  59168.8014     0.17666E-01 
  59201.0636     0.17509E-01 
  59233.3258     0.17354E-01 
  59265.5879     0.17201E-01 
  59297.8501     0.17049E-01 
  59330.1122     0.16898E-01 
  59362.3744     0.16749E-01 
  59394.6366     0.16602E-01 
  59426.8987     0.16456E-01 
  59459.1609     0.16312E-01 
  59491.4230     0.16169E-01 
  59523.6852     0.16028E-01 
  59555.9474     0.15889E-01 
  59588.2095     0.15751E-01 
  59620.4717     0.15615E-01 
  59652.7338     0.15481E-01 
  59684.9960     0.15348E-01 
  59717.2582     0.15217E-01 
  59749.5203     0.15088E-01 
  59781.7825     0.14960E-01 
  59814.0446     0.14835E-01 
  59846.3068     0.14711E-01 
  59878.5690     0.14589E-01 
  59910.8311     0.14468E-01 
  59943.0933     0.14350E-01 
  59975.3554     0.14233E-01 
  60007.6176     0.14119E-01 
  60039.8798     0.14006E-01 
  60072.1419     0.13895E-01 
  60104.4041     0.13786E-01 
  60136.6662     0.13679E-01 
  60168.9284     0.13573E-01 
  60201.1906     0.13470E-01 
  60233.4527     0.13369E-01 
  60265.7149     0.13270E-01 
  60297.9770     0.13173E-01 
  60330.2392     0.13078E-01 
  60362.5014     0.12985E-01 
  60394.7635     0.12894E-01 
  60427.0257     0.12805E-01 
  60459.2878     0.12718E-01 
  60491.5500     0.12634E-01 
  60523.8122     0.12551E-01 
  60556.0743     0.12471E-01 
  60588.3365     0.12393E-01 
  60620.5986     0.12317E-01 
  60652.8608     0.12244E-01 
  60685.1230     0.12173E-01 
  60717.3851     0.12104E-01 
  60749.6473     0.12037E-01 
  60781.9094     0.11973E-01 
  60814.1716     0.11911E-01 
  60846.4338     0.11851E-01 
  60878.6959     0.11794E-01 
  60910.9581     0.11740E-01 
  60943.2202     0.11687E-01 
  60975.4824     0.11638E-01 
  61007.7446     0.11590E-01 
  61040.0067     0.11546E-01 
  61072.2689     0.11503E-01 
  61104.5310     0.11464E-01 
  61136.7932     0.11427E-01 
  61169.0554     0.11392E-01 
  61201.3175     0.11361E-01 
  61233.5797     0.11332E-01 
  61265.8418     0.11305E-01 
  61298.1040     0.11281E-01 
  61330.3662     0.11261E-01 
  61362.6283     0.11242E-01 
  61394.8905     0.11227E-01 
  61427.1526     0.11214E-01 
  61459.4148     0.11205E-01 
  61491.6770     0.11198E-01 
  61523.9391     0.11194E-01 
  61556.2013     0.11193E-01 
  61588.4634     0.11195E-01 
  61620.7256     0.11200E-01 
  61652.9878     0.11208E-01 
  61685.2499     0.11219E-01 
  61717.5121     0.11233E-01 
  61749.7742     0.11250E-01 
  61782.0364     0.11271E-01 
  61814.2986     0.11294E-01 
  61846.5607     0.11321E-01 
  61878.8229     0.11351E-01 
  61911.0850     0.11384E-01 
  61943.3472     0.11420E-01 
  61975.6094     0.11460E-01 
  62007.8715     0.11503E-01 
  62040.1337     0.11549E-01 
  62072.3958     0.11599E-01 
  62104.6580     0.11652E-01 
  62136.9202     0.11709E-01 
  62169.1823     0.11769E-01 
  62201.4445     0.11833E-01 
  62233.7066     0.11900E-01 
  62265.9688     0.11971E-01 
  62298.2310     0.12046E-01 
  62330.4931     0.12124E-01 
  62362.7553     0.12206E-01 
  62395.0174     0.12291E-01 
  62427.2796     0.12380E-01 
  62459.5418     0.12474E-01 
  62491.8039     0.12570E-01 
  62524.0661     0.12671E-01 
  62556.3282     0.12776E-01 
  62588.5904     0.12885E-01 
  62620.8526     0.12997E-01 
  62653.1147     0.13114E-01 
  62685.3769     0.13234E-01 
  62717.6390     0.13359E-01 
  62749.9012     0.13488E-01 
  62782.1634     0.13621E-01 
  62814.4255     0.13758E-01 
  62846.6877     0.13899E-01 
  62878.9498     0.14045E-01 
  62911.2120     0.14195E-01 
  62943.4742     0.14349E-01 
  62975.7363     0.14507E-01 
  63007.9985     0.14670E-01 
  63040.2606     0.14838E-01 
  63072.5228     0.15010E-01 
  63104.7850     0.15186E-01 
  63137.0471     0.15367E-01 
  63169.3093     0.15553E-01 
  63201.5714     0.15743E-01 
  63233.8336     0.15938E-01 
  63266.0958     0.16138E-01 
  63298.3579     0.16342E-01 
  63330.6201     0.16551E-01 
  63362.8822     0.16765E-01 
  63395.1444     0.16984E-01 
  63427.4066     0.17208E-01 
  63459.6687     0.17437E-01 
  63491.9309     0.17671E-01 
  63524.1930     0.17910E-01 
  63556.4552     0.18154E-01 
  63588.7174     0.18403E-01 
  63620.9795     0.18657E-01 
  63653.2417     0.18917E-01 
  63685.5038     0.19182E-01 
  63717.7660     0.19452E-01 
  63750.0282     0.19728E-01 
  63782.2903     0.20009E-01 
  63814.5525     0.20295E-01 
  63846.8146     0.20587E-01 
  63879.0768     0.20884E-01 
  63911.3390     0.21187E-01 
  63943.6011     0.21496E-01 
  63975.8633     0.21810E-01 
  64008.1254     0.22130E-01 
  64040.3876     0.22456E-01 
  64072.6498     0.22788E-01 
  64104.9119     0.23125E-01 
  64137.1741     0.23469E-01 
  64169.4362     0.23818E-01 
  64201.6984     0.24173E-01 
  64233.9606     0.24535E-01 
  64266.2227     0.24902E-01 
  64298.4849     0.25276E-01 
  64330.7470     0.25656E-01 
  64363.0092     0.26042E-01 
  64395.2714     0.26434E-01 
  64427.5335     0.26833E-01 
  64459.7957     0.27238E-01 
  64492.0578     0.27650E-01 
  64524.3200     0.28068E-01 
  64556.5822     0.28492E-01 
  64588.8443     0.28923E-01 
  64621.1065     0.29361E-01 
  64653.3686     0.29806E-01 
  64685.6308     0.30257E-01 
  64717.8930     0.30715E-01 
  64750.1551     0.31180E-01 
  64782.4173     0.31651E-01 
  64814.6794     0.32130E-01 
  64846.9416     0.32616E-01 
  64879.2038     0.33109E-01 
  64911.4659     0.33608E-01 
  64943.7281     0.34115E-01 
  64975.9902     0.34629E-01 
  65008.2524     0.35151E-01 
  65040.5146     0.35680E-01 
  65072.7767     0.36216E-01 
  65105.0389     0.36759E-01 
  65137.3010     0.37310E-01 
  65169.5632     0.37869E-01 
  65201.8254     0.38435E-01 
  65234.0875     0.39008E-01 
  65266.3497     0.39590E-01 
  65298.6118     0.40179E-01 
  65330.8740     0.40776E-01 
  65363.1362     0.41380E-01 
  65395.3983     0.41993E-01 
  65427.6605     0.42613E-01 
  65459.9226     0.43242E-01 
  65492.1848     0.43879E-01 
  65524.4470     0.44523E-01 
  65556.7091     0.45176E-01 
  65588.9713     0.45837E-01 
  65621.2334     0.46507E-01 
  65653.4956     0.47184E-01 
  65685.7578     0.47870E-01 
  65718.0199     0.48565E-01 
  65750.2821     0.49268E-01 
  65782.5442     0.49979E-01 
  65814.8064     0.50699E-01 
  65847.0686     0.51428E-01 
  65879.3307     0.52166E-01 
  65911.5929     0.52912E-01 
  65943.8550     0.53667E-01 
  65976.1172     0.54431E-01 
  66008.3794     0.55204E-01 
  66040.6415     0.55986E-01 
  66072.9037     0.56777E-01 
  66105.1658     0.57577E-01 
  66137.4280     0.58386E-01 
  66169.6902     0.59205E-01 
  66201.9523     0.60033E-01 
  66234.2145     0.60870E-01 
  66266.4766     0.61716E-01 
  66298.7388     0.62572E-01 
  66331.0010     0.63437E-01 
  66363.2631     0.64312E-01 
  66395.5253     0.65197E-01 
  66427.7874     0.66091E-01 
  66460.0496     0.66995E-01 
  66492.3118     0.67909E-01 
  66524.5739     0.68832E-01 
  66556.8361     0.69766E-01 
  66589.0982     0.70709E-01 
  66621.3604     0.71663E-01 
  66653.6226     0.72626E-01 
  66685.8847     0.73600E-01 
  66718.1469     0.74583E-01 
  66750.4090     0.75577E-01 
  66782.6712     0.76581E-01 
  66814.9334     0.77596E-01 
  66847.1955     0.78621E-01 
  66879.4577     0.79656E-01 
  66911.7198     0.80702E-01 
  66943.9820     0.81759E-01 
  66976.2442     0.82826E-01 
  67008.5063     0.83903E-01 
  67040.7685     0.84992E-01 
  67073.0306     0.86091E-01 
  67105.2928     0.87201E-01 
  67137.5550     0.88322E-01 
  67169.8171     0.89454E-01 
  67202.0793     0.90597E-01 
  67234.3414     0.91751E-01 
  67266.6036     0.92916E-01 
  67298.8658     0.94092E-01 
  67331.1279     0.95279E-01 
  67363.3901     0.96478E-01 
  67395.6522     0.97688E-01 
  67427.9144     0.98909E-01 
  67460.1766     0.10014E+00 
  67492.4387     0.10139E+00 
  67524.7009     0.10264E+00 
  67556.9630     0.10391E+00 
  67589.2252     0.10519E+00 
  67621.4874     0.10648E+00 
  67653.7495     0.10778E+00 
  67686.0117     0.10910E+00 
  67718.2738     0.11042E+00 
  67750.5360     0.11176E+00 
  67782.7982     0.11311E+00 
  67815.0603     0.11447E+00 
  67847.3225     0.11584E+00 
  67879.5846     0.11723E+00 
  67911.8468     0.11863E+00 
  67944.1090     0.12004E+00 
  67976.3711     0.12146E+00 
  68008.6333     0.12290E+00 
  68040.8954     0.12434E+00 
  68073.1576     0.12580E+00 
  68105.4198     0.12727E+00 
  68137.6819     0.12876E+00 
  68169.9441     0.13026E+00 
  68202.2062     0.13177E+00 
  68234.4684     0.13329E+00 
  68266.7306     0.13482E+00 
  68298.9927     0.13637E+00 
  68331.2549     0.13793E+00 
  68363.5170     0.13950E+00 
  68395.7792     0.14109E+00 
  68428.0414     0.14269E+00 
  68460.3035     0.14430E+00 
  68492.5657     0.14592E+00 
  68524.8278     0.14756E+00 
  68557.0900     0.14921E+00 
  68589.3522     0.15088E+00 
  68621.6143     0.15255E+00 
  68653.8765     0.15424E+00 
  68686.1386     0.15595E+00 
  68718.4008     0.15766E+00 
  68750.6630     0.15939E+00 
  68782.9251     0.16114E+00 
  68815.1873     0.16289E+00 
  68847.4494     0.16466E+00 
  68879.7116     0.16645E+00 
  68911.9738     0.16824E+00 
  68944.2359     0.17005E+00 
  68976.4981     0.17188E+00 
  69008.7602     0.17372E+00 
  69041.0224     0.17557E+00 
  69073.2846     0.17743E+00 
  69105.5467     0.17931E+00 
  69137.8089     0.18120E+00 
  69170.0710     0.18311E+00 
  69202.3332     0.18503E+00 
  69234.5954     0.18696E+00 
  69266.8575     0.18891E+00 
  69299.1197     0.19087E+00 
  69331.3818     0.19285E+00 
  69363.6440     0.19484E+00 
  69395.9062     0.19684E+00 
  69428.1683     0.19886E+00 
  69460.4305     0.20089E+00 
  69492.6926     0.20294E+00 
  69524.9548     0.20500E+00 
  69557.2170     0.20707E+00 
  69589.4791     0.20916E+00 
  69621.7413     0.21126E+00 
  69654.0034     0.21338E+00 
  69686.2656     0.21551E+00 
  69718.5278     0.21765E+00 
  69750.7899     0.21981E+00 
  69783.0521     0.22199E+00 
  69815.3142     0.22417E+00 
  69847.5764     0.22638E+00 
  69879.8386     0.22859E+00 
  69912.1007     0.23082E+00 
  69944.3629     0.23307E+00 
  69976.6250     0.23533E+00 
  70008.8872     0.23760E+00 
  70041.1494     0.23989E+00 
  70073.4115     0.24220E+00 
  70105.6737     0.24451E+00 
  70137.9358     0.24685E+00 
  70170.1980     0.24919E+00 
  70202.4602     0.25155E+00 
  70234.7223     0.25393E+00 
  70266.9845     0.25632E+00 
  70299.2466     0.25872E+00 
  70331.5088     0.26114E+00 
  70363.7710     0.26358E+00 
  70396.0331     0.26602E+00 
  70428.2953     0.26849E+00 
  70460.5574     0.27097E+00 
  70492.8196     0.27346E+00 
  70525.0818     0.27596E+00 
  70557.3439     0.27849E+00 
  70589.6061     0.28102E+00 
  70621.8682     0.28357E+00 
  70654.1304     0.28614E+00 
  70686.3926     0.28872E+00 
  70718.6547     0.29131E+00 
  70750.9169     0.29392E+00 
  70783.1790     0.29654E+00 
  70815.4412     0.29918E+00 
  70847.7034     0.30183E+00 
  70879.9655     0.30450E+00 
  70912.2277     0.30718E+00 
  70944.4898     0.30988E+00 
  70976.7520     0.31259E+00 
  71009.0142     0.31532E+00 
  71041.2763     0.31806E+00 
  71073.5385     0.32081E+00 
  71105.8006     0.32358E+00 
  71138.0628     0.32636E+00 
  71170.3250     0.32916E+00 
  71202.5871     0.33197E+00 
  71234.8493     0.33480E+00 
  71267.1114     0.33764E+00 
  71299.3736     0.34050E+00 
  71331.6358     0.34337E+00 
  71363.8979     0.34625E+00 
  71396.1601     0.34915E+00 
  71428.4222     0.35207E+00 
  71460.6844     0.35499E+00 
  71492.9466     0.35793E+00 
  71525.2087     0.36089E+00 
  71557.4709     0.36386E+00 
  71589.7330     0.36685E+00 
  71621.9952     0.36985E+00 
  71654.2574     0.37286E+00 
  71686.5195     0.37589E+00 
  71718.7817     0.37893E+00 
  71751.0438     0.38198E+00 
  71783.3060     0.38505E+00 
  71815.5682     0.38814E+00 
  71847.8303     0.39123E+00 
  71880.0925     0.39435E+00 
  71912.3546     0.39747E+00 
  71944.6168     0.40061E+00 
  71976.8790     0.40376E+00 
  72009.1411     0.40693E+00 
  72041.4033     0.41011E+00 
  72073.6654     0.41331E+00 
  72105.9276     0.41651E+00 
  72138.1898     0.41974E+00 
  72170.4519     0.42297E+00 
  72202.7141     0.42622E+00 
  72234.9762     0.42948E+00 
  72267.2384     0.43276E+00 
  72299.5006     0.43605E+00 
  72331.7627     0.43935E+00 
  72364.0249     0.44267E+00 
  72396.2870     0.44600E+00 
  72428.5492     0.44934E+00 
  72460.8114     0.45270E+00 
  72493.0735     0.45606E+00 
  72525.3357     0.45945E+00 
  72557.5978     0.46284E+00 
  72589.8600     0.46625E+00 
