  32262.1600     0.39706E-01 
  32294.4222     0.40044E-01 
  32326.6843     0.40384E-01 
  32358.9465     0.40725E-01 
  32391.2086     0.41069E-01 
  32423.4708     0.41414E-01 
  32455.7330     0.41761E-01 
  32487.9951     0.42109E-01 
  32520.2573     0.42460E-01 
  32552.5194     0.42812E-01 
  32584.7816     0.43166E-01 
  32617.0438     0.43521E-01 
  32649.3059     0.43879E-01 
  32681.5681     0.44238E-01 
  32713.8302     0.44599E-01 
  32746.0924     0.44961E-01 
  32778.3546     0.45326E-01 
  32810.6167     0.45692E-01 
  32842.8789     0.46059E-01 
  32875.1410     0.46429E-01 
  32907.4032     0.46800E-01 
  32939.6654     0.47173E-01 
  32971.9275     0.47547E-01 
  33004.1897     0.47923E-01 
  33036.4518     0.48301E-01 
  33068.7140     0.48681E-01 
  33100.9762     0.49062E-01 
  33133.2383     0.49445E-01 
  33165.5005     0.49829E-01 
  33197.7626     0.50216E-01 
  33230.0248     0.50603E-01 
  33262.2870     0.50993E-01 
  33294.5491     0.51384E-01 
  33326.8113     0.51777E-01 
  33359.0734     0.52171E-01 
  33391.3356     0.52567E-01 
  33423.5978     0.52965E-01 
  33455.8599     0.53364E-01 
  33488.1221     0.53765E-01 
  33520.3842     0.54168E-01 
  33552.6464     0.54572E-01 
  33584.9086     0.54977E-01 
  33617.1707     0.55385E-01 
  33649.4329     0.55793E-01 
  33681.6950     0.56204E-01 
  33713.9572     0.56616E-01 
  33746.2194     0.57029E-01 
  33778.4815     0.57444E-01 
  33810.7437     0.57861E-01 
  33843.0058     0.58279E-01 
  33875.2680     0.58698E-01 
  33907.5302     0.59119E-01 
  33939.7923     0.59542E-01 
  33972.0545     0.59966E-01 
  34004.3166     0.60391E-01 
  34036.5788     0.60818E-01 
  34068.8410     0.61247E-01 
  34101.1031     0.61676E-01 
  34133.3653     0.62108E-01 
  34165.6274     0.62541E-01 
  34197.8896     0.62975E-01 
  34230.1518     0.63410E-01 
  34262.4139     0.63847E-01 
  34294.6761     0.64286E-01 
  34326.9382     0.64725E-01 
  34359.2004     0.65166E-01 
  34391.4626     0.65609E-01 
  34423.7247     0.66053E-01 
  34455.9869     0.66498E-01 
  34488.2490     0.66944E-01 
  34520.5112     0.67392E-01 
  34552.7734     0.67841E-01 
  34585.0355     0.68292E-01 
  34617.2977     0.68743E-01 
  34649.5598     0.69196E-01 
  34681.8220     0.69650E-01 
  34714.0842     0.70106E-01 
  34746.3463     0.70563E-01 
  34778.6085     0.71021E-01 
  34810.8706     0.71480E-01 
  34843.1328     0.71940E-01 
  34875.3950     0.72401E-01 
  34907.6571     0.72864E-01 
  34939.9193     0.73328E-01 
  34972.1814     0.73793E-01 
  35004.4436     0.74259E-01 
  35036.7058     0.74726E-01 
  35068.9679     0.75195E-01 
  35101.2301     0.75664E-01 
  35133.4922     0.76134E-01 
  35165.7544     0.76606E-01 
  35198.0166     0.77079E-01 
  35230.2787     0.77552E-01 
  35262.5409     0.78027E-01 
  35294.8030     0.78503E-01 
  35327.0652     0.78979E-01 
  35359.3274     0.79457E-01 
  35391.5895     0.79936E-01 
  35423.8517     0.80415E-01 
  35456.1138     0.80896E-01 
  35488.3760     0.81377E-01 
  35520.6382     0.81859E-01 
  35552.9003     0.82343E-01 
  35585.1625     0.82827E-01 
  35617.4246     0.83312E-01 
  35649.6868     0.83797E-01 
  35681.9490     0.84284E-01 
  35714.2111     0.84771E-01 
  35746.4733     0.85260E-01 
  35778.7354     0.85749E-01 
  35810.9976     0.86239E-01 
  35843.2598     0.86729E-01 
  35875.5219     0.87220E-01 
  35907.7841     0.87712E-01 
  35940.0462     0.88205E-01 
  35972.3084     0.88698E-01 
  36004.5706     0.89192E-01 
  36036.8327     0.89687E-01 
  36069.0949     0.90182E-01 
  36101.3570     0.90678E-01 
  36133.6192     0.91175E-01 
  36165.8814     0.91672E-01 
  36198.1435     0.92170E-01 
  36230.4057     0.92668E-01 
  36262.6678     0.93167E-01 
  36294.9300     0.93666E-01 
  36327.1922     0.94166E-01 
  36359.4543     0.94666E-01 
  36391.7165     0.95166E-01 
  36423.9786     0.95668E-01 
  36456.2408     0.96169E-01 
  36488.5030     0.96671E-01 
  36520.7651     0.97173E-01 
  36553.0273     0.97676E-01 
  36585.2894     0.98179E-01 
  36617.5516     0.98683E-01 
  36649.8138     0.99186E-01 
  36682.0759     0.99690E-01 
  36714.3381     0.10019E+00 
  36746.6002     0.10070E+00 
  36778.8624     0.10120E+00 
  36811.1246     0.10171E+00 
  36843.3867     0.10221E+00 
  36875.6489     0.10272E+00 
  36907.9110     0.10322E+00 
  36940.1732     0.10373E+00 
  36972.4354     0.10424E+00 
  37004.6975     0.10474E+00 
  37036.9597     0.10525E+00 
  37069.2218     0.10575E+00 
  37101.4840     0.10626E+00 
  37133.7462     0.10677E+00 
  37166.0083     0.10727E+00 
  37198.2705     0.10778E+00 
  37230.5326     0.10828E+00 
  37262.7948     0.10879E+00 
  37295.0570     0.10930E+00 
  37327.3191     0.10980E+00 
  37359.5813     0.11031E+00 
  37391.8434     0.11081E+00 
  37424.1056     0.11132E+00 
  37456.3678     0.11182E+00 
  37488.6299     0.11233E+00 
  37520.8921     0.11283E+00 
  37553.1542     0.11334E+00 
  37585.4164     0.11384E+00 
  37617.6786     0.11435E+00 
  37649.9407     0.11485E+00 
  37682.2029     0.11535E+00 
  37714.4650     0.11586E+00 
  37746.7272     0.11636E+00 
  37778.9894     0.11686E+00 
  37811.2515     0.11736E+00 
  37843.5137     0.11786E+00 
  37875.7758     0.11837E+00 
  37908.0380     0.11887E+00 
  37940.3002     0.11937E+00 
  37972.5623     0.11987E+00 
  38004.8245     0.12036E+00 
  38037.0866     0.12086E+00 
  38069.3488     0.12136E+00 
  38101.6110     0.12186E+00 
  38133.8731     0.12236E+00 
  38166.1353     0.12285E+00 
  38198.3974     0.12335E+00 
  38230.6596     0.12384E+00 
  38262.9218     0.12434E+00 
  38295.1839     0.12483E+00 
  38327.4461     0.12532E+00 
  38359.7082     0.12581E+00 
  38391.9704     0.12630E+00 
  38424.2326     0.12679E+00 
  38456.4947     0.12728E+00 
  38488.7569     0.12777E+00 
  38521.0190     0.12826E+00 
  38553.2812     0.12875E+00 
  38585.5434     0.12923E+00 
  38617.8055     0.12972E+00 
  38650.0677     0.13020E+00 
  38682.3298     0.13069E+00 
  38714.5920     0.13117E+00 
  38746.8542     0.13165E+00 
  38779.1163     0.13213E+00 
  38811.3785     0.13261E+00 
  38843.6406     0.13309E+00 
  38875.9028     0.13356E+00 
  38908.1650     0.13404E+00 
  38940.4271     0.13451E+00 
  38972.6893     0.13499E+00 
  39004.9514     0.13546E+00 
  39037.2136     0.13593E+00 
  39069.4758     0.13640E+00 
  39101.7379     0.13687E+00 
  39134.0001     0.13734E+00 
  39166.2622     0.13780E+00 
  39198.5244     0.13827E+00 
  39230.7866     0.13873E+00 
  39263.0487     0.13919E+00 
  39295.3109     0.13965E+00 
  39327.5730     0.14011E+00 
  39359.8352     0.14057E+00 
  39392.0974     0.14103E+00 
  39424.3595     0.14148E+00 
  39456.6217     0.14193E+00 
  39488.8838     0.14239E+00 
  39521.1460     0.14284E+00 
  39553.4082     0.14329E+00 
  39585.6703     0.14373E+00 
  39617.9325     0.14418E+00 
  39650.1946     0.14462E+00 
  39682.4568     0.14507E+00 
  39714.7190     0.14551E+00 
  39746.9811     0.14595E+00 
  39779.2433     0.14639E+00 
  39811.5054     0.14682E+00 
  39843.7676     0.14726E+00 
  39876.0298     0.14769E+00 
  39908.2919     0.14812E+00 
  39940.5541     0.14855E+00 
  39972.8162     0.14898E+00 
  40005.0784     0.14940E+00 
  40037.3406     0.14983E+00 
  40069.6027     0.15025E+00 
  40101.8649     0.15067E+00 
  40134.1270     0.15109E+00 
  40166.3892     0.15150E+00 
  40198.6514     0.15192E+00 
  40230.9135     0.15233E+00 
  40263.1757     0.15274E+00 
  40295.4378     0.15315E+00 
  40327.7000     0.15355E+00 
  40359.9622     0.15396E+00 
  40392.2243     0.15436E+00 
  40424.4865     0.15476E+00 
  40456.7486     0.15516E+00 
  40489.0108     0.15556E+00 
  40521.2730     0.15595E+00 
  40553.5351     0.15634E+00 
  40585.7973     0.15673E+00 
  40618.0594     0.15712E+00 
  40650.3216     0.15751E+00 
  40682.5838     0.15789E+00 
  40714.8459     0.15827E+00 
  40747.1081     0.15865E+00 
  40779.3702     0.15903E+00 
  40811.6324     0.15940E+00 
  40843.8946     0.15977E+00 
  40876.1567     0.16014E+00 
  40908.4189     0.16051E+00 
  40940.6810     0.16087E+00 
  40972.9432     0.16124E+00 
  41005.2054     0.16160E+00 
  41037.4675     0.16196E+00 
  41069.7297     0.16231E+00 
  41101.9918     0.16267E+00 
  41134.2540     0.16302E+00 
  41166.5162     0.16336E+00 
  41198.7783     0.16371E+00 
  41231.0405     0.16405E+00 
  41263.3026     0.16440E+00 
  41295.5648     0.16473E+00 
  41327.8270     0.16507E+00 
  41360.0891     0.16540E+00 
  41392.3513     0.16573E+00 
  41424.6134     0.16606E+00 
  41456.8756     0.16639E+00 
  41489.1378     0.16671E+00 
  41521.3999     0.16703E+00 
  41553.6621     0.16735E+00 
  41585.9242     0.16767E+00 
  41618.1864     0.16798E+00 
  41650.4486     0.16829E+00 
  41682.7107     0.16860E+00 
  41714.9729     0.16890E+00 
  41747.2350     0.16920E+00 
  41779.4972     0.16950E+00 
  41811.7594     0.16980E+00 
  41844.0215     0.17009E+00 
  41876.2837     0.17038E+00 
  41908.5458     0.17067E+00 
  41940.8080     0.17096E+00 
  41973.0702     0.17124E+00 
  42005.3323     0.17152E+00 
  42037.5945     0.17180E+00 
  42069.8566     0.17207E+00 
  42102.1188     0.17234E+00 
  42134.3810     0.17261E+00 
  42166.6431     0.17288E+00 
  42198.9053     0.17314E+00 
  42231.1674     0.17340E+00 
  42263.4296     0.17366E+00 
  42295.6918     0.17391E+00 
  42327.9539     0.17416E+00 
  42360.2161     0.17441E+00 
  42392.4782     0.17466E+00 
  42424.7404     0.17490E+00 
  42457.0026     0.17514E+00 
  42489.2647     0.17537E+00 
  42521.5269     0.17561E+00 
  42553.7890     0.17584E+00 
  42586.0512     0.17607E+00 
  42618.3134     0.17629E+00 
  42650.5755     0.17651E+00 
  42682.8377     0.17673E+00 
  42715.0998     0.17695E+00 
  42747.3620     0.17716E+00 
  42779.6242     0.17737E+00 
  42811.8863     0.17757E+00 
  42844.1485     0.17778E+00 
  42876.4106     0.17798E+00 
  42908.6728     0.17817E+00 
  42940.9350     0.17837E+00 
  42973.1971     0.17856E+00 
  43005.4593     0.17875E+00 
  43037.7214     0.17893E+00 
  43069.9836     0.17911E+00 
  43102.2458     0.17929E+00 
  43134.5079     0.17946E+00 
  43166.7701     0.17964E+00 
  43199.0322     0.17981E+00 
  43231.2944     0.17997E+00 
  43263.5566     0.18013E+00 
  43295.8187     0.18029E+00 
  43328.0809     0.18045E+00 
  43360.3430     0.18060E+00 
  43392.6052     0.18075E+00 
  43424.8674     0.18090E+00 
  43457.1295     0.18104E+00 
  43489.3917     0.18118E+00 
  43521.6538     0.18132E+00 
  43553.9160     0.18145E+00 
  43586.1782     0.18158E+00 
  43618.4403     0.18171E+00 
  43650.7025     0.18183E+00 
  43682.9646     0.18195E+00 
  43715.2268     0.18207E+00 
  43747.4890     0.18219E+00 
  43779.7511     0.18230E+00 
  43812.0133     0.18240E+00 
  43844.2754     0.18251E+00 
  43876.5376     0.18261E+00 
  43908.7998     0.18271E+00 
  43941.0619     0.18280E+00 
  43973.3241     0.18289E+00 
  44005.5862     0.18298E+00 
  44037.8484     0.18307E+00 
  44070.1106     0.18315E+00 
  44102.3727     0.18323E+00 
  44134.6349     0.18330E+00 
  44166.8970     0.18337E+00 
  44199.1592     0.18344E+00 
  44231.4214     0.18351E+00 
  44263.6835     0.18357E+00 
  44295.9457     0.18363E+00 
  44328.2078     0.18368E+00 
  44360.4700     0.18374E+00 
  44392.7322     0.18379E+00 
  44424.9943     0.18383E+00 
  44457.2565     0.18387E+00 
  44489.5186     0.18391E+00 
  44521.7808     0.18395E+00 
  44554.0430     0.18398E+00 
  44586.3051     0.18401E+00 
  44618.5673     0.18404E+00 
  44650.8294     0.18406E+00 
  44683.0916     0.18408E+00 
  44715.3538     0.18409E+00 
  44747.6159     0.18411E+00 
  44779.8781     0.18412E+00 
  44812.1402     0.18412E+00 
  44844.4024     0.18413E+00 
  44876.6646     0.18413E+00 
  44908.9267     0.18412E+00 
  44941.1889     0.18411E+00 
  44973.4510     0.18410E+00 
  45005.7132     0.18409E+00 
  45037.9754     0.18407E+00 
  45070.2375     0.18405E+00 
  45102.4997     0.18403E+00 
  45134.7618     0.18401E+00 
  45167.0240     0.18398E+00 
  45199.2862     0.18394E+00 
  45231.5483     0.18391E+00 
  45263.8105     0.18387E+00 
  45296.0726     0.18382E+00 
  45328.3348     0.18378E+00 
  45360.5970     0.18373E+00 
  45392.8591     0.18368E+00 
  45425.1213     0.18362E+00 
  45457.3834     0.18356E+00 
  45489.6456     0.18350E+00 
  45521.9078     0.18344E+00 
  45554.1699     0.18337E+00 
  45586.4321     0.18330E+00 
  45618.6942     0.18322E+00 
  45650.9564     0.18314E+00 
  45683.2186     0.18306E+00 
  45715.4807     0.18298E+00 
  45747.7429     0.18289E+00 
  45780.0050     0.18280E+00 
  45812.2672     0.18271E+00 
  45844.5294     0.18261E+00 
  45876.7915     0.18251E+00 
  45909.0537     0.18241E+00 
  45941.3158     0.18230E+00 
  45973.5780     0.18219E+00 
  46005.8402     0.18208E+00 
  46038.1023     0.18196E+00 
  46070.3645     0.18185E+00 
  46102.6266     0.18172E+00 
  46134.8888     0.18160E+00 
  46167.1510     0.18147E+00 
  46199.4131     0.18134E+00 
  46231.6753     0.18121E+00 
  46263.9374     0.18107E+00 
  46296.1996     0.18093E+00 
  46328.4618     0.18079E+00 
  46360.7239     0.18064E+00 
  46392.9861     0.18049E+00 
  46425.2482     0.18034E+00 
  46457.5104     0.18018E+00 
  46489.7726     0.18003E+00 
  46522.0347     0.17986E+00 
  46554.2969     0.17970E+00 
  46586.5590     0.17953E+00 
  46618.8212     0.17936E+00 
  46651.0834     0.17919E+00 
  46683.3455     0.17902E+00 
  46715.6077     0.17884E+00 
  46747.8698     0.17865E+00 
  46780.1320     0.17847E+00 
  46812.3942     0.17828E+00 
  46844.6563     0.17809E+00 
  46876.9185     0.17790E+00 
  46909.1806     0.17770E+00 
  46941.4428     0.17750E+00 
  46973.7050     0.17730E+00 
  47005.9671     0.17710E+00 
  47038.2293     0.17689E+00 
  47070.4914     0.17668E+00 
  47102.7536     0.17647E+00 
  47135.0158     0.17625E+00 
  47167.2779     0.17603E+00 
  47199.5401     0.17581E+00 
  47231.8022     0.17559E+00 
  47264.0644     0.17536E+00 
  47296.3266     0.17513E+00 
  47328.5887     0.17490E+00 
  47360.8509     0.17467E+00 
  47393.1130     0.17443E+00 
  47425.3752     0.17419E+00 
  47457.6374     0.17395E+00 
  47489.8995     0.17370E+00 
  47522.1617     0.17345E+00 
  47554.4238     0.17320E+00 
  47586.6860     0.17295E+00 
  47618.9482     0.17269E+00 
  47651.2103     0.17243E+00 
  47683.4725     0.17217E+00 
  47715.7346     0.17191E+00 
  47747.9968     0.17164E+00 
  47780.2590     0.17137E+00 
  47812.5211     0.17110E+00 
  47844.7833     0.17083E+00 
  47877.0454     0.17055E+00 
  47909.3076     0.17027E+00 
  47941.5698     0.16999E+00 
  47973.8319     0.16971E+00 
  48006.0941     0.16942E+00 
  48038.3562     0.16913E+00 
  48070.6184     0.16884E+00 
  48102.8806     0.16855E+00 
  48135.1427     0.16825E+00 
  48167.4049     0.16796E+00 
  48199.6670     0.16766E+00 
  48231.9292     0.16735E+00 
  48264.1914     0.16705E+00 
  48296.4535     0.16674E+00 
  48328.7157     0.16643E+00 
  48360.9778     0.16612E+00 
  48393.2400     0.16581E+00 
  48425.5022     0.16549E+00 
  48457.7643     0.16517E+00 
  48490.0265     0.16485E+00 
  48522.2886     0.16453E+00 
  48554.5508     0.16420E+00 
  48586.8130     0.16387E+00 
  48619.0751     0.16354E+00 
  48651.3373     0.16321E+00 
  48683.5994     0.16288E+00 
  48715.8616     0.16254E+00 
  48748.1238     0.16220E+00 
  48780.3859     0.16186E+00 
  48812.6481     0.16152E+00 
  48844.9102     0.16118E+00 
  48877.1724     0.16083E+00 
  48909.4346     0.16048E+00 
  48941.6967     0.16013E+00 
  48973.9589     0.15978E+00 
  49006.2210     0.15942E+00 
  49038.4832     0.15907E+00 
  49070.7454     0.15871E+00 
  49103.0075     0.15835E+00 
  49135.2697     0.15799E+00 
  49167.5318     0.15762E+00 
  49199.7940     0.15726E+00 
  49232.0562     0.15689E+00 
  49264.3183     0.15652E+00 
  49296.5805     0.15615E+00 
  49328.8426     0.15577E+00 
  49361.1048     0.15540E+00 
  49393.3670     0.15502E+00 
  49425.6291     0.15464E+00 
  49457.8913     0.15426E+00 
  49490.1534     0.15388E+00 
  49522.4156     0.15349E+00 
  49554.6778     0.15311E+00 
  49586.9399     0.15272E+00 
  49619.2021     0.15233E+00 
  49651.4642     0.15194E+00 
  49683.7264     0.15155E+00 
  49715.9886     0.15115E+00 
  49748.2507     0.15076E+00 
  49780.5129     0.15036E+00 
  49812.7750     0.14996E+00 
  49845.0372     0.14956E+00 
  49877.2994     0.14916E+00 
  49909.5615     0.14876E+00 
  49941.8237     0.14835E+00 
  49974.0858     0.14794E+00 
  50006.3480     0.14754E+00 
  50038.6102     0.14713E+00 
  50070.8723     0.14672E+00 
  50103.1345     0.14630E+00 
  50135.3966     0.14589E+00 
  50167.6588     0.14547E+00 
  50199.9210     0.14506E+00 
  50232.1831     0.14464E+00 
  50264.4453     0.14422E+00 
  50296.7074     0.14380E+00 
  50328.9696     0.14338E+00 
  50361.2318     0.14295E+00 
  50393.4939     0.14253E+00 
  50425.7561     0.14210E+00 
  50458.0182     0.14167E+00 
  50490.2804     0.14125E+00 
  50522.5426     0.14082E+00 
  50554.8047     0.14038E+00 
  50587.0669     0.13995E+00 
  50619.3290     0.13952E+00 
  50651.5912     0.13908E+00 
  50683.8534     0.13865E+00 
  50716.1155     0.13821E+00 
  50748.3777     0.13777E+00 
  50780.6398     0.13734E+00 
  50812.9020     0.13689E+00 
  50845.1642     0.13645E+00 
  50877.4263     0.13601E+00 
  50909.6885     0.13557E+00 
  50941.9506     0.13512E+00 
  50974.2128     0.13468E+00 
  51006.4750     0.13423E+00 
  51038.7371     0.13378E+00 
  51070.9993     0.13334E+00 
  51103.2614     0.13289E+00 
  51135.5236     0.13244E+00 
  51167.7858     0.13199E+00 
  51200.0479     0.13153E+00 
  51232.3101     0.13108E+00 
  51264.5722     0.13063E+00 
  51296.8344     0.13017E+00 
  51329.0966     0.12972E+00 
  51361.3587     0.12926E+00 
  51393.6209     0.12880E+00 
  51425.8830     0.12835E+00 
  51458.1452     0.12789E+00 
  51490.4074     0.12743E+00 
  51522.6695     0.12697E+00 
  51554.9317     0.12651E+00 
  51587.1938     0.12605E+00 
  51619.4560     0.12558E+00 
  51651.7182     0.12512E+00 
  51683.9803     0.12466E+00 
  51716.2425     0.12419E+00 
  51748.5046     0.12373E+00 
  51780.7668     0.12326E+00 
  51813.0290     0.12280E+00 
  51845.2911     0.12233E+00 
  51877.5533     0.12186E+00 
  51909.8154     0.12139E+00 
  51942.0776     0.12093E+00 
  51974.3398     0.12046E+00 
  52006.6019     0.11999E+00 
  52038.8641     0.11952E+00 
  52071.1262     0.11905E+00 
  52103.3884     0.11858E+00 
  52135.6506     0.11811E+00 
  52167.9127     0.11763E+00 
  52200.1749     0.11716E+00 
  52232.4370     0.11669E+00 
  52264.6992     0.11622E+00 
  52296.9614     0.11574E+00 
  52329.2235     0.11527E+00 
  52361.4857     0.11480E+00 
  52393.7478     0.11432E+00 
  52426.0100     0.11385E+00 
  52458.2722     0.11337E+00 
  52490.5343     0.11290E+00 
  52522.7965     0.11242E+00 
  52555.0586     0.11195E+00 
  52587.3208     0.11147E+00 
  52619.5830     0.11099E+00 
  52651.8451     0.11052E+00 
  52684.1073     0.11004E+00 
  52716.3694     0.10956E+00 
  52748.6316     0.10909E+00 
  52780.8938     0.10861E+00 
  52813.1559     0.10813E+00 
  52845.4181     0.10765E+00 
  52877.6802     0.10718E+00 
  52909.9424     0.10670E+00 
  52942.2046     0.10622E+00 
  52974.4667     0.10574E+00 
  53006.7289     0.10527E+00 
  53038.9910     0.10479E+00 
  53071.2532     0.10431E+00 
  53103.5154     0.10383E+00 
  53135.7775     0.10335E+00 
  53168.0397     0.10287E+00 
  53200.3018     0.10240E+00 
  53232.5640     0.10192E+00 
  53264.8262     0.10144E+00 
  53297.0883     0.10096E+00 
  53329.3505     0.10048E+00 
  53361.6126     0.10001E+00 
  53393.8748     0.99529E-01 
  53426.1370     0.99051E-01 
  53458.3991     0.98574E-01 
  53490.6613     0.98097E-01 
  53522.9234     0.97619E-01 
  53555.1856     0.97142E-01 
  53587.4478     0.96665E-01 
  53619.7099     0.96189E-01 
  53651.9721     0.95712E-01 
  53684.2342     0.95236E-01 
  53716.4964     0.94760E-01 
  53748.7586     0.94284E-01 
  53781.0207     0.93808E-01 
  53813.2829     0.93333E-01 
  53845.5450     0.92858E-01 
  53877.8072     0.92383E-01 
  53910.0694     0.91909E-01 
  53942.3315     0.91435E-01 
  53974.5937     0.90961E-01 
  54006.8558     0.90487E-01 
  54039.1180     0.90014E-01 
  54071.3802     0.89541E-01 
  54103.6423     0.89069E-01 
  54135.9045     0.88597E-01 
  54168.1666     0.88125E-01 
  54200.4288     0.87654E-01 
  54232.6910     0.87183E-01 
  54264.9531     0.86713E-01 
  54297.2153     0.86243E-01 
  54329.4774     0.85773E-01 
  54361.7396     0.85304E-01 
  54394.0018     0.84836E-01 
  54426.2639     0.84368E-01 
  54458.5261     0.83900E-01 
  54490.7882     0.83433E-01 
  54523.0504     0.82967E-01 
  54555.3126     0.82501E-01 
  54587.5747     0.82035E-01 
  54619.8369     0.81570E-01 
  54652.0990     0.81106E-01 
  54684.3612     0.80642E-01 
  54716.6234     0.80179E-01 
  54748.8855     0.79717E-01 
  54781.1477     0.79255E-01 
  54813.4098     0.78794E-01 
  54845.6720     0.78333E-01 
  54877.9342     0.77873E-01 
  54910.1963     0.77414E-01 
  54942.4585     0.76955E-01 
  54974.7206     0.76497E-01 
  55006.9828     0.76040E-01 
  55039.2450     0.75583E-01 
  55071.5071     0.75127E-01 
  55103.7693     0.74672E-01 
  55136.0314     0.74218E-01 
  55168.2936     0.73764E-01 
  55200.5558     0.73312E-01 
  55232.8179     0.72859E-01 
  55265.0801     0.72408E-01 
  55297.3422     0.71958E-01 
  55329.6044     0.71508E-01 
  55361.8666     0.71059E-01 
  55394.1287     0.70611E-01 
  55426.3909     0.70164E-01 
  55458.6530     0.69718E-01 
  55490.9152     0.69272E-01 
  55523.1774     0.68827E-01 
  55555.4395     0.68384E-01 
  55587.7017     0.67941E-01 
  55619.9638     0.67499E-01 
  55652.2260     0.67058E-01 
  55684.4882     0.66618E-01 
  55716.7503     0.66179E-01 
  55749.0125     0.65741E-01 
  55781.2746     0.65303E-01 
  55813.5368     0.64867E-01 
  55845.7990     0.64432E-01 
  55878.0611     0.63997E-01 
  55910.3233     0.63564E-01 
  55942.5854     0.63132E-01 
  55974.8476     0.62701E-01 
  56007.1098     0.62270E-01 
  56039.3719     0.61841E-01 
  56071.6341     0.61413E-01 
  56103.8962     0.60986E-01 
  56136.1584     0.60560E-01 
  56168.4206     0.60135E-01 
  56200.6827     0.59711E-01 
  56232.9449     0.59288E-01 
  56265.2070     0.58867E-01 
  56297.4692     0.58446E-01 
  56329.7314     0.58027E-01 
  56361.9935     0.57609E-01 
  56394.2557     0.57192E-01 
  56426.5178     0.56776E-01 
  56458.7800     0.56362E-01 
  56491.0422     0.55948E-01 
  56523.3043     0.55536E-01 
  56555.5665     0.55125E-01 
  56587.8286     0.54715E-01 
  56620.0908     0.54307E-01 
  56652.3530     0.53899E-01 
  56684.6151     0.53493E-01 
  56716.8773     0.53089E-01 
  56749.1394     0.52685E-01 
  56781.4016     0.52283E-01 
  56813.6638     0.51882E-01 
  56845.9259     0.51483E-01 
  56878.1881     0.51085E-01 
  56910.4502     0.50688E-01 
  56942.7124     0.50292E-01 
  56974.9746     0.49898E-01 
  57007.2367     0.49506E-01 
  57039.4989     0.49114E-01 
  57071.7610     0.48724E-01 
  57104.0232     0.48336E-01 
  57136.2854     0.47949E-01 
  57168.5475     0.47563E-01 
  57200.8097     0.47179E-01 
  57233.0718     0.46796E-01 
  57265.3340     0.46415E-01 
  57297.5962     0.46035E-01 
  57329.8583     0.45657E-01 
  57362.1205     0.45280E-01 
  57394.3826     0.44905E-01 
  57426.6448     0.44531E-01 
  57458.9070     0.44159E-01 
  57491.1691     0.43788E-01 
  57523.4313     0.43419E-01 
  57555.6934     0.43052E-01 
  57587.9556     0.42686E-01 
  57620.2178     0.42322E-01 
  57652.4799     0.41959E-01 
  57684.7421     0.41598E-01 
  57717.0042     0.41239E-01 
  57749.2664     0.40881E-01 
  57781.5286     0.40525E-01 
  57813.7907     0.40171E-01 
  57846.0529     0.39819E-01 
  57878.3150     0.39468E-01 
  57910.5772     0.39119E-01 
  57942.8394     0.38771E-01 
  57975.1015     0.38426E-01 
  58007.3637     0.38082E-01 
  58039.6258     0.37740E-01 
  58071.8880     0.37400E-01 
  58104.1502     0.37061E-01 
  58136.4123     0.36725E-01 
  58168.6745     0.36390E-01 
  58200.9366     0.36057E-01 
  58233.1988     0.35726E-01 
  58265.4610     0.35397E-01 
  58297.7231     0.35070E-01 
  58329.9853     0.34745E-01 
  58362.2474     0.34422E-01 
  58394.5096     0.34100E-01 
  58426.7718     0.33781E-01 
  58459.0339     0.33464E-01 
  58491.2961     0.33148E-01 
  58523.5582     0.32835E-01 
  58555.8204     0.32524E-01 
  58588.0826     0.32215E-01 
  58620.3447     0.31907E-01 
  58652.6069     0.31602E-01 
  58684.8690     0.31299E-01 
  58717.1312     0.30999E-01 
  58749.3934     0.30700E-01 
  58781.6555     0.30403E-01 
  58813.9177     0.30109E-01 
  58846.1798     0.29817E-01 
  58878.4420     0.29527E-01 
  58910.7042     0.29239E-01 
  58942.9663     0.28954E-01 
  58975.2285     0.28671E-01 
  59007.4906     0.28390E-01 
  59039.7528     0.28111E-01 
  59072.0150     0.27835E-01 
  59104.2771     0.27561E-01 
  59136.5393     0.27290E-01 
  59168.8014     0.27021E-01 
  59201.0636     0.26754E-01 
  59233.3258     0.26490E-01 
  59265.5879     0.26228E-01 
  59297.8501     0.25969E-01 
  59330.1122     0.25712E-01 
  59362.3744     0.25457E-01 
  59394.6366     0.25206E-01 
  59426.8987     0.24956E-01 
  59459.1609     0.24710E-01 
  59491.4230     0.24466E-01 
  59523.6852     0.24224E-01 
  59555.9474     0.23985E-01 
  59588.2095     0.23749E-01 
  59620.4717     0.23516E-01 
  59652.7338     0.23285E-01 
  59684.9960     0.23057E-01 
  59717.2582     0.22832E-01 
  59749.5203     0.22610E-01 
  59781.7825     0.22390E-01 
  59814.0446     0.22173E-01 
  59846.3068     0.21959E-01 
  59878.5690     0.21748E-01 
  59910.8311     0.21540E-01 
  59943.0933     0.21335E-01 
  59975.3554     0.21133E-01 
  60007.6176     0.20934E-01 
  60039.8798     0.20738E-01 
  60072.1419     0.20545E-01 
  60104.4041     0.20355E-01 
  60136.6662     0.20168E-01 
  60168.9284     0.19984E-01 
  60201.1906     0.19803E-01 
  60233.4527     0.19626E-01 
  60265.7149     0.19452E-01 
  60297.9770     0.19281E-01 
  60330.2392     0.19113E-01 
  60362.5014     0.18949E-01 
  60394.7635     0.18788E-01 
  60427.0257     0.18630E-01 
  60459.2878     0.18476E-01 
  60491.5500     0.18325E-01 
  60523.8122     0.18177E-01 
  60556.0743     0.18033E-01 
  60588.3365     0.17893E-01 
  60620.5986     0.17756E-01 
  60652.8608     0.17623E-01 
  60685.1230     0.17493E-01 
  60717.3851     0.17367E-01 
  60749.6473     0.17245E-01 
  60781.9094     0.17127E-01 
  60814.1716     0.17012E-01 
  60846.4338     0.16901E-01 
  60878.6959     0.16794E-01 
  60910.9581     0.16690E-01 
  60943.2202     0.16591E-01 
  60975.4824     0.16495E-01 
  61007.7446     0.16404E-01 
  61040.0067     0.16316E-01 
  61072.2689     0.16233E-01 
  61104.5310     0.16154E-01 
  61136.7932     0.16078E-01 
  61169.0554     0.16007E-01 
  61201.3175     0.15940E-01 
  61233.5797     0.15878E-01 
  61265.8418     0.15819E-01 
  61298.1040     0.15765E-01 
  61330.3662     0.15716E-01 
  61362.6283     0.15670E-01 
  61394.8905     0.15629E-01 
  61427.1526     0.15593E-01 
  61459.4148     0.15561E-01 
  61491.6770     0.15534E-01 
  61523.9391     0.15511E-01 
  61556.2013     0.15493E-01 
  61588.4634     0.15480E-01 
  61620.7256     0.15471E-01 
  61652.9878     0.15467E-01 
  61685.2499     0.15469E-01 
  61717.5121     0.15474E-01 
  61749.7742     0.15485E-01 
  61782.0364     0.15501E-01 
  61814.2986     0.15522E-01 
  61846.5607     0.15548E-01 
  61878.8229     0.15579E-01 
  61911.0850     0.15615E-01 
  61943.3472     0.15656E-01 
  61975.6094     0.15703E-01 
  62007.8715     0.15755E-01 
  62040.1337     0.15812E-01 
  62072.3958     0.15875E-01 
  62104.6580     0.15943E-01 
  62136.9202     0.16017E-01 
  62169.1823     0.16096E-01 
  62201.4445     0.16181E-01 
  62233.7066     0.16271E-01 
  62265.9688     0.16367E-01 
  62298.2310     0.16469E-01 
  62330.4931     0.16577E-01 
  62362.7553     0.16691E-01 
  62395.0174     0.16810E-01 
  62427.2796     0.16936E-01 
  62459.5418     0.17067E-01 
  62491.8039     0.17205E-01 
  62524.0661     0.17349E-01 
  62556.3282     0.17499E-01 
  62588.5904     0.17655E-01 
  62620.8526     0.17818E-01 
  62653.1147     0.17987E-01 
  62685.3769     0.18163E-01 
  62717.6390     0.18345E-01 
  62749.9012     0.18533E-01 
  62782.1634     0.18728E-01 
  62814.4255     0.18930E-01 
  62846.6877     0.19139E-01 
  62878.9498     0.19354E-01 
  62911.2120     0.19577E-01 
  62943.4742     0.19806E-01 
  62975.7363     0.20042E-01 
  63007.9985     0.20285E-01 
  63040.2606     0.20536E-01 
  63072.5228     0.20793E-01 
  63104.7850     0.21058E-01 
  63137.0471     0.21330E-01 
  63169.3093     0.21610E-01 
  63201.5714     0.21897E-01 
  63233.8336     0.22191E-01 
  63266.0958     0.22494E-01 
  63298.3579     0.22803E-01 
  63330.6201     0.23121E-01 
  63362.8822     0.23446E-01 
  63395.1444     0.23779E-01 
  63427.4066     0.24120E-01 
  63459.6687     0.24470E-01 
  63491.9309     0.24827E-01 
  63524.1930     0.25192E-01 
  63556.4552     0.25566E-01 
  63588.7174     0.25947E-01 
  63620.9795     0.26338E-01 
  63653.2417     0.26736E-01 
  63685.5038     0.27143E-01 
  63717.7660     0.27559E-01 
  63750.0282     0.27984E-01 
  63782.2903     0.28417E-01 
  63814.5525     0.28859E-01 
  63846.8146     0.29309E-01 
  63879.0768     0.29769E-01 
  63911.3390     0.30238E-01 
  63943.6011     0.30716E-01 
  63975.8633     0.31203E-01 
  64008.1254     0.31699E-01 
  64040.3876     0.32205E-01 
  64072.6498     0.32720E-01 
  64104.9119     0.33245E-01 
  64137.1741     0.33779E-01 
  64169.4362     0.34323E-01 
  64201.6984     0.34877E-01 
  64233.9606     0.35441E-01 
  64266.2227     0.36014E-01 
  64298.4849     0.36598E-01 
  64330.7470     0.37191E-01 
  64363.0092     0.37795E-01 
  64395.2714     0.38409E-01 
  64427.5335     0.39033E-01 
  64459.7957     0.39668E-01 
  64492.0578     0.40314E-01 
  64524.3200     0.40969E-01 
  64556.5822     0.41636E-01 
  64588.8443     0.42313E-01 
  64621.1065     0.43001E-01 
  64653.3686     0.43701E-01 
  64685.6308     0.44411E-01 
  64717.8930     0.45132E-01 
  64750.1551     0.45864E-01 
  64782.4173     0.46608E-01 
  64814.6794     0.47363E-01 
  64846.9416     0.48130E-01 
  64879.2038     0.48908E-01 
  64911.4659     0.49698E-01 
  64943.7281     0.50500E-01 
  64975.9902     0.51313E-01 
  65008.2524     0.52138E-01 
  65040.5146     0.52976E-01 
  65072.7767     0.53825E-01 
  65105.0389     0.54687E-01 
  65137.3010     0.55561E-01 
  65169.5632     0.56447E-01 
  65201.8254     0.57346E-01 
  65234.0875     0.58258E-01 
  65266.3497     0.59182E-01 
  65298.6118     0.60119E-01 
  65330.8740     0.61068E-01 
  65363.1362     0.62031E-01 
  65395.3983     0.63007E-01 
  65427.6605     0.63996E-01 
  65459.9226     0.64998E-01 
  65492.1848     0.66014E-01 
  65524.4470     0.67043E-01 
  65556.7091     0.68085E-01 
  65588.9713     0.69141E-01 
  65621.2334     0.70211E-01 
  65653.4956     0.71295E-01 
  65685.7578     0.72393E-01 
  65718.0199     0.73505E-01 
  65750.2821     0.74630E-01 
  65782.5442     0.75771E-01 
  65814.8064     0.76925E-01 
  65847.0686     0.78094E-01 
  65879.3307     0.79277E-01 
  65911.5929     0.80475E-01 
  65943.8550     0.81688E-01 
  65976.1172     0.82916E-01 
  66008.3794     0.84158E-01 
  66040.6415     0.85416E-01 
  66072.9037     0.86688E-01 
  66105.1658     0.87976E-01 
  66137.4280     0.89280E-01 
  66169.6902     0.90598E-01 
  66201.9523     0.91933E-01 
  66234.2145     0.93282E-01 
  66266.4766     0.94648E-01 
  66298.7388     0.96030E-01 
  66331.0010     0.97427E-01 
  66363.2631     0.98841E-01 
  66395.5253     0.10027E+00 
  66427.7874     0.10172E+00 
  66460.0496     0.10318E+00 
  66492.3118     0.10466E+00 
  66524.5739     0.10615E+00 
  66556.8361     0.10766E+00 
  66589.0982     0.10919E+00 
  66621.3604     0.11074E+00 
  66653.6226     0.11230E+00 
  66685.8847     0.11388E+00 
  66718.1469     0.11548E+00 
  66750.4090     0.11709E+00 
  66782.6712     0.11872E+00 
  66814.9334     0.12037E+00 
  66847.1955     0.12204E+00 
  66879.4577     0.12372E+00 
  66911.7198     0.12543E+00 
  66943.9820     0.12715E+00 
  66976.2442     0.12888E+00 
  67008.5063     0.13064E+00 
  67040.7685     0.13241E+00 
  67073.0306     0.13421E+00 
  67105.2928     0.13602E+00 
  67137.5550     0.13785E+00 
  67169.8171     0.13970E+00 
  67202.0793     0.14156E+00 
  67234.3414     0.14345E+00 
  67266.6036     0.14535E+00 
  67298.8658     0.14728E+00 
  67331.1279     0.14922E+00 
  67363.3901     0.15118E+00 
  67395.6522     0.15317E+00 
  67427.9144     0.15517E+00 
  67460.1766     0.15719E+00 
  67492.4387     0.15923E+00 
  67524.7009     0.16129E+00 
  67556.9630     0.16337E+00 
  67589.2252     0.16547E+00 
  67621.4874     0.16759E+00 
  67653.7495     0.16973E+00 
  67686.0117     0.17189E+00 
  67718.2738     0.17407E+00 
  67750.5360     0.17627E+00 
  67782.7982     0.17849E+00 
  67815.0603     0.18073E+00 
  67847.3225     0.18299E+00 
  67879.5846     0.18528E+00 
  67911.8468     0.18758E+00 
  67944.1090     0.18991E+00 
  67976.3711     0.19225E+00 
  68008.6333     0.19462E+00 
  68040.8954     0.19701E+00 
  68073.1576     0.19942E+00 
  68105.4198     0.20185E+00 
  68137.6819     0.20431E+00 
  68169.9441     0.20678E+00 
  68202.2062     0.20928E+00 
  68234.4684     0.21180E+00 
  68266.7306     0.21434E+00 
  68298.9927     0.21690E+00 
  68331.2549     0.21949E+00 
  68363.5170     0.22209E+00 
  68395.7792     0.22472E+00 
  68428.0414     0.22737E+00 
  68460.3035     0.23005E+00 
  68492.5657     0.23275E+00 
  68524.8278     0.23546E+00 
  68557.0900     0.23821E+00 
  68589.3522     0.24097E+00 
  68621.6143     0.24376E+00 
  68653.8765     0.24657E+00 
  68686.1386     0.24941E+00 
  68718.4008     0.25226E+00 
  68750.6630     0.25514E+00 
  68782.9251     0.25805E+00 
  68815.1873     0.26097E+00 
  68847.4494     0.26393E+00 
  68879.7116     0.26690E+00 
  68911.9738     0.26990E+00 
  68944.2359     0.27292E+00 
  68976.4981     0.27596E+00 
  69008.7602     0.27903E+00 
  69041.0224     0.28213E+00 
  69073.2846     0.28524E+00 
  69105.5467     0.28839E+00 
  69137.8089     0.29155E+00 
  69170.0710     0.29474E+00 
  69202.3332     0.29795E+00 
  69234.5954     0.30119E+00 
  69266.8575     0.30446E+00 
  69299.1197     0.30774E+00 
  69331.3818     0.31105E+00 
  69363.6440     0.31439E+00 
  69395.9062     0.31775E+00 
  69428.1683     0.32114E+00 
  69460.4305     0.32455E+00 
  69492.6926     0.32799E+00 
  69524.9548     0.33145E+00 
  69557.2170     0.33493E+00 
  69589.4791     0.33844E+00 
  69621.7413     0.34198E+00 
  69654.0034     0.34554E+00 
  69686.2656     0.34913E+00 
  69718.5278     0.35274E+00 
  69750.7899     0.35637E+00 
  69783.0521     0.36004E+00 
  69815.3142     0.36372E+00 
  69847.5764     0.36744E+00 
  69879.8386     0.37117E+00 
  69912.1007     0.37494E+00 
  69944.3629     0.37873E+00 
  69976.6250     0.38254E+00 
  70008.8872     0.38639E+00 
  70041.1494     0.39025E+00 
  70073.4115     0.39415E+00 
  70105.6737     0.39806E+00 
  70137.9358     0.40201E+00 
  70170.1980     0.40598E+00 
  70202.4602     0.40998E+00 
  70234.7223     0.41400E+00 
  70266.9845     0.41805E+00 
  70299.2466     0.42212E+00 
  70331.5088     0.42622E+00 
  70363.7710     0.43035E+00 
  70396.0331     0.43450E+00 
  70428.2953     0.43868E+00 
  70460.5574     0.44288E+00 
  70492.8196     0.44711E+00 
  70525.0818     0.45137E+00 
  70557.3439     0.45566E+00 
  70589.6061     0.45997E+00 
  70621.8682     0.46430E+00 
  70654.1304     0.46866E+00 
  70686.3926     0.47305E+00 
  70718.6547     0.47747E+00 
  70750.9169     0.48191E+00 
  70783.1790     0.48638E+00 
  70815.4412     0.49087E+00 
  70847.7034     0.49539E+00 
  70879.9655     0.49994E+00 
  70912.2277     0.50451E+00 
  70944.4898     0.50911E+00 
  70976.7520     0.51374E+00 
  71009.0142     0.51839E+00 
  71041.2763     0.52307E+00 
  71073.5385     0.52777E+00 
  71105.8006     0.53250E+00 
  71138.0628     0.53726E+00 
  71170.3250     0.54204E+00 
  71202.5871     0.54685E+00 
  71234.8493     0.55169E+00 
  71267.1114     0.55655E+00 
  71299.3736     0.56144E+00 
  71331.6358     0.56635E+00 
  71363.8979     0.57130E+00 
  71396.1601     0.57626E+00 
  71428.4222     0.58126E+00 
  71460.6844     0.58628E+00 
  71492.9466     0.59132E+00 
  71525.2087     0.59639E+00 
  71557.4709     0.60149E+00 
  71589.7330     0.60662E+00 
  71621.9952     0.61177E+00 
  71654.2574     0.61694E+00 
  71686.5195     0.62214E+00 
  71718.7817     0.62737E+00 
  71751.0438     0.63262E+00 
  71783.3060     0.63790E+00 
  71815.5682     0.64321E+00 
  71847.8303     0.64854E+00 
  71880.0925     0.65390E+00 
  71912.3546     0.65928E+00 
  71944.6168     0.66468E+00 
  71976.8790     0.67012E+00 
  72009.1411     0.67558E+00 
  72041.4033     0.68106E+00 
  72073.6654     0.68657E+00 
  72105.9276     0.69210E+00 
  72138.1898     0.69766E+00 
  72170.4519     0.70325E+00 
  72202.7141     0.70886E+00 
  72234.9762     0.71449E+00 
  72267.2384     0.72015E+00 
  72299.5006     0.72583E+00 
  72331.7627     0.73154E+00 
  72364.0249     0.73728E+00 
  72396.2870     0.74303E+00 
  72428.5492     0.74882E+00 
  72460.8114     0.75462E+00 
  72493.0735     0.76046E+00 
  72525.3357     0.76631E+00 
  72557.5978     0.77219E+00 
  72589.8600     0.77810E+00 
