  32262.1600     0.16082E-04 
  32294.4222     0.16225E-04 
  32326.6843     0.16368E-04 
  32358.9465     0.16513E-04 
  32391.2086     0.16658E-04 
  32423.4708     0.16804E-04 
  32455.7330     0.16950E-04 
  32487.9951     0.17098E-04 
  32520.2573     0.17246E-04 
  32552.5194     0.17395E-04 
  32584.7816     0.17545E-04 
  32617.0438     0.17695E-04 
  32649.3059     0.17847E-04 
  32681.5681     0.17999E-04 
  32713.8302     0.18152E-04 
  32746.0924     0.18306E-04 
  32778.3546     0.18460E-04 
  32810.6167     0.18616E-04 
  32842.8789     0.18772E-04 
  32875.1410     0.18929E-04 
  32907.4032     0.19086E-04 
  32939.6654     0.19245E-04 
  32971.9275     0.19404E-04 
  33004.1897     0.19564E-04 
  33036.4518     0.19725E-04 
  33068.7140     0.19887E-04 
  33100.9762     0.20049E-04 
  33133.2383     0.20212E-04 
  33165.5005     0.20376E-04 
  33197.7626     0.20541E-04 
  33230.0248     0.20706E-04 
  33262.2870     0.20872E-04 
  33294.5491     0.21039E-04 
  33326.8113     0.21207E-04 
  33359.0734     0.21375E-04 
  33391.3356     0.21544E-04 
  33423.5978     0.21714E-04 
  33455.8599     0.21885E-04 
  33488.1221     0.22057E-04 
  33520.3842     0.22229E-04 
  33552.6464     0.22402E-04 
  33584.9086     0.22575E-04 
  33617.1707     0.22750E-04 
  33649.4329     0.22925E-04 
  33681.6950     0.23101E-04 
  33713.9572     0.23277E-04 
  33746.2194     0.23455E-04 
  33778.4815     0.23633E-04 
  33810.7437     0.23811E-04 
  33843.0058     0.23991E-04 
  33875.2680     0.24171E-04 
  33907.5302     0.24352E-04 
  33939.7923     0.24534E-04 
  33972.0545     0.24716E-04 
  34004.3166     0.24899E-04 
  34036.5788     0.25082E-04 
  34068.8410     0.25267E-04 
  34101.1031     0.25452E-04 
  34133.3653     0.25638E-04 
  34165.6274     0.25824E-04 
  34197.8896     0.26011E-04 
  34230.1518     0.26199E-04 
  34262.4139     0.26387E-04 
  34294.6761     0.26576E-04 
  34326.9382     0.26766E-04 
  34359.2004     0.26956E-04 
  34391.4626     0.27147E-04 
  34423.7247     0.27339E-04 
  34455.9869     0.27531E-04 
  34488.2490     0.27724E-04 
  34520.5112     0.27918E-04 
  34552.7734     0.28112E-04 
  34585.0355     0.28307E-04 
  34617.2977     0.28502E-04 
  34649.5598     0.28698E-04 
  34681.8220     0.28895E-04 
  34714.0842     0.29092E-04 
  34746.3463     0.29290E-04 
  34778.6085     0.29488E-04 
  34810.8706     0.29687E-04 
  34843.1328     0.29887E-04 
  34875.3950     0.30087E-04 
  34907.6571     0.30288E-04 
  34939.9193     0.30489E-04 
  34972.1814     0.30691E-04 
  35004.4436     0.30893E-04 
  35036.7058     0.31096E-04 
  35068.9679     0.31300E-04 
  35101.2301     0.31504E-04 
  35133.4922     0.31709E-04 
  35165.7544     0.31914E-04 
  35198.0166     0.32119E-04 
  35230.2787     0.32325E-04 
  35262.5409     0.32532E-04 
  35294.8030     0.32739E-04 
  35327.0652     0.32947E-04 
  35359.3274     0.33155E-04 
  35391.5895     0.33363E-04 
  35423.8517     0.33572E-04 
  35456.1138     0.33782E-04 
  35488.3760     0.33992E-04 
  35520.6382     0.34202E-04 
  35552.9003     0.34413E-04 
  35585.1625     0.34625E-04 
  35617.4246     0.34836E-04 
  35649.6868     0.35048E-04 
  35681.9490     0.35261E-04 
  35714.2111     0.35474E-04 
  35746.4733     0.35688E-04 
  35778.7354     0.35901E-04 
  35810.9976     0.36116E-04 
  35843.2598     0.36330E-04 
  35875.5219     0.36545E-04 
  35907.7841     0.36761E-04 
  35940.0462     0.36976E-04 
  35972.3084     0.37192E-04 
  36004.5706     0.37409E-04 
  36036.8327     0.37625E-04 
  36069.0949     0.37843E-04 
  36101.3570     0.38060E-04 
  36133.6192     0.38278E-04 
  36165.8814     0.38496E-04 
  36198.1435     0.38714E-04 
  36230.4057     0.38933E-04 
  36262.6678     0.39152E-04 
  36294.9300     0.39371E-04 
  36327.1922     0.39590E-04 
  36359.4543     0.39810E-04 
  36391.7165     0.40030E-04 
  36423.9786     0.40251E-04 
  36456.2408     0.40471E-04 
  36488.5030     0.40692E-04 
  36520.7651     0.40913E-04 
  36553.0273     0.41134E-04 
  36585.2894     0.41355E-04 
  36617.5516     0.41577E-04 
  36649.8138     0.41799E-04 
  36682.0759     0.42021E-04 
  36714.3381     0.42243E-04 
  36746.6002     0.42465E-04 
  36778.8624     0.42687E-04 
  36811.1246     0.42910E-04 
  36843.3867     0.43133E-04 
  36875.6489     0.43356E-04 
  36907.9110     0.43579E-04 
  36940.1732     0.43802E-04 
  36972.4354     0.44025E-04 
  37004.6975     0.44248E-04 
  37036.9597     0.44472E-04 
  37069.2218     0.44695E-04 
  37101.4840     0.44919E-04 
  37133.7462     0.45142E-04 
  37166.0083     0.45366E-04 
  37198.2705     0.45589E-04 
  37230.5326     0.45813E-04 
  37262.7948     0.46037E-04 
  37295.0570     0.46261E-04 
  37327.3191     0.46484E-04 
  37359.5813     0.46708E-04 
  37391.8434     0.46932E-04 
  37424.1056     0.47156E-04 
  37456.3678     0.47379E-04 
  37488.6299     0.47603E-04 
  37520.8921     0.47827E-04 
  37553.1542     0.48050E-04 
  37585.4164     0.48274E-04 
  37617.6786     0.48497E-04 
  37649.9407     0.48720E-04 
  37682.2029     0.48943E-04 
  37714.4650     0.49167E-04 
  37746.7272     0.49389E-04 
  37778.9894     0.49612E-04 
  37811.2515     0.49835E-04 
  37843.5137     0.50058E-04 
  37875.7758     0.50280E-04 
  37908.0380     0.50502E-04 
  37940.3002     0.50724E-04 
  37972.5623     0.50946E-04 
  38004.8245     0.51168E-04 
  38037.0866     0.51389E-04 
  38069.3488     0.51611E-04 
  38101.6110     0.51832E-04 
  38133.8731     0.52053E-04 
  38166.1353     0.52273E-04 
  38198.3974     0.52493E-04 
  38230.6596     0.52714E-04 
  38262.9218     0.52933E-04 
  38295.1839     0.53153E-04 
  38327.4461     0.53372E-04 
  38359.7082     0.53591E-04 
  38391.9704     0.53810E-04 
  38424.2326     0.54028E-04 
  38456.4947     0.54246E-04 
  38488.7569     0.54463E-04 
  38521.0190     0.54681E-04 
  38553.2812     0.54898E-04 
  38585.5434     0.55114E-04 
  38617.8055     0.55330E-04 
  38650.0677     0.55546E-04 
  38682.3298     0.55762E-04 
  38714.5920     0.55977E-04 
  38746.8542     0.56191E-04 
  38779.1163     0.56405E-04 
  38811.3785     0.56619E-04 
  38843.6406     0.56832E-04 
  38875.9028     0.57045E-04 
  38908.1650     0.57257E-04 
  38940.4271     0.57469E-04 
  38972.6893     0.57680E-04 
  39004.9514     0.57891E-04 
  39037.2136     0.58102E-04 
  39069.4758     0.58311E-04 
  39101.7379     0.58521E-04 
  39134.0001     0.58729E-04 
  39166.2622     0.58938E-04 
  39198.5244     0.59145E-04 
  39230.7866     0.59352E-04 
  39263.0487     0.59559E-04 
  39295.3109     0.59765E-04 
  39327.5730     0.59970E-04 
  39359.8352     0.60175E-04 
  39392.0974     0.60379E-04 
  39424.3595     0.60583E-04 
  39456.6217     0.60785E-04 
  39488.8838     0.60988E-04 
  39521.1460     0.61189E-04 
  39553.4082     0.61390E-04 
  39585.6703     0.61590E-04 
  39617.9325     0.61790E-04 
  39650.1946     0.61989E-04 
  39682.4568     0.62187E-04 
  39714.7190     0.62384E-04 
  39746.9811     0.62581E-04 
  39779.2433     0.62777E-04 
  39811.5054     0.62972E-04 
  39843.7676     0.63167E-04 
  39876.0298     0.63361E-04 
  39908.2919     0.63554E-04 
  39940.5541     0.63746E-04 
  39972.8162     0.63937E-04 
  40005.0784     0.64128E-04 
  40037.3406     0.64318E-04 
  40069.6027     0.64507E-04 
  40101.8649     0.64695E-04 
  40134.1270     0.64883E-04 
  40166.3892     0.65069E-04 
  40198.6514     0.65255E-04 
  40230.9135     0.65440E-04 
  40263.1757     0.65624E-04 
  40295.4378     0.65807E-04 
  40327.7000     0.65989E-04 
  40359.9622     0.66170E-04 
  40392.2243     0.66351E-04 
  40424.4865     0.66530E-04 
  40456.7486     0.66709E-04 
  40489.0108     0.66887E-04 
  40521.2730     0.67063E-04 
  40553.5351     0.67239E-04 
  40585.7973     0.67414E-04 
  40618.0594     0.67588E-04 
  40650.3216     0.67761E-04 
  40682.5838     0.67933E-04 
  40714.8459     0.68104E-04 
  40747.1081     0.68274E-04 
  40779.3702     0.68443E-04 
  40811.6324     0.68611E-04 
  40843.8946     0.68778E-04 
  40876.1567     0.68944E-04 
  40908.4189     0.69109E-04 
  40940.6810     0.69272E-04 
  40972.9432     0.69435E-04 
  41005.2054     0.69597E-04 
  41037.4675     0.69758E-04 
  41069.7297     0.69917E-04 
  41101.9918     0.70076E-04 
  41134.2540     0.70233E-04 
  41166.5162     0.70390E-04 
  41198.7783     0.70545E-04 
  41231.0405     0.70699E-04 
  41263.3026     0.70852E-04 
  41295.5648     0.71004E-04 
  41327.8270     0.71154E-04 
  41360.0891     0.71304E-04 
  41392.3513     0.71453E-04 
  41424.6134     0.71600E-04 
  41456.8756     0.71746E-04 
  41489.1378     0.71891E-04 
  41521.3999     0.72035E-04 
  41553.6621     0.72177E-04 
  41585.9242     0.72319E-04 
  41618.1864     0.72459E-04 
  41650.4486     0.72598E-04 
  41682.7107     0.72736E-04 
  41714.9729     0.72872E-04 
  41747.2350     0.73008E-04 
  41779.4972     0.73142E-04 
  41811.7594     0.73275E-04 
  41844.0215     0.73407E-04 
  41876.2837     0.73537E-04 
  41908.5458     0.73666E-04 
  41940.8080     0.73794E-04 
  41973.0702     0.73921E-04 
  42005.3323     0.74046E-04 
  42037.5945     0.74170E-04 
  42069.8566     0.74293E-04 
  42102.1188     0.74414E-04 
  42134.3810     0.74535E-04 
  42166.6431     0.74654E-04 
  42198.9053     0.74771E-04 
  42231.1674     0.74888E-04 
  42263.4296     0.75003E-04 
  42295.6918     0.75116E-04 
  42327.9539     0.75229E-04 
  42360.2161     0.75340E-04 
  42392.4782     0.75449E-04 
  42424.7404     0.75558E-04 
  42457.0026     0.75665E-04 
  42489.2647     0.75770E-04 
  42521.5269     0.75874E-04 
  42553.7890     0.75977E-04 
  42586.0512     0.76079E-04 
  42618.3134     0.76179E-04 
  42650.5755     0.76278E-04 
  42682.8377     0.76375E-04 
  42715.0998     0.76471E-04 
  42747.3620     0.76566E-04 
  42779.6242     0.76659E-04 
  42811.8863     0.76751E-04 
  42844.1485     0.76841E-04 
  42876.4106     0.76930E-04 
  42908.6728     0.77018E-04 
  42940.9350     0.77104E-04 
  42973.1971     0.77189E-04 
  43005.4593     0.77272E-04 
  43037.7214     0.77354E-04 
  43069.9836     0.77435E-04 
  43102.2458     0.77514E-04 
  43134.5079     0.77592E-04 
  43166.7701     0.77668E-04 
  43199.0322     0.77743E-04 
  43231.2944     0.77816E-04 
  43263.5566     0.77888E-04 
  43295.8187     0.77958E-04 
  43328.0809     0.78027E-04 
  43360.3430     0.78095E-04 
  43392.6052     0.78161E-04 
  43424.8674     0.78226E-04 
  43457.1295     0.78289E-04 
  43489.3917     0.78351E-04 
  43521.6538     0.78411E-04 
  43553.9160     0.78470E-04 
  43586.1782     0.78527E-04 
  43618.4403     0.78583E-04 
  43650.7025     0.78637E-04 
  43682.9646     0.78690E-04 
  43715.2268     0.78741E-04 
  43747.4890     0.78791E-04 
  43779.7511     0.78840E-04 
  43812.0133     0.78886E-04 
  43844.2754     0.78932E-04 
  43876.5376     0.78976E-04 
  43908.7998     0.79018E-04 
  43941.0619     0.79059E-04 
  43973.3241     0.79099E-04 
  44005.5862     0.79137E-04 
  44037.8484     0.79173E-04 
  44070.1106     0.79208E-04 
  44102.3727     0.79242E-04 
  44134.6349     0.79274E-04 
  44166.8970     0.79304E-04 
  44199.1592     0.79333E-04 
  44231.4214     0.79361E-04 
  44263.6835     0.79387E-04 
  44295.9457     0.79411E-04 
  44328.2078     0.79434E-04 
  44360.4700     0.79456E-04 
  44392.7322     0.79476E-04 
  44424.9943     0.79494E-04 
  44457.2565     0.79511E-04 
  44489.5186     0.79527E-04 
  44521.7808     0.79541E-04 
  44554.0430     0.79553E-04 
  44586.3051     0.79564E-04 
  44618.5673     0.79574E-04 
  44650.8294     0.79582E-04 
  44683.0916     0.79588E-04 
  44715.3538     0.79593E-04 
  44747.6159     0.79597E-04 
  44779.8781     0.79599E-04 
  44812.1402     0.79599E-04 
  44844.4024     0.79598E-04 
  44876.6646     0.79596E-04 
  44908.9267     0.79592E-04 
  44941.1889     0.79587E-04 
  44973.4510     0.79580E-04 
  45005.7132     0.79571E-04 
  45037.9754     0.79561E-04 
  45070.2375     0.79550E-04 
  45102.4997     0.79537E-04 
  45134.7618     0.79523E-04 
  45167.0240     0.79507E-04 
  45199.2862     0.79489E-04 
  45231.5483     0.79471E-04 
  45263.8105     0.79450E-04 
  45296.0726     0.79429E-04 
  45328.3348     0.79405E-04 
  45360.5970     0.79381E-04 
  45392.8591     0.79354E-04 
  45425.1213     0.79327E-04 
  45457.3834     0.79298E-04 
  45489.6456     0.79267E-04 
  45521.9078     0.79235E-04 
  45554.1699     0.79202E-04 
  45586.4321     0.79167E-04 
  45618.6942     0.79130E-04 
  45650.9564     0.79092E-04 
  45683.2186     0.79053E-04 
  45715.4807     0.79012E-04 
  45747.7429     0.78970E-04 
  45780.0050     0.78927E-04 
  45812.2672     0.78882E-04 
  45844.5294     0.78835E-04 
  45876.7915     0.78787E-04 
  45909.0537     0.78738E-04 
  45941.3158     0.78687E-04 
  45973.5780     0.78635E-04 
  46005.8402     0.78582E-04 
  46038.1023     0.78527E-04 
  46070.3645     0.78470E-04 
  46102.6266     0.78413E-04 
  46134.8888     0.78354E-04 
  46167.1510     0.78293E-04 
  46199.4131     0.78231E-04 
  46231.6753     0.78168E-04 
  46263.9374     0.78103E-04 
  46296.1996     0.78037E-04 
  46328.4618     0.77970E-04 
  46360.7239     0.77901E-04 
  46392.9861     0.77831E-04 
  46425.2482     0.77759E-04 
  46457.5104     0.77686E-04 
  46489.7726     0.77612E-04 
  46522.0347     0.77536E-04 
  46554.2969     0.77459E-04 
  46586.5590     0.77381E-04 
  46618.8212     0.77301E-04 
  46651.0834     0.77220E-04 
  46683.3455     0.77138E-04 
  46715.6077     0.77055E-04 
  46747.8698     0.76970E-04 
  46780.1320     0.76884E-04 
  46812.3942     0.76796E-04 
  46844.6563     0.76707E-04 
  46876.9185     0.76617E-04 
  46909.1806     0.76526E-04 
  46941.4428     0.76433E-04 
  46973.7050     0.76339E-04 
  47005.9671     0.76244E-04 
  47038.2293     0.76147E-04 
  47070.4914     0.76050E-04 
  47102.7536     0.75951E-04 
  47135.0158     0.75850E-04 
  47167.2779     0.75749E-04 
  47199.5401     0.75646E-04 
  47231.8022     0.75542E-04 
  47264.0644     0.75437E-04 
  47296.3266     0.75331E-04 
  47328.5887     0.75223E-04 
  47360.8509     0.75114E-04 
  47393.1130     0.75004E-04 
  47425.3752     0.74893E-04 
  47457.6374     0.74780E-04 
  47489.8995     0.74667E-04 
  47522.1617     0.74552E-04 
  47554.4238     0.74436E-04 
  47586.6860     0.74319E-04 
  47618.9482     0.74201E-04 
  47651.2103     0.74081E-04 
  47683.4725     0.73961E-04 
  47715.7346     0.73839E-04 
  47747.9968     0.73716E-04 
  47780.2590     0.73592E-04 
  47812.5211     0.73467E-04 
  47844.7833     0.73341E-04 
  47877.0454     0.73213E-04 
  47909.3076     0.73085E-04 
  47941.5698     0.72955E-04 
  47973.8319     0.72825E-04 
  48006.0941     0.72693E-04 
  48038.3562     0.72560E-04 
  48070.6184     0.72426E-04 
  48102.8806     0.72291E-04 
  48135.1427     0.72155E-04 
  48167.4049     0.72018E-04 
  48199.6670     0.71880E-04 
  48231.9292     0.71741E-04 
  48264.1914     0.71601E-04 
  48296.4535     0.71460E-04 
  48328.7157     0.71317E-04 
  48360.9778     0.71174E-04 
  48393.2400     0.71030E-04 
  48425.5022     0.70885E-04 
  48457.7643     0.70739E-04 
  48490.0265     0.70592E-04 
  48522.2886     0.70443E-04 
  48554.5508     0.70294E-04 
  48586.8130     0.70144E-04 
  48619.0751     0.69993E-04 
  48651.3373     0.69841E-04 
  48683.5994     0.69688E-04 
  48715.8616     0.69535E-04 
  48748.1238     0.69380E-04 
  48780.3859     0.69224E-04 
  48812.6481     0.69068E-04 
  48844.9102     0.68910E-04 
  48877.1724     0.68752E-04 
  48909.4346     0.68593E-04 
  48941.6967     0.68433E-04 
  48973.9589     0.68272E-04 
  49006.2210     0.68110E-04 
  49038.4832     0.67947E-04 
  49070.7454     0.67784E-04 
  49103.0075     0.67619E-04 
  49135.2697     0.67454E-04 
  49167.5318     0.67288E-04 
  49199.7940     0.67121E-04 
  49232.0562     0.66953E-04 
  49264.3183     0.66785E-04 
  49296.5805     0.66616E-04 
  49328.8426     0.66446E-04 
  49361.1048     0.66275E-04 
  49393.3670     0.66103E-04 
  49425.6291     0.65931E-04 
  49457.8913     0.65758E-04 
  49490.1534     0.65584E-04 
  49522.4156     0.65409E-04 
  49554.6778     0.65234E-04 
  49586.9399     0.65058E-04 
  49619.2021     0.64881E-04 
  49651.4642     0.64704E-04 
  49683.7264     0.64525E-04 
  49715.9886     0.64347E-04 
  49748.2507     0.64167E-04 
  49780.5129     0.63987E-04 
  49812.7750     0.63806E-04 
  49845.0372     0.63624E-04 
  49877.2994     0.63442E-04 
  49909.5615     0.63259E-04 
  49941.8237     0.63076E-04 
  49974.0858     0.62891E-04 
  50006.3480     0.62707E-04 
  50038.6102     0.62521E-04 
  50070.8723     0.62335E-04 
  50103.1345     0.62149E-04 
  50135.3966     0.61961E-04 
  50167.6588     0.61774E-04 
  50199.9210     0.61585E-04 
  50232.1831     0.61396E-04 
  50264.4453     0.61207E-04 
  50296.7074     0.61017E-04 
  50328.9696     0.60826E-04 
  50361.2318     0.60635E-04 
  50393.4939     0.60443E-04 
  50425.7561     0.60251E-04 
  50458.0182     0.60058E-04 
  50490.2804     0.59865E-04 
  50522.5426     0.59671E-04 
  50554.8047     0.59477E-04 
  50587.0669     0.59282E-04 
  50619.3290     0.59087E-04 
  50651.5912     0.58891E-04 
  50683.8534     0.58695E-04 
  50716.1155     0.58499E-04 
  50748.3777     0.58302E-04 
  50780.6398     0.58104E-04 
  50812.9020     0.57906E-04 
  50845.1642     0.57708E-04 
  50877.4263     0.57509E-04 
  50909.6885     0.57310E-04 
  50941.9506     0.57110E-04 
  50974.2128     0.56910E-04 
  51006.4750     0.56710E-04 
  51038.7371     0.56509E-04 
  51070.9993     0.56308E-04 
  51103.2614     0.56106E-04 
  51135.5236     0.55905E-04 
  51167.7858     0.55702E-04 
  51200.0479     0.55500E-04 
  51232.3101     0.55297E-04 
  51264.5722     0.55094E-04 
  51296.8344     0.54890E-04 
  51329.0966     0.54686E-04 
  51361.3587     0.54482E-04 
  51393.6209     0.54278E-04 
  51425.8830     0.54073E-04 
  51458.1452     0.53868E-04 
  51490.4074     0.53663E-04 
  51522.6695     0.53457E-04 
  51554.9317     0.53251E-04 
  51587.1938     0.53045E-04 
  51619.4560     0.52839E-04 
  51651.7182     0.52632E-04 
  51683.9803     0.52425E-04 
  51716.2425     0.52218E-04 
  51748.5046     0.52011E-04 
  51780.7668     0.51803E-04 
  51813.0290     0.51596E-04 
  51845.2911     0.51388E-04 
  51877.5533     0.51180E-04 
  51909.8154     0.50971E-04 
  51942.0776     0.50763E-04 
  51974.3398     0.50554E-04 
  52006.6019     0.50346E-04 
  52038.8641     0.50137E-04 
  52071.1262     0.49928E-04 
  52103.3884     0.49718E-04 
  52135.6506     0.49509E-04 
  52167.9127     0.49299E-04 
  52200.1749     0.49090E-04 
  52232.4370     0.48880E-04 
  52264.6992     0.48670E-04 
  52296.9614     0.48460E-04 
  52329.2235     0.48250E-04 
  52361.4857     0.48040E-04 
  52393.7478     0.47830E-04 
  52426.0100     0.47619E-04 
  52458.2722     0.47409E-04 
  52490.5343     0.47199E-04 
  52522.7965     0.46988E-04 
  52555.0586     0.46778E-04 
  52587.3208     0.46567E-04 
  52619.5830     0.46356E-04 
  52651.8451     0.46146E-04 
  52684.1073     0.45935E-04 
  52716.3694     0.45724E-04 
  52748.6316     0.45513E-04 
  52780.8938     0.45303E-04 
  52813.1559     0.45092E-04 
  52845.4181     0.44881E-04 
  52877.6802     0.44671E-04 
  52909.9424     0.44460E-04 
  52942.2046     0.44249E-04 
  52974.4667     0.44039E-04 
  53006.7289     0.43828E-04 
  53038.9910     0.43617E-04 
  53071.2532     0.43407E-04 
  53103.5154     0.43196E-04 
  53135.7775     0.42986E-04 
  53168.0397     0.42776E-04 
  53200.3018     0.42566E-04 
  53232.5640     0.42355E-04 
  53264.8262     0.42145E-04 
  53297.0883     0.41935E-04 
  53329.3505     0.41725E-04 
  53361.6126     0.41516E-04 
  53393.8748     0.41306E-04 
  53426.1370     0.41096E-04 
  53458.3991     0.40887E-04 
  53490.6613     0.40678E-04 
  53522.9234     0.40468E-04 
  53555.1856     0.40259E-04 
  53587.4478     0.40050E-04 
  53619.7099     0.39842E-04 
  53651.9721     0.39633E-04 
  53684.2342     0.39425E-04 
  53716.4964     0.39216E-04 
  53748.7586     0.39008E-04 
  53781.0207     0.38800E-04 
  53813.2829     0.38593E-04 
  53845.5450     0.38385E-04 
  53877.8072     0.38178E-04 
  53910.0694     0.37970E-04 
  53942.3315     0.37764E-04 
  53974.5937     0.37557E-04 
  54006.8558     0.37350E-04 
  54039.1180     0.37144E-04 
  54071.3802     0.36938E-04 
  54103.6423     0.36732E-04 
  54135.9045     0.36526E-04 
  54168.1666     0.36321E-04 
  54200.4288     0.36116E-04 
  54232.6910     0.35911E-04 
  54264.9531     0.35706E-04 
  54297.2153     0.35502E-04 
  54329.4774     0.35298E-04 
  54361.7396     0.35094E-04 
  54394.0018     0.34890E-04 
  54426.2639     0.34687E-04 
  54458.5261     0.34484E-04 
  54490.7882     0.34281E-04 
  54523.0504     0.34079E-04 
  54555.3126     0.33877E-04 
  54587.5747     0.33675E-04 
  54619.8369     0.33473E-04 
  54652.0990     0.33272E-04 
  54684.3612     0.33071E-04 
  54716.6234     0.32871E-04 
  54748.8855     0.32670E-04 
  54781.1477     0.32470E-04 
  54813.4098     0.32271E-04 
  54845.6720     0.32072E-04 
  54877.9342     0.31873E-04 
  54910.1963     0.31674E-04 
  54942.4585     0.31476E-04 
  54974.7206     0.31278E-04 
  55006.9828     0.31081E-04 
  55039.2450     0.30884E-04 
  55071.5071     0.30687E-04 
  55103.7693     0.30491E-04 
  55136.0314     0.30295E-04 
  55168.2936     0.30099E-04 
  55200.5558     0.29904E-04 
  55232.8179     0.29709E-04 
  55265.0801     0.29515E-04 
  55297.3422     0.29321E-04 
  55329.6044     0.29127E-04 
  55361.8666     0.28934E-04 
  55394.1287     0.28741E-04 
  55426.3909     0.28549E-04 
  55458.6530     0.28357E-04 
  55490.9152     0.28166E-04 
  55523.1774     0.27975E-04 
  55555.4395     0.27784E-04 
  55587.7017     0.27594E-04 
  55619.9638     0.27404E-04 
  55652.2260     0.27215E-04 
  55684.4882     0.27026E-04 
  55716.7503     0.26838E-04 
  55749.0125     0.26650E-04 
  55781.2746     0.26463E-04 
  55813.5368     0.26276E-04 
  55845.7990     0.26089E-04 
  55878.0611     0.25903E-04 
  55910.3233     0.25718E-04 
  55942.5854     0.25533E-04 
  55974.8476     0.25348E-04 
  56007.1098     0.25164E-04 
  56039.3719     0.24981E-04 
  56071.6341     0.24798E-04 
  56103.8962     0.24615E-04 
  56136.1584     0.24433E-04 
  56168.4206     0.24252E-04 
  56200.6827     0.24071E-04 
  56232.9449     0.23890E-04 
  56265.2070     0.23710E-04 
  56297.4692     0.23531E-04 
  56329.7314     0.23352E-04 
  56361.9935     0.23174E-04 
  56394.2557     0.22996E-04 
  56426.5178     0.22819E-04 
  56458.7800     0.22642E-04 
  56491.0422     0.22466E-04 
  56523.3043     0.22290E-04 
  56555.5665     0.22115E-04 
  56587.8286     0.21941E-04 
  56620.0908     0.21767E-04 
  56652.3530     0.21594E-04 
  56684.6151     0.21421E-04 
  56716.8773     0.21249E-04 
  56749.1394     0.21078E-04 
  56781.4016     0.20907E-04 
  56813.6638     0.20736E-04 
  56845.9259     0.20567E-04 
  56878.1881     0.20397E-04 
  56910.4502     0.20229E-04 
  56942.7124     0.20061E-04 
  56974.9746     0.19894E-04 
  57007.2367     0.19727E-04 
  57039.4989     0.19561E-04 
  57071.7610     0.19396E-04 
  57104.0232     0.19231E-04 
  57136.2854     0.19067E-04 
  57168.5475     0.18903E-04 
  57200.8097     0.18740E-04 
  57233.0718     0.18578E-04 
  57265.3340     0.18416E-04 
  57297.5962     0.18255E-04 
  57329.8583     0.18095E-04 
  57362.1205     0.17936E-04 
  57394.3826     0.17777E-04 
  57426.6448     0.17618E-04 
  57458.9070     0.17461E-04 
  57491.1691     0.17304E-04 
  57523.4313     0.17148E-04 
  57555.6934     0.16992E-04 
  57587.9556     0.16837E-04 
  57620.2178     0.16683E-04 
  57652.4799     0.16530E-04 
  57684.7421     0.16377E-04 
  57717.0042     0.16225E-04 
  57749.2664     0.16074E-04 
  57781.5286     0.15923E-04 
  57813.7907     0.15774E-04 
  57846.0529     0.15625E-04 
  57878.3150     0.15476E-04 
  57910.5772     0.15329E-04 
  57942.8394     0.15182E-04 
  57975.1015     0.15036E-04 
  58007.3637     0.14890E-04 
  58039.6258     0.14746E-04 
  58071.8880     0.14602E-04 
  58104.1502     0.14459E-04 
  58136.4123     0.14316E-04 
  58168.6745     0.14175E-04 
  58200.9366     0.14034E-04 
  58233.1988     0.13894E-04 
  58265.4610     0.13755E-04 
  58297.7231     0.13617E-04 
  58329.9853     0.13479E-04 
  58362.2474     0.13343E-04 
  58394.5096     0.13207E-04 
  58426.7718     0.13072E-04 
  58459.0339     0.12937E-04 
  58491.2961     0.12804E-04 
  58523.5582     0.12671E-04 
  58555.8204     0.12540E-04 
  58588.0826     0.12409E-04 
  58620.3447     0.12279E-04 
  58652.6069     0.12150E-04 
  58684.8690     0.12021E-04 
  58717.1312     0.11894E-04 
  58749.3934     0.11767E-04 
  58781.6555     0.11642E-04 
  58813.9177     0.11517E-04 
  58846.1798     0.11393E-04 
  58878.4420     0.11270E-04 
  58910.7042     0.11148E-04 
  58942.9663     0.11027E-04 
  58975.2285     0.10907E-04 
  59007.4906     0.10787E-04 
  59039.7528     0.10669E-04 
  59072.0150     0.10551E-04 
  59104.2771     0.10435E-04 
  59136.5393     0.10319E-04 
  59168.8014     0.10205E-04 
  59201.0636     0.10091E-04 
  59233.3258     0.99787E-05 
  59265.5879     0.98671E-05 
  59297.8501     0.97564E-05 
  59330.1122     0.96468E-05 
  59362.3744     0.95382E-05 
  59394.6366     0.94305E-05 
  59426.8987     0.93239E-05 
  59459.1609     0.92184E-05 
  59491.4230     0.91138E-05 
  59523.6852     0.90103E-05 
  59555.9474     0.89079E-05 
  59588.2095     0.88065E-05 
  59620.4717     0.87061E-05 
  59652.7338     0.86069E-05 
  59684.9960     0.85087E-05 
  59717.2582     0.84116E-05 
  59749.5203     0.83157E-05 
  59781.7825     0.82208E-05 
  59814.0446     0.81270E-05 
  59846.3068     0.80344E-05 
  59878.5690     0.79429E-05 
  59910.8311     0.78525E-05 
  59943.0933     0.77633E-05 
  59975.3554     0.76753E-05 
  60007.6176     0.75884E-05 
  60039.8798     0.75027E-05 
  60072.1419     0.74182E-05 
  60104.4041     0.73349E-05 
  60136.6662     0.72528E-05 
  60168.9284     0.71720E-05 
  60201.1906     0.70923E-05 
  60233.4527     0.70139E-05 
  60265.7149     0.69367E-05 
  60297.9770     0.68608E-05 
  60330.2392     0.67862E-05 
  60362.5014     0.67128E-05 
  60394.7635     0.66408E-05 
  60427.0257     0.65700E-05 
  60459.2878     0.65006E-05 
  60491.5500     0.64324E-05 
  60523.8122     0.63656E-05 
  60556.0743     0.63002E-05 
  60588.3365     0.62361E-05 
  60620.5986     0.61734E-05 
  60652.8608     0.61120E-05 
  60685.1230     0.60521E-05 
  60717.3851     0.59935E-05 
  60749.6473     0.59364E-05 
  60781.9094     0.58807E-05 
  60814.1716     0.58264E-05 
  60846.4338     0.57736E-05 
  60878.6959     0.57222E-05 
  60910.9581     0.56724E-05 
  60943.2202     0.56240E-05 
  60975.4824     0.55771E-05 
  61007.7446     0.55317E-05 
  61040.0067     0.54879E-05 
  61072.2689     0.54456E-05 
  61104.5310     0.54049E-05 
  61136.7932     0.53657E-05 
  61169.0554     0.53282E-05 
  61201.3175     0.52922E-05 
  61233.5797     0.52579E-05 
  61265.8418     0.52251E-05 
  61298.1040     0.51941E-05 
  61330.3662     0.51646E-05 
  61362.6283     0.51369E-05 
  61394.8905     0.51108E-05 
  61427.1526     0.50865E-05 
  61459.4148     0.50638E-05 
  61491.6770     0.50429E-05 
  61523.9391     0.50238E-05 
  61556.2013     0.50064E-05 
  61588.4634     0.49908E-05 
  61620.7256     0.49770E-05 
  61652.9878     0.49650E-05 
  61685.2499     0.49548E-05 
  61717.5121     0.49465E-05 
  61749.7742     0.49401E-05 
  61782.0364     0.49355E-05 
  61814.2986     0.49329E-05 
  61846.5607     0.49321E-05 
  61878.8229     0.49333E-05 
  61911.0850     0.49365E-05 
  61943.3472     0.49416E-05 
  61975.6094     0.49487E-05 
  62007.8715     0.49578E-05 
  62040.1337     0.49690E-05 
  62072.3958     0.49822E-05 
  62104.6580     0.49975E-05 
  62136.9202     0.50148E-05 
  62169.1823     0.50342E-05 
  62201.4445     0.50558E-05 
  62233.7066     0.50795E-05 
  62265.9688     0.51054E-05 
  62298.2310     0.51335E-05 
  62330.4931     0.51638E-05 
  62362.7553     0.51962E-05 
  62395.0174     0.52310E-05 
  62427.2796     0.52680E-05 
  62459.5418     0.53073E-05 
  62491.8039     0.53489E-05 
  62524.0661     0.53928E-05 
  62556.3282     0.54391E-05 
  62588.5904     0.54878E-05 
  62620.8526     0.55388E-05 
  62653.1147     0.55923E-05 
  62685.3769     0.56482E-05 
  62717.6390     0.57066E-05 
  62749.9012     0.57675E-05 
  62782.1634     0.58308E-05 
  62814.4255     0.58968E-05 
  62846.6877     0.59652E-05 
  62878.9498     0.60363E-05 
  62911.2120     0.61100E-05 
  62943.4742     0.61862E-05 
  62975.7363     0.62652E-05 
  63007.9985     0.63468E-05 
  63040.2606     0.64312E-05 
  63072.5228     0.65182E-05 
  63104.7850     0.66080E-05 
  63137.0471     0.67006E-05 
  63169.3093     0.67960E-05 
  63201.5714     0.68943E-05 
  63233.8336     0.69954E-05 
  63266.0958     0.70993E-05 
  63298.3579     0.72062E-05 
  63330.6201     0.73161E-05 
  63362.8822     0.74289E-05 
  63395.1444     0.75447E-05 
  63427.4066     0.76635E-05 
  63459.6687     0.77853E-05 
  63491.9309     0.79103E-05 
  63524.1930     0.80383E-05 
  63556.4552     0.81695E-05 
  63588.7174     0.83039E-05 
  63620.9795     0.84414E-05 
  63653.2417     0.85821E-05 
  63685.5038     0.87261E-05 
  63717.7660     0.88734E-05 
  63750.0282     0.90240E-05 
  63782.2903     0.91780E-05 
  63814.5525     0.93353E-05 
  63846.8146     0.94960E-05 
  63879.0768     0.96601E-05 
  63911.3390     0.98277E-05 
  63943.6011     0.99988E-05 
  63975.8633     0.10173E-04 
  64008.1254     0.10352E-04 
  64040.3876     0.10533E-04 
  64072.6498     0.10719E-04 
  64104.9119     0.10908E-04 
  64137.1741     0.11100E-04 
  64169.4362     0.11297E-04 
  64201.6984     0.11497E-04 
  64233.9606     0.11701E-04 
  64266.2227     0.11909E-04 
  64298.4849     0.12120E-04 
  64330.7470     0.12336E-04 
  64363.0092     0.12555E-04 
  64395.2714     0.12779E-04 
  64427.5335     0.13006E-04 
  64459.7957     0.13237E-04 
  64492.0578     0.13473E-04 
  64524.3200     0.13712E-04 
  64556.5822     0.13956E-04 
  64588.8443     0.14204E-04 
  64621.1065     0.14456E-04 
  64653.3686     0.14712E-04 
  64685.6308     0.14973E-04 
  64717.8930     0.15238E-04 
  64750.1551     0.15507E-04 
  64782.4173     0.15780E-04 
  64814.6794     0.16058E-04 
  64846.9416     0.16341E-04 
  64879.2038     0.16628E-04 
  64911.4659     0.16919E-04 
  64943.7281     0.17215E-04 
  64975.9902     0.17516E-04 
  65008.2524     0.17821E-04 
  65040.5146     0.18131E-04 
  65072.7767     0.18446E-04 
  65105.0389     0.18765E-04 
  65137.3010     0.19089E-04 
  65169.5632     0.19418E-04 
  65201.8254     0.19752E-04 
  65234.0875     0.20091E-04 
  65266.3497     0.20435E-04 
  65298.6118     0.20784E-04 
  65330.8740     0.21137E-04 
  65363.1362     0.21496E-04 
  65395.3983     0.21860E-04 
  65427.6605     0.22230E-04 
  65459.9226     0.22604E-04 
  65492.1848     0.22984E-04 
  65524.4470     0.23369E-04 
  65556.7091     0.23759E-04 
  65588.9713     0.24154E-04 
  65621.2334     0.24555E-04 
  65653.4956     0.24962E-04 
  65685.7578     0.25374E-04 
  65718.0199     0.25791E-04 
  65750.2821     0.26214E-04 
  65782.5442     0.26643E-04 
  65814.8064     0.27077E-04 
  65847.0686     0.27517E-04 
  65879.3307     0.27963E-04 
  65911.5929     0.28415E-04 
  65943.8550     0.28872E-04 
  65976.1172     0.29335E-04 
  66008.3794     0.29804E-04 
  66040.6415     0.30280E-04 
  66072.9037     0.30761E-04 
  66105.1658     0.31248E-04 
  66137.4280     0.31741E-04 
  66169.6902     0.32241E-04 
  66201.9523     0.32746E-04 
  66234.2145     0.33258E-04 
  66266.4766     0.33776E-04 
  66298.7388     0.34301E-04 
  66331.0010     0.34832E-04 
  66363.2631     0.35369E-04 
  66395.5253     0.35912E-04 
  66427.7874     0.36463E-04 
  66460.0496     0.37019E-04 
  66492.3118     0.37583E-04 
  66524.5739     0.38152E-04 
  66556.8361     0.38729E-04 
  66589.0982     0.39312E-04 
  66621.3604     0.39903E-04 
  66653.6226     0.40499E-04 
  66685.8847     0.41103E-04 
  66718.1469     0.41714E-04 
  66750.4090     0.42332E-04 
  66782.6712     0.42956E-04 
  66814.9334     0.43588E-04 
  66847.1955     0.44227E-04 
  66879.4577     0.44873E-04 
  66911.7198     0.45526E-04 
  66943.9820     0.46186E-04 
  66976.2442     0.46854E-04 
  67008.5063     0.47529E-04 
  67040.7685     0.48211E-04 
  67073.0306     0.48901E-04 
  67105.2928     0.49598E-04 
  67137.5550     0.50303E-04 
  67169.8171     0.51015E-04 
  67202.0793     0.51735E-04 
  67234.3414     0.52462E-04 
  67266.6036     0.53198E-04 
  67298.8658     0.53941E-04 
  67331.1279     0.54691E-04 
  67363.3901     0.55450E-04 
  67395.6522     0.56217E-04 
  67427.9144     0.56991E-04 
  67460.1766     0.57773E-04 
  67492.4387     0.58564E-04 
  67524.7009     0.59362E-04 
  67556.9630     0.60169E-04 
  67589.2252     0.60984E-04 
  67621.4874     0.61807E-04 
  67653.7495     0.62638E-04 
  67686.0117     0.63477E-04 
  67718.2738     0.64325E-04 
  67750.5360     0.65182E-04 
  67782.7982     0.66046E-04 
  67815.0603     0.66920E-04 
  67847.3225     0.67801E-04 
  67879.5846     0.68692E-04 
  67911.8468     0.69591E-04 
  67944.1090     0.70498E-04 
  67976.3711     0.71415E-04 
  68008.6333     0.72340E-04 
  68040.8954     0.73274E-04 
  68073.1576     0.74216E-04 
  68105.4198     0.75168E-04 
  68137.6819     0.76129E-04 
  68169.9441     0.77098E-04 
  68202.2062     0.78077E-04 
  68234.4684     0.79065E-04 
  68266.7306     0.80061E-04 
  68298.9927     0.81067E-04 
  68331.2549     0.82082E-04 
  68363.5170     0.83107E-04 
  68395.7792     0.84141E-04 
  68428.0414     0.85184E-04 
  68460.3035     0.86236E-04 
  68492.5657     0.87298E-04 
  68524.8278     0.88369E-04 
  68557.0900     0.89450E-04 
  68589.3522     0.90541E-04 
  68621.6143     0.91641E-04 
  68653.8765     0.92750E-04 
  68686.1386     0.93870E-04 
  68718.4008     0.94999E-04 
  68750.6630     0.96137E-04 
  68782.9251     0.97286E-04 
  68815.1873     0.98445E-04 
  68847.4494     0.99613E-04 
  68879.7116     0.10079E-03 
  68911.9738     0.10198E-03 
  68944.2359     0.10318E-03 
  68976.4981     0.10439E-03 
  69008.7602     0.10560E-03 
  69041.0224     0.10683E-03 
  69073.2846     0.10807E-03 
  69105.5467     0.10932E-03 
  69137.8089     0.11058E-03 
  69170.0710     0.11185E-03 
  69202.3332     0.11313E-03 
  69234.5954     0.11442E-03 
  69266.8575     0.11572E-03 
  69299.1197     0.11703E-03 
  69331.3818     0.11835E-03 
  69363.6440     0.11968E-03 
  69395.9062     0.12103E-03 
  69428.1683     0.12238E-03 
  69460.4305     0.12374E-03 
  69492.6926     0.12512E-03 
  69524.9548     0.12650E-03 
  69557.2170     0.12790E-03 
  69589.4791     0.12930E-03 
  69621.7413     0.13072E-03 
  69654.0034     0.13215E-03 
  69686.2656     0.13359E-03 
  69718.5278     0.13504E-03 
  69750.7899     0.13650E-03 
  69783.0521     0.13797E-03 
  69815.3142     0.13945E-03 
  69847.5764     0.14094E-03 
  69879.8386     0.14245E-03 
  69912.1007     0.14396E-03 
  69944.3629     0.14549E-03 
  69976.6250     0.14703E-03 
  70008.8872     0.14857E-03 
  70041.1494     0.15013E-03 
  70073.4115     0.15171E-03 
  70105.6737     0.15329E-03 
  70137.9358     0.15488E-03 
  70170.1980     0.15649E-03 
  70202.4602     0.15810E-03 
  70234.7223     0.15973E-03 
  70266.9845     0.16137E-03 
  70299.2466     0.16302E-03 
  70331.5088     0.16468E-03 
  70363.7710     0.16635E-03 
  70396.0331     0.16804E-03 
  70428.2953     0.16973E-03 
  70460.5574     0.17144E-03 
  70492.8196     0.17316E-03 
  70525.0818     0.17489E-03 
  70557.3439     0.17663E-03 
  70589.6061     0.17838E-03 
  70621.8682     0.18014E-03 
  70654.1304     0.18192E-03 
  70686.3926     0.18371E-03 
  70718.6547     0.18551E-03 
  70750.9169     0.18732E-03 
  70783.1790     0.18914E-03 
  70815.4412     0.19097E-03 
  70847.7034     0.19282E-03 
  70879.9655     0.19468E-03 
  70912.2277     0.19655E-03 
  70944.4898     0.19843E-03 
  70976.7520     0.20032E-03 
  71009.0142     0.20222E-03 
  71041.2763     0.20414E-03 
  71073.5385     0.20607E-03 
  71105.8006     0.20801E-03 
  71138.0628     0.20996E-03 
  71170.3250     0.21192E-03 
  71202.5871     0.21389E-03 
  71234.8493     0.21588E-03 
  71267.1114     0.21788E-03 
  71299.3736     0.21989E-03 
  71331.6358     0.22191E-03 
  71363.8979     0.22394E-03 
  71396.1601     0.22599E-03 
  71428.4222     0.22804E-03 
  71460.6844     0.23011E-03 
  71492.9466     0.23219E-03 
  71525.2087     0.23428E-03 
  71557.4709     0.23639E-03 
  71589.7330     0.23850E-03 
  71621.9952     0.24063E-03 
  71654.2574     0.24277E-03 
  71686.5195     0.24492E-03 
  71718.7817     0.24708E-03 
  71751.0438     0.24926E-03 
  71783.3060     0.25144E-03 
  71815.5682     0.25364E-03 
  71847.8303     0.25585E-03 
  71880.0925     0.25807E-03 
  71912.3546     0.26030E-03 
  71944.6168     0.26254E-03 
  71976.8790     0.26480E-03 
  72009.1411     0.26707E-03 
  72041.4033     0.26935E-03 
  72073.6654     0.27164E-03 
  72105.9276     0.27394E-03 
  72138.1898     0.27625E-03 
  72170.4519     0.27858E-03 
  72202.7141     0.28091E-03 
  72234.9762     0.28326E-03 
  72267.2384     0.28562E-03 
  72299.5006     0.28799E-03 
  72331.7627     0.29037E-03 
  72364.0249     0.29277E-03 
  72396.2870     0.29517E-03 
  72428.5492     0.29759E-03 
  72460.8114     0.30002E-03 
  72493.0735     0.30246E-03 
  72525.3357     0.30491E-03 
  72557.5978     0.30737E-03 
  72589.8600     0.30984E-03 
