  32262.1600     0.16289E-02 
  32294.4222     0.16449E-02 
  32326.6843     0.16610E-02 
  32358.9465     0.16772E-02 
  32391.2086     0.16934E-02 
  32423.4708     0.17098E-02 
  32455.7330     0.17263E-02 
  32487.9951     0.17429E-02 
  32520.2573     0.17596E-02 
  32552.5194     0.17763E-02 
  32584.7816     0.17932E-02 
  32617.0438     0.18102E-02 
  32649.3059     0.18273E-02 
  32681.5681     0.18445E-02 
  32713.8302     0.18617E-02 
  32746.0924     0.18791E-02 
  32778.3546     0.18966E-02 
  32810.6167     0.19141E-02 
  32842.8789     0.19318E-02 
  32875.1410     0.19496E-02 
  32907.4032     0.19674E-02 
  32939.6654     0.19854E-02 
  32971.9275     0.20034E-02 
  33004.1897     0.20216E-02 
  33036.4518     0.20398E-02 
  33068.7140     0.20582E-02 
  33100.9762     0.20766E-02 
  33133.2383     0.20952E-02 
  33165.5005     0.21138E-02 
  33197.7626     0.21325E-02 
  33230.0248     0.21514E-02 
  33262.2870     0.21703E-02 
  33294.5491     0.21893E-02 
  33326.8113     0.22084E-02 
  33359.0734     0.22276E-02 
  33391.3356     0.22469E-02 
  33423.5978     0.22663E-02 
  33455.8599     0.22857E-02 
  33488.1221     0.23053E-02 
  33520.3842     0.23250E-02 
  33552.6464     0.23447E-02 
  33584.9086     0.23646E-02 
  33617.1707     0.23845E-02 
  33649.4329     0.24045E-02 
  33681.6950     0.24247E-02 
  33713.9572     0.24449E-02 
  33746.2194     0.24652E-02 
  33778.4815     0.24855E-02 
  33810.7437     0.25060E-02 
  33843.0058     0.25266E-02 
  33875.2680     0.25472E-02 
  33907.5302     0.25680E-02 
  33939.7923     0.25888E-02 
  33972.0545     0.26097E-02 
  34004.3166     0.26307E-02 
  34036.5788     0.26517E-02 
  34068.8410     0.26729E-02 
  34101.1031     0.26941E-02 
  34133.3653     0.27155E-02 
  34165.6274     0.27369E-02 
  34197.8896     0.27583E-02 
  34230.1518     0.27799E-02 
  34262.4139     0.28016E-02 
  34294.6761     0.28233E-02 
  34326.9382     0.28451E-02 
  34359.2004     0.28670E-02 
  34391.4626     0.28889E-02 
  34423.7247     0.29110E-02 
  34455.9869     0.29331E-02 
  34488.2490     0.29553E-02 
  34520.5112     0.29776E-02 
  34552.7734     0.29999E-02 
  34585.0355     0.30223E-02 
  34617.2977     0.30448E-02 
  34649.5598     0.30674E-02 
  34681.8220     0.30900E-02 
  34714.0842     0.31127E-02 
  34746.3463     0.31355E-02 
  34778.6085     0.31583E-02 
  34810.8706     0.31813E-02 
  34843.1328     0.32042E-02 
  34875.3950     0.32273E-02 
  34907.6571     0.32504E-02 
  34939.9193     0.32736E-02 
  34972.1814     0.32968E-02 
  35004.4436     0.33201E-02 
  35036.7058     0.33435E-02 
  35068.9679     0.33669E-02 
  35101.2301     0.33904E-02 
  35133.4922     0.34140E-02 
  35165.7544     0.34376E-02 
  35198.0166     0.34613E-02 
  35230.2787     0.34850E-02 
  35262.5409     0.35088E-02 
  35294.8030     0.35326E-02 
  35327.0652     0.35565E-02 
  35359.3274     0.35805E-02 
  35391.5895     0.36045E-02 
  35423.8517     0.36286E-02 
  35456.1138     0.36527E-02 
  35488.3760     0.36768E-02 
  35520.6382     0.37010E-02 
  35552.9003     0.37253E-02 
  35585.1625     0.37496E-02 
  35617.4246     0.37740E-02 
  35649.6868     0.37984E-02 
  35681.9490     0.38228E-02 
  35714.2111     0.38473E-02 
  35746.4733     0.38718E-02 
  35778.7354     0.38964E-02 
  35810.9976     0.39210E-02 
  35843.2598     0.39457E-02 
  35875.5219     0.39703E-02 
  35907.7841     0.39951E-02 
  35940.0462     0.40198E-02 
  35972.3084     0.40446E-02 
  36004.5706     0.40695E-02 
  36036.8327     0.40943E-02 
  36069.0949     0.41192E-02 
  36101.3570     0.41441E-02 
  36133.6192     0.41691E-02 
  36165.8814     0.41941E-02 
  36198.1435     0.42191E-02 
  36230.4057     0.42441E-02 
  36262.6678     0.42692E-02 
  36294.9300     0.42943E-02 
  36327.1922     0.43194E-02 
  36359.4543     0.43445E-02 
  36391.7165     0.43697E-02 
  36423.9786     0.43949E-02 
  36456.2408     0.44200E-02 
  36488.5030     0.44453E-02 
  36520.7651     0.44705E-02 
  36553.0273     0.44957E-02 
  36585.2894     0.45210E-02 
  36617.5516     0.45462E-02 
  36649.8138     0.45715E-02 
  36682.0759     0.45968E-02 
  36714.3381     0.46221E-02 
  36746.6002     0.46474E-02 
  36778.8624     0.46727E-02 
  36811.1246     0.46980E-02 
  36843.3867     0.47233E-02 
  36875.6489     0.47486E-02 
  36907.9110     0.47740E-02 
  36940.1732     0.47993E-02 
  36972.4354     0.48246E-02 
  37004.6975     0.48499E-02 
  37036.9597     0.48752E-02 
  37069.2218     0.49005E-02 
  37101.4840     0.49259E-02 
  37133.7462     0.49511E-02 
  37166.0083     0.49764E-02 
  37198.2705     0.50017E-02 
  37230.5326     0.50270E-02 
  37262.7948     0.50522E-02 
  37295.0570     0.50775E-02 
  37327.3191     0.51027E-02 
  37359.5813     0.51279E-02 
  37391.8434     0.51531E-02 
  37424.1056     0.51783E-02 
  37456.3678     0.52034E-02 
  37488.6299     0.52285E-02 
  37520.8921     0.52537E-02 
  37553.1542     0.52787E-02 
  37585.4164     0.53038E-02 
  37617.6786     0.53288E-02 
  37649.9407     0.53538E-02 
  37682.2029     0.53788E-02 
  37714.4650     0.54037E-02 
  37746.7272     0.54287E-02 
  37778.9894     0.54535E-02 
  37811.2515     0.54784E-02 
  37843.5137     0.55032E-02 
  37875.7758     0.55279E-02 
  37908.0380     0.55527E-02 
  37940.3002     0.55774E-02 
  37972.5623     0.56020E-02 
  38004.8245     0.56266E-02 
  38037.0866     0.56512E-02 
  38069.3488     0.56757E-02 
  38101.6110     0.57002E-02 
  38133.8731     0.57246E-02 
  38166.1353     0.57490E-02 
  38198.3974     0.57733E-02 
  38230.6596     0.57976E-02 
  38262.9218     0.58218E-02 
  38295.1839     0.58460E-02 
  38327.4461     0.58701E-02 
  38359.7082     0.58941E-02 
  38391.9704     0.59181E-02 
  38424.2326     0.59421E-02 
  38456.4947     0.59659E-02 
  38488.7569     0.59898E-02 
  38521.0190     0.60135E-02 
  38553.2812     0.60372E-02 
  38585.5434     0.60608E-02 
  38617.8055     0.60844E-02 
  38650.0677     0.61078E-02 
  38682.3298     0.61313E-02 
  38714.5920     0.61546E-02 
  38746.8542     0.61779E-02 
  38779.1163     0.62011E-02 
  38811.3785     0.62242E-02 
  38843.6406     0.62472E-02 
  38875.9028     0.62702E-02 
  38908.1650     0.62931E-02 
  38940.4271     0.63159E-02 
  38972.6893     0.63386E-02 
  39004.9514     0.63613E-02 
  39037.2136     0.63838E-02 
  39069.4758     0.64063E-02 
  39101.7379     0.64287E-02 
  39134.0001     0.64510E-02 
  39166.2622     0.64732E-02 
  39198.5244     0.64953E-02 
  39230.7866     0.65174E-02 
  39263.0487     0.65393E-02 
  39295.3109     0.65611E-02 
  39327.5730     0.65829E-02 
  39359.8352     0.66046E-02 
  39392.0974     0.66261E-02 
  39424.3595     0.66476E-02 
  39456.6217     0.66689E-02 
  39488.8838     0.66902E-02 
  39521.1460     0.67113E-02 
  39553.4082     0.67324E-02 
  39585.6703     0.67533E-02 
  39617.9325     0.67742E-02 
  39650.1946     0.67949E-02 
  39682.4568     0.68155E-02 
  39714.7190     0.68361E-02 
  39746.9811     0.68565E-02 
  39779.2433     0.68768E-02 
  39811.5054     0.68969E-02 
  39843.7676     0.69170E-02 
  39876.0298     0.69370E-02 
  39908.2919     0.69568E-02 
  39940.5541     0.69765E-02 
  39972.8162     0.69961E-02 
  40005.0784     0.70156E-02 
  40037.3406     0.70350E-02 
  40069.6027     0.70542E-02 
  40101.8649     0.70733E-02 
  40134.1270     0.70923E-02 
  40166.3892     0.71112E-02 
  40198.6514     0.71299E-02 
  40230.9135     0.71486E-02 
  40263.1757     0.71671E-02 
  40295.4378     0.71854E-02 
  40327.7000     0.72037E-02 
  40359.9622     0.72218E-02 
  40392.2243     0.72397E-02 
  40424.4865     0.72576E-02 
  40456.7486     0.72753E-02 
  40489.0108     0.72928E-02 
  40521.2730     0.73103E-02 
  40553.5351     0.73276E-02 
  40585.7973     0.73447E-02 
  40618.0594     0.73618E-02 
  40650.3216     0.73786E-02 
  40682.5838     0.73954E-02 
  40714.8459     0.74120E-02 
  40747.1081     0.74284E-02 
  40779.3702     0.74448E-02 
  40811.6324     0.74609E-02 
  40843.8946     0.74770E-02 
  40876.1567     0.74929E-02 
  40908.4189     0.75086E-02 
  40940.6810     0.75242E-02 
  40972.9432     0.75396E-02 
  41005.2054     0.75549E-02 
  41037.4675     0.75701E-02 
  41069.7297     0.75850E-02 
  41101.9918     0.75999E-02 
  41134.2540     0.76146E-02 
  41166.5162     0.76291E-02 
  41198.7783     0.76435E-02 
  41231.0405     0.76577E-02 
  41263.3026     0.76718E-02 
  41295.5648     0.76857E-02 
  41327.8270     0.76995E-02 
  41360.0891     0.77131E-02 
  41392.3513     0.77265E-02 
  41424.6134     0.77398E-02 
  41456.8756     0.77529E-02 
  41489.1378     0.77659E-02 
  41521.3999     0.77787E-02 
  41553.6621     0.77914E-02 
  41585.9242     0.78038E-02 
  41618.1864     0.78162E-02 
  41650.4486     0.78283E-02 
  41682.7107     0.78403E-02 
  41714.9729     0.78522E-02 
  41747.2350     0.78638E-02 
  41779.4972     0.78753E-02 
  41811.7594     0.78867E-02 
  41844.0215     0.78978E-02 
  41876.2837     0.79088E-02 
  41908.5458     0.79197E-02 
  41940.8080     0.79303E-02 
  41973.0702     0.79408E-02 
  42005.3323     0.79511E-02 
  42037.5945     0.79613E-02 
  42069.8566     0.79713E-02 
  42102.1188     0.79811E-02 
  42134.3810     0.79907E-02 
  42166.6431     0.80002E-02 
  42198.9053     0.80095E-02 
  42231.1674     0.80187E-02 
  42263.4296     0.80276E-02 
  42295.6918     0.80364E-02 
  42327.9539     0.80450E-02 
  42360.2161     0.80534E-02 
  42392.4782     0.80617E-02 
  42424.7404     0.80698E-02 
  42457.0026     0.80777E-02 
  42489.2647     0.80855E-02 
  42521.5269     0.80930E-02 
  42553.7890     0.81004E-02 
  42586.0512     0.81076E-02 
  42618.3134     0.81147E-02 
  42650.5755     0.81215E-02 
  42682.8377     0.81282E-02 
  42715.0998     0.81347E-02 
  42747.3620     0.81410E-02 
  42779.6242     0.81472E-02 
  42811.8863     0.81532E-02 
  42844.1485     0.81589E-02 
  42876.4106     0.81646E-02 
  42908.6728     0.81700E-02 
  42940.9350     0.81753E-02 
  42973.1971     0.81803E-02 
  43005.4593     0.81853E-02 
  43037.7214     0.81900E-02 
  43069.9836     0.81945E-02 
  43102.2458     0.81989E-02 
  43134.5079     0.82031E-02 
  43166.7701     0.82071E-02 
  43199.0322     0.82109E-02 
  43231.2944     0.82146E-02 
  43263.5566     0.82180E-02 
  43295.8187     0.82213E-02 
  43328.0809     0.82245E-02 
  43360.3430     0.82274E-02 
  43392.6052     0.82301E-02 
  43424.8674     0.82327E-02 
  43457.1295     0.82351E-02 
  43489.3917     0.82373E-02 
  43521.6538     0.82394E-02 
  43553.9160     0.82412E-02 
  43586.1782     0.82429E-02 
  43618.4403     0.82444E-02 
  43650.7025     0.82457E-02 
  43682.9646     0.82469E-02 
  43715.2268     0.82478E-02 
  43747.4890     0.82486E-02 
  43779.7511     0.82492E-02 
  43812.0133     0.82497E-02 
  43844.2754     0.82499E-02 
  43876.5376     0.82500E-02 
  43908.7998     0.82499E-02 
  43941.0619     0.82496E-02 
  43973.3241     0.82492E-02 
  44005.5862     0.82485E-02 
  44037.8484     0.82477E-02 
  44070.1106     0.82467E-02 
  44102.3727     0.82456E-02 
  44134.6349     0.82442E-02 
  44166.8970     0.82427E-02 
  44199.1592     0.82410E-02 
  44231.4214     0.82392E-02 
  44263.6835     0.82371E-02 
  44295.9457     0.82349E-02 
  44328.2078     0.82325E-02 
  44360.4700     0.82299E-02 
  44392.7322     0.82272E-02 
  44424.9943     0.82243E-02 
  44457.2565     0.82212E-02 
  44489.5186     0.82180E-02 
  44521.7808     0.82145E-02 
  44554.0430     0.82109E-02 
  44586.3051     0.82072E-02 
  44618.5673     0.82032E-02 
  44650.8294     0.81991E-02 
  44683.0916     0.81948E-02 
  44715.3538     0.81904E-02 
  44747.6159     0.81858E-02 
  44779.8781     0.81810E-02 
  44812.1402     0.81760E-02 
  44844.4024     0.81709E-02 
  44876.6646     0.81656E-02 
  44908.9267     0.81601E-02 
  44941.1889     0.81545E-02 
  44973.4510     0.81487E-02 
  45005.7132     0.81428E-02 
  45037.9754     0.81366E-02 
  45070.2375     0.81303E-02 
  45102.4997     0.81239E-02 
  45134.7618     0.81173E-02 
  45167.0240     0.81105E-02 
  45199.2862     0.81036E-02 
  45231.5483     0.80965E-02 
  45263.8105     0.80892E-02 
  45296.0726     0.80818E-02 
  45328.3348     0.80742E-02 
  45360.5970     0.80665E-02 
  45392.8591     0.80586E-02 
  45425.1213     0.80505E-02 
  45457.3834     0.80423E-02 
  45489.6456     0.80340E-02 
  45521.9078     0.80254E-02 
  45554.1699     0.80167E-02 
  45586.4321     0.80079E-02 
  45618.6942     0.79989E-02 
  45650.9564     0.79898E-02 
  45683.2186     0.79805E-02 
  45715.4807     0.79711E-02 
  45747.7429     0.79615E-02 
  45780.0050     0.79517E-02 
  45812.2672     0.79418E-02 
  45844.5294     0.79318E-02 
  45876.7915     0.79216E-02 
  45909.0537     0.79112E-02 
  45941.3158     0.79008E-02 
  45973.5780     0.78901E-02 
  46005.8402     0.78794E-02 
  46038.1023     0.78684E-02 
  46070.3645     0.78574E-02 
  46102.6266     0.78462E-02 
  46134.8888     0.78348E-02 
  46167.1510     0.78233E-02 
  46199.4131     0.78117E-02 
  46231.6753     0.77999E-02 
  46263.9374     0.77880E-02 
  46296.1996     0.77760E-02 
  46328.4618     0.77638E-02 
  46360.7239     0.77515E-02 
  46392.9861     0.77390E-02 
  46425.2482     0.77264E-02 
  46457.5104     0.77137E-02 
  46489.7726     0.77008E-02 
  46522.0347     0.76878E-02 
  46554.2969     0.76747E-02 
  46586.5590     0.76615E-02 
  46618.8212     0.76481E-02 
  46651.0834     0.76346E-02 
  46683.3455     0.76209E-02 
  46715.6077     0.76071E-02 
  46747.8698     0.75933E-02 
  46780.1320     0.75792E-02 
  46812.3942     0.75651E-02 
  46844.6563     0.75508E-02 
  46876.9185     0.75364E-02 
  46909.1806     0.75219E-02 
  46941.4428     0.75073E-02 
  46973.7050     0.74925E-02 
  47005.9671     0.74777E-02 
  47038.2293     0.74627E-02 
  47070.4914     0.74476E-02 
  47102.7536     0.74324E-02 
  47135.0158     0.74170E-02 
  47167.2779     0.74016E-02 
  47199.5401     0.73860E-02 
  47231.8022     0.73703E-02 
  47264.0644     0.73545E-02 
  47296.3266     0.73386E-02 
  47328.5887     0.73226E-02 
  47360.8509     0.73065E-02 
  47393.1130     0.72903E-02 
  47425.3752     0.72740E-02 
  47457.6374     0.72575E-02 
  47489.8995     0.72410E-02 
  47522.1617     0.72243E-02 
  47554.4238     0.72076E-02 
  47586.6860     0.71907E-02 
  47618.9482     0.71738E-02 
  47651.2103     0.71567E-02 
  47683.4725     0.71396E-02 
  47715.7346     0.71223E-02 
  47747.9968     0.71050E-02 
  47780.2590     0.70875E-02 
  47812.5211     0.70700E-02 
  47844.7833     0.70524E-02 
  47877.0454     0.70346E-02 
  47909.3076     0.70168E-02 
  47941.5698     0.69989E-02 
  47973.8319     0.69809E-02 
  48006.0941     0.69628E-02 
  48038.3562     0.69446E-02 
  48070.6184     0.69264E-02 
  48102.8806     0.69080E-02 
  48135.1427     0.68896E-02 
  48167.4049     0.68710E-02 
  48199.6670     0.68524E-02 
  48231.9292     0.68337E-02 
  48264.1914     0.68150E-02 
  48296.4535     0.67961E-02 
  48328.7157     0.67772E-02 
  48360.9778     0.67582E-02 
  48393.2400     0.67391E-02 
  48425.5022     0.67199E-02 
  48457.7643     0.67007E-02 
  48490.0265     0.66814E-02 
  48522.2886     0.66620E-02 
  48554.5508     0.66425E-02 
  48586.8130     0.66230E-02 
  48619.0751     0.66034E-02 
  48651.3373     0.65837E-02 
  48683.5994     0.65640E-02 
  48715.8616     0.65442E-02 
  48748.1238     0.65243E-02 
  48780.3859     0.65044E-02 
  48812.6481     0.64843E-02 
  48844.9102     0.64643E-02 
  48877.1724     0.64441E-02 
  48909.4346     0.64240E-02 
  48941.6967     0.64037E-02 
  48973.9589     0.63834E-02 
  49006.2210     0.63630E-02 
  49038.4832     0.63426E-02 
  49070.7454     0.63221E-02 
  49103.0075     0.63015E-02 
  49135.2697     0.62809E-02 
  49167.5318     0.62603E-02 
  49199.7940     0.62396E-02 
  49232.0562     0.62188E-02 
  49264.3183     0.61980E-02 
  49296.5805     0.61772E-02 
  49328.8426     0.61562E-02 
  49361.1048     0.61353E-02 
  49393.3670     0.61143E-02 
  49425.6291     0.60932E-02 
  49457.8913     0.60721E-02 
  49490.1534     0.60510E-02 
  49522.4156     0.60298E-02 
  49554.6778     0.60086E-02 
  49586.9399     0.59873E-02 
  49619.2021     0.59660E-02 
  49651.4642     0.59447E-02 
  49683.7264     0.59233E-02 
  49715.9886     0.59018E-02 
  49748.2507     0.58804E-02 
  49780.5129     0.58589E-02 
  49812.7750     0.58373E-02 
  49845.0372     0.58158E-02 
  49877.2994     0.57942E-02 
  49909.5615     0.57725E-02 
  49941.8237     0.57509E-02 
  49974.0858     0.57292E-02 
  50006.3480     0.57075E-02 
  50038.6102     0.56857E-02 
  50070.8723     0.56639E-02 
  50103.1345     0.56421E-02 
  50135.3966     0.56203E-02 
  50167.6588     0.55984E-02 
  50199.9210     0.55765E-02 
  50232.1831     0.55546E-02 
  50264.4453     0.55327E-02 
  50296.7074     0.55107E-02 
  50328.9696     0.54888E-02 
  50361.2318     0.54668E-02 
  50393.4939     0.54448E-02 
  50425.7561     0.54227E-02 
  50458.0182     0.54007E-02 
  50490.2804     0.53786E-02 
  50522.5426     0.53565E-02 
  50554.8047     0.53344E-02 
  50587.0669     0.53123E-02 
  50619.3290     0.52902E-02 
  50651.5912     0.52681E-02 
  50683.8534     0.52459E-02 
  50716.1155     0.52238E-02 
  50748.3777     0.52016E-02 
  50780.6398     0.51794E-02 
  50812.9020     0.51573E-02 
  50845.1642     0.51351E-02 
  50877.4263     0.51129E-02 
  50909.6885     0.50907E-02 
  50941.9506     0.50685E-02 
  50974.2128     0.50463E-02 
  51006.4750     0.50240E-02 
  51038.7371     0.50018E-02 
  51070.9993     0.49796E-02 
  51103.2614     0.49574E-02 
  51135.5236     0.49352E-02 
  51167.7858     0.49130E-02 
  51200.0479     0.48907E-02 
  51232.3101     0.48685E-02 
  51264.5722     0.48463E-02 
  51296.8344     0.48241E-02 
  51329.0966     0.48019E-02 
  51361.3587     0.47797E-02 
  51393.6209     0.47575E-02 
  51425.8830     0.47353E-02 
  51458.1452     0.47131E-02 
  51490.4074     0.46910E-02 
  51522.6695     0.46688E-02 
  51554.9317     0.46466E-02 
  51587.1938     0.46245E-02 
  51619.4560     0.46024E-02 
  51651.7182     0.45802E-02 
  51683.9803     0.45581E-02 
  51716.2425     0.45360E-02 
  51748.5046     0.45140E-02 
  51780.7668     0.44919E-02 
  51813.0290     0.44698E-02 
  51845.2911     0.44478E-02 
  51877.5533     0.44258E-02 
  51909.8154     0.44038E-02 
  51942.0776     0.43818E-02 
  51974.3398     0.43598E-02 
  52006.6019     0.43379E-02 
  52038.8641     0.43159E-02 
  52071.1262     0.42940E-02 
  52103.3884     0.42721E-02 
  52135.6506     0.42503E-02 
  52167.9127     0.42284E-02 
  52200.1749     0.42066E-02 
  52232.4370     0.41848E-02 
  52264.6992     0.41630E-02 
  52296.9614     0.41413E-02 
  52329.2235     0.41195E-02 
  52361.4857     0.40978E-02 
  52393.7478     0.40762E-02 
  52426.0100     0.40545E-02 
  52458.2722     0.40329E-02 
  52490.5343     0.40113E-02 
  52522.7965     0.39897E-02 
  52555.0586     0.39682E-02 
  52587.3208     0.39467E-02 
  52619.5830     0.39252E-02 
  52651.8451     0.39038E-02 
  52684.1073     0.38823E-02 
  52716.3694     0.38610E-02 
  52748.6316     0.38396E-02 
  52780.8938     0.38183E-02 
  52813.1559     0.37970E-02 
  52845.4181     0.37758E-02 
  52877.6802     0.37545E-02 
  52909.9424     0.37334E-02 
  52942.2046     0.37122E-02 
  52974.4667     0.36911E-02 
  53006.7289     0.36700E-02 
  53038.9910     0.36490E-02 
  53071.2532     0.36280E-02 
  53103.5154     0.36070E-02 
  53135.7775     0.35861E-02 
  53168.0397     0.35652E-02 
  53200.3018     0.35444E-02 
  53232.5640     0.35236E-02 
  53264.8262     0.35028E-02 
  53297.0883     0.34821E-02 
  53329.3505     0.34614E-02 
  53361.6126     0.34408E-02 
  53393.8748     0.34202E-02 
  53426.1370     0.33996E-02 
  53458.3991     0.33791E-02 
  53490.6613     0.33586E-02 
  53522.9234     0.33382E-02 
  53555.1856     0.33178E-02 
  53587.4478     0.32975E-02 
  53619.7099     0.32772E-02 
  53651.9721     0.32569E-02 
  53684.2342     0.32367E-02 
  53716.4964     0.32166E-02 
  53748.7586     0.31965E-02 
  53781.0207     0.31764E-02 
  53813.2829     0.31564E-02 
  53845.5450     0.31364E-02 
  53877.8072     0.31165E-02 
  53910.0694     0.30966E-02 
  53942.3315     0.30768E-02 
  53974.5937     0.30570E-02 
  54006.8558     0.30373E-02 
  54039.1180     0.30176E-02 
  54071.3802     0.29980E-02 
  54103.6423     0.29784E-02 
  54135.9045     0.29589E-02 
  54168.1666     0.29394E-02 
  54200.4288     0.29200E-02 
  54232.6910     0.29006E-02 
  54264.9531     0.28813E-02 
  54297.2153     0.28620E-02 
  54329.4774     0.28428E-02 
  54361.7396     0.28237E-02 
  54394.0018     0.28045E-02 
  54426.2639     0.27855E-02 
  54458.5261     0.27665E-02 
  54490.7882     0.27475E-02 
  54523.0504     0.27286E-02 
  54555.3126     0.27098E-02 
  54587.5747     0.26910E-02 
  54619.8369     0.26723E-02 
  54652.0990     0.26536E-02 
  54684.3612     0.26350E-02 
  54716.6234     0.26164E-02 
  54748.8855     0.25979E-02 
  54781.1477     0.25795E-02 
  54813.4098     0.25611E-02 
  54845.6720     0.25427E-02 
  54877.9342     0.25244E-02 
  54910.1963     0.25062E-02 
  54942.4585     0.24880E-02 
  54974.7206     0.24699E-02 
  55006.9828     0.24519E-02 
  55039.2450     0.24339E-02 
  55071.5071     0.24160E-02 
  55103.7693     0.23981E-02 
  55136.0314     0.23803E-02 
  55168.2936     0.23625E-02 
  55200.5558     0.23448E-02 
  55232.8179     0.23272E-02 
  55265.0801     0.23096E-02 
  55297.3422     0.22921E-02 
  55329.6044     0.22746E-02 
  55361.8666     0.22572E-02 
  55394.1287     0.22399E-02 
  55426.3909     0.22226E-02 
  55458.6530     0.22054E-02 
  55490.9152     0.21882E-02 
  55523.1774     0.21711E-02 
  55555.4395     0.21541E-02 
  55587.7017     0.21371E-02 
  55619.9638     0.21202E-02 
  55652.2260     0.21033E-02 
  55684.4882     0.20865E-02 
  55716.7503     0.20698E-02 
  55749.0125     0.20531E-02 
  55781.2746     0.20365E-02 
  55813.5368     0.20200E-02 
  55845.7990     0.20035E-02 
  55878.0611     0.19871E-02 
  55910.3233     0.19707E-02 
  55942.5854     0.19544E-02 
  55974.8476     0.19382E-02 
  56007.1098     0.19220E-02 
  56039.3719     0.19059E-02 
  56071.6341     0.18899E-02 
  56103.8962     0.18739E-02 
  56136.1584     0.18580E-02 
  56168.4206     0.18421E-02 
  56200.6827     0.18263E-02 
  56232.9449     0.18106E-02 
  56265.2070     0.17950E-02 
  56297.4692     0.17794E-02 
  56329.7314     0.17638E-02 
  56361.9935     0.17484E-02 
  56394.2557     0.17330E-02 
  56426.5178     0.17176E-02 
  56458.7800     0.17024E-02 
  56491.0422     0.16872E-02 
  56523.3043     0.16720E-02 
  56555.5665     0.16569E-02 
  56587.8286     0.16419E-02 
  56620.0908     0.16270E-02 
  56652.3530     0.16121E-02 
  56684.6151     0.15973E-02 
  56716.8773     0.15825E-02 
  56749.1394     0.15678E-02 
  56781.4016     0.15532E-02 
  56813.6638     0.15387E-02 
  56845.9259     0.15242E-02 
  56878.1881     0.15097E-02 
  56910.4502     0.14954E-02 
  56942.7124     0.14811E-02 
  56974.9746     0.14669E-02 
  57007.2367     0.14527E-02 
  57039.4989     0.14386E-02 
  57071.7610     0.14246E-02 
  57104.0232     0.14106E-02 
  57136.2854     0.13967E-02 
  57168.5475     0.13829E-02 
  57200.8097     0.13691E-02 
  57233.0718     0.13554E-02 
  57265.3340     0.13418E-02 
  57297.5962     0.13283E-02 
  57329.8583     0.13148E-02 
  57362.1205     0.13013E-02 
  57394.3826     0.12880E-02 
  57426.6448     0.12747E-02 
  57458.9070     0.12615E-02 
  57491.1691     0.12483E-02 
  57523.4313     0.12352E-02 
  57555.6934     0.12222E-02 
  57587.9556     0.12092E-02 
  57620.2178     0.11963E-02 
  57652.4799     0.11835E-02 
  57684.7421     0.11708E-02 
  57717.0042     0.11581E-02 
  57749.2664     0.11455E-02 
  57781.5286     0.11329E-02 
  57813.7907     0.11204E-02 
  57846.0529     0.11080E-02 
  57878.3150     0.10957E-02 
  57910.5772     0.10834E-02 
  57942.8394     0.10712E-02 
  57975.1015     0.10591E-02 
  58007.3637     0.10470E-02 
  58039.6258     0.10350E-02 
  58071.8880     0.10231E-02 
  58104.1502     0.10112E-02 
  58136.4123     0.99941E-03 
  58168.6745     0.98768E-03 
  58200.9366     0.97603E-03 
  58233.1988     0.96444E-03 
  58265.4610     0.95293E-03 
  58297.7231     0.94148E-03 
  58329.9853     0.93011E-03 
  58362.2474     0.91880E-03 
  58394.5096     0.90756E-03 
  58426.7718     0.89640E-03 
  58459.0339     0.88530E-03 
  58491.2961     0.87428E-03 
  58523.5582     0.86333E-03 
  58555.8204     0.85244E-03 
  58588.0826     0.84163E-03 
  58620.3447     0.83089E-03 
  58652.6069     0.82022E-03 
  58684.8690     0.80962E-03 
  58717.1312     0.79910E-03 
  58749.3934     0.78864E-03 
  58781.6555     0.77826E-03 
  58813.9177     0.76795E-03 
  58846.1798     0.75771E-03 
  58878.4420     0.74755E-03 
  58910.7042     0.73745E-03 
  58942.9663     0.72743E-03 
  58975.2285     0.71749E-03 
  59007.4906     0.70761E-03 
  59039.7528     0.69781E-03 
  59072.0150     0.68809E-03 
  59104.2771     0.67843E-03 
  59136.5393     0.66885E-03 
  59168.8014     0.65935E-03 
  59201.0636     0.64992E-03 
  59233.3258     0.64057E-03 
  59265.5879     0.63129E-03 
  59297.8501     0.62209E-03 
  59330.1122     0.61296E-03 
  59362.3744     0.60391E-03 
  59394.6366     0.59493E-03 
  59426.8987     0.58603E-03 
  59459.1609     0.57721E-03 
  59491.4230     0.56846E-03 
  59523.6852     0.55980E-03 
  59555.9474     0.55121E-03 
  59588.2095     0.54269E-03 
  59620.4717     0.53426E-03 
  59652.7338     0.52591E-03 
  59684.9960     0.51763E-03 
  59717.2582     0.50943E-03 
  59749.5203     0.50132E-03 
  59781.7825     0.49328E-03 
  59814.0446     0.48532E-03 
  59846.3068     0.47745E-03 
  59878.5690     0.46965E-03 
  59910.8311     0.46194E-03 
  59943.0933     0.45431E-03 
  59975.3554     0.44676E-03 
  60007.6176     0.43930E-03 
  60039.8798     0.43192E-03 
  60072.1419     0.42462E-03 
  60104.4041     0.41741E-03 
  60136.6662     0.41028E-03 
  60168.9284     0.40324E-03 
  60201.1906     0.39628E-03 
  60233.4527     0.38941E-03 
  60265.7149     0.38262E-03 
  60297.9770     0.37593E-03 
  60330.2392     0.36932E-03 
  60362.5014     0.36280E-03 
  60394.7635     0.35637E-03 
  60427.0257     0.35002E-03 
  60459.2878     0.34377E-03 
  60491.5500     0.33761E-03 
  60523.8122     0.33154E-03 
  60556.0743     0.32556E-03 
  60588.3365     0.31968E-03 
  60620.5986     0.31388E-03 
  60652.8608     0.30818E-03 
  60685.1230     0.30258E-03 
  60717.3851     0.29707E-03 
  60749.6473     0.29166E-03 
  60781.9094     0.28634E-03 
  60814.1716     0.28112E-03 
  60846.4338     0.27600E-03 
  60878.6959     0.27098E-03 
  60910.9581     0.26605E-03 
  60943.2202     0.26123E-03 
  60975.4824     0.25651E-03 
  61007.7446     0.25189E-03 
  61040.0067     0.24737E-03 
  61072.2689     0.24296E-03 
  61104.5310     0.23865E-03 
  61136.7932     0.23444E-03 
  61169.0554     0.23035E-03 
  61201.3175     0.22636E-03 
  61233.5797     0.22247E-03 
  61265.8418     0.21870E-03 
  61298.1040     0.21504E-03 
  61330.3662     0.21149E-03 
  61362.6283     0.20804E-03 
  61394.8905     0.20472E-03 
  61427.1526     0.20150E-03 
  61459.4148     0.19840E-03 
  61491.6770     0.19542E-03 
  61523.9391     0.19256E-03 
  61556.2013     0.18981E-03 
  61588.4634     0.18718E-03 
  61620.7256     0.18467E-03 
  61652.9878     0.18229E-03 
  61685.2499     0.18002E-03 
  61717.5121     0.17788E-03 
  61749.7742     0.17587E-03 
  61782.0364     0.17398E-03 
  61814.2986     0.17222E-03 
  61846.5607     0.17059E-03 
  61878.8229     0.16909E-03 
  61911.0850     0.16772E-03 
  61943.3472     0.16648E-03 
  61975.6094     0.16538E-03 
  62007.8715     0.16441E-03 
  62040.1337     0.16358E-03 
  62072.3958     0.16289E-03 
  62104.6580     0.16234E-03 
  62136.9202     0.16193E-03 
  62169.1823     0.16166E-03 
  62201.4445     0.16154E-03 
  62233.7066     0.16156E-03 
  62265.9688     0.16173E-03 
  62298.2310     0.16205E-03 
  62330.4931     0.16253E-03 
  62362.7553     0.16315E-03 
  62395.0174     0.16393E-03 
  62427.2796     0.16486E-03 
  62459.5418     0.16595E-03 
  62491.8039     0.16720E-03 
  62524.0661     0.16861E-03 
  62556.3282     0.17018E-03 
  62588.5904     0.17192E-03 
  62620.8526     0.17382E-03 
  62653.1147     0.17589E-03 
  62685.3769     0.17813E-03 
  62717.6390     0.18055E-03 
  62749.9012     0.18313E-03 
  62782.1634     0.18590E-03 
  62814.4255     0.18884E-03 
  62846.6877     0.19196E-03 
  62878.9498     0.19526E-03 
  62911.2120     0.19875E-03 
  62943.4742     0.20242E-03 
  62975.7363     0.20628E-03 
  63007.9985     0.21034E-03 
  63040.2606     0.21458E-03 
  63072.5228     0.21902E-03 
  63104.7850     0.22366E-03 
  63137.0471     0.22849E-03 
  63169.3093     0.23353E-03 
  63201.5714     0.23877E-03 
  63233.8336     0.24422E-03 
  63266.0958     0.24988E-03 
  63298.3579     0.25575E-03 
  63330.6201     0.26183E-03 
  63362.8822     0.26813E-03 
  63395.1444     0.27465E-03 
  63427.4066     0.28139E-03 
  63459.6687     0.28835E-03 
  63491.9309     0.29554E-03 
  63524.1930     0.30296E-03 
  63556.4552     0.31061E-03 
  63588.7174     0.31850E-03 
  63620.9795     0.32662E-03 
  63653.2417     0.33499E-03 
  63685.5038     0.34359E-03 
  63717.7660     0.35245E-03 
  63750.0282     0.36155E-03 
  63782.2903     0.37090E-03 
  63814.5525     0.38051E-03 
  63846.8146     0.39037E-03 
  63879.0768     0.40050E-03 
  63911.3390     0.41089E-03 
  63943.6011     0.42155E-03 
  63975.8633     0.43248E-03 
  64008.1254     0.44368E-03 
  64040.3876     0.45515E-03 
  64072.6498     0.46691E-03 
  64104.9119     0.47895E-03 
  64137.1741     0.49128E-03 
  64169.4362     0.50389E-03 
  64201.6984     0.51680E-03 
  64233.9606     0.53000E-03 
  64266.2227     0.54351E-03 
  64298.4849     0.55732E-03 
  64330.7470     0.57143E-03 
  64363.0092     0.58586E-03 
  64395.2714     0.60060E-03 
  64427.5335     0.61565E-03 
  64459.7957     0.63103E-03 
  64492.0578     0.64674E-03 
  64524.3200     0.66277E-03 
  64556.5822     0.67913E-03 
  64588.8443     0.69583E-03 
  64621.1065     0.71288E-03 
  64653.3686     0.73026E-03 
  64685.6308     0.74800E-03 
  64717.8930     0.76608E-03 
  64750.1551     0.78452E-03 
  64782.4173     0.80333E-03 
  64814.6794     0.82249E-03 
  64846.9416     0.84203E-03 
  64879.2038     0.86194E-03 
  64911.4659     0.88222E-03 
  64943.7281     0.90289E-03 
  64975.9902     0.92394E-03 
  65008.2524     0.94538E-03 
  65040.5146     0.96721E-03 
  65072.7767     0.98945E-03 
  65105.0389     0.10121E-02 
  65137.3010     0.10351E-02 
  65169.5632     0.10586E-02 
  65201.8254     0.10825E-02 
  65234.0875     0.11067E-02 
  65266.3497     0.11315E-02 
  65298.6118     0.11566E-02 
  65330.8740     0.11822E-02 
  65363.1362     0.12082E-02 
  65395.3983     0.12347E-02 
  65427.6605     0.12616E-02 
  65459.9226     0.12890E-02 
  65492.1848     0.13168E-02 
  65524.4470     0.13451E-02 
  65556.7091     0.13739E-02 
  65588.9713     0.14031E-02 
  65621.2334     0.14328E-02 
  65653.4956     0.14630E-02 
  65685.7578     0.14937E-02 
  65718.0199     0.15249E-02 
  65750.2821     0.15566E-02 
  65782.5442     0.15888E-02 
  65814.8064     0.16215E-02 
  65847.0686     0.16547E-02 
  65879.3307     0.16884E-02 
  65911.5929     0.17227E-02 
  65943.8550     0.17575E-02 
  65976.1172     0.17928E-02 
  66008.3794     0.18287E-02 
  66040.6415     0.18651E-02 
  66072.9037     0.19021E-02 
  66105.1658     0.19396E-02 
  66137.4280     0.19777E-02 
  66169.6902     0.20164E-02 
  66201.9523     0.20556E-02 
  66234.2145     0.20954E-02 
  66266.4766     0.21359E-02 
  66298.7388     0.21769E-02 
  66331.0010     0.22185E-02 
  66363.2631     0.22607E-02 
  66395.5253     0.23035E-02 
  66427.7874     0.23470E-02 
  66460.0496     0.23910E-02 
  66492.3118     0.24357E-02 
  66524.5739     0.24811E-02 
  66556.8361     0.25270E-02 
  66589.0982     0.25737E-02 
  66621.3604     0.26209E-02 
  66653.6226     0.26689E-02 
  66685.8847     0.27175E-02 
  66718.1469     0.27668E-02 
  66750.4090     0.28167E-02 
  66782.6712     0.28674E-02 
  66814.9334     0.29187E-02 
  66847.1955     0.29707E-02 
  66879.4577     0.30234E-02 
  66911.7198     0.30769E-02 
  66943.9820     0.31310E-02 
  66976.2442     0.31859E-02 
  67008.5063     0.32415E-02 
  67040.7685     0.32979E-02 
  67073.0306     0.33550E-02 
  67105.2928     0.34128E-02 
  67137.5550     0.34714E-02 
  67169.8171     0.35308E-02 
  67202.0793     0.35909E-02 
  67234.3414     0.36518E-02 
  67266.6036     0.37135E-02 
  67298.8658     0.37760E-02 
  67331.1279     0.38393E-02 
  67363.3901     0.39034E-02 
  67395.6522     0.39682E-02 
  67427.9144     0.40339E-02 
  67460.1766     0.41005E-02 
  67492.4387     0.41678E-02 
  67524.7009     0.42360E-02 
  67556.9630     0.43051E-02 
  67589.2252     0.43750E-02 
  67621.4874     0.44457E-02 
  67653.7495     0.45173E-02 
  67686.0117     0.45898E-02 
  67718.2738     0.46632E-02 
  67750.5360     0.47374E-02 
  67782.7982     0.48126E-02 
  67815.0603     0.48886E-02 
  67847.3225     0.49656E-02 
  67879.5846     0.50434E-02 
  67911.8468     0.51222E-02 
  67944.1090     0.52019E-02 
  67976.3711     0.52826E-02 
  68008.6333     0.53642E-02 
  68040.8954     0.54467E-02 
  68073.1576     0.55302E-02 
  68105.4198     0.56147E-02 
  68137.6819     0.57001E-02 
  68169.9441     0.57865E-02 
  68202.2062     0.58739E-02 
  68234.4684     0.59623E-02 
  68266.7306     0.60516E-02 
  68298.9927     0.61420E-02 
  68331.2549     0.62334E-02 
  68363.5170     0.63258E-02 
  68395.7792     0.64193E-02 
  68428.0414     0.65138E-02 
  68460.3035     0.66093E-02 
  68492.5657     0.67058E-02 
  68524.8278     0.68035E-02 
  68557.0900     0.69022E-02 
  68589.3522     0.70019E-02 
  68621.6143     0.71027E-02 
  68653.8765     0.72047E-02 
  68686.1386     0.73077E-02 
  68718.4008     0.74118E-02 
  68750.6630     0.75170E-02 
  68782.9251     0.76233E-02 
  68815.1873     0.77307E-02 
  68847.4494     0.78393E-02 
  68879.7116     0.79490E-02 
  68911.9738     0.80598E-02 
  68944.2359     0.81718E-02 
  68976.4981     0.82849E-02 
  69008.7602     0.83992E-02 
  69041.0224     0.85147E-02 
  69073.2846     0.86313E-02 
  69105.5467     0.87491E-02 
  69137.8089     0.88681E-02 
  69170.0710     0.89883E-02 
  69202.3332     0.91097E-02 
  69234.5954     0.92323E-02 
  69266.8575     0.93561E-02 
  69299.1197     0.94811E-02 
  69331.3818     0.96074E-02 
  69363.6440     0.97349E-02 
  69395.9062     0.98636E-02 
  69428.1683     0.99936E-02 
  69460.4305     0.10125E-01 
  69492.6926     0.10257E-01 
  69524.9548     0.10391E-01 
  69557.2170     0.10526E-01 
  69589.4791     0.10662E-01 
  69621.7413     0.10800E-01 
  69654.0034     0.10939E-01 
  69686.2656     0.11079E-01 
  69718.5278     0.11221E-01 
  69750.7899     0.11363E-01 
  69783.0521     0.11508E-01 
  69815.3142     0.11653E-01 
  69847.5764     0.11800E-01 
  69879.8386     0.11948E-01 
  69912.1007     0.12097E-01 
  69944.3629     0.12248E-01 
  69976.6250     0.12400E-01 
  70008.8872     0.12554E-01 
  70041.1494     0.12709E-01 
  70073.4115     0.12865E-01 
  70105.6737     0.13022E-01 
  70137.9358     0.13181E-01 
  70170.1980     0.13342E-01 
  70202.4602     0.13503E-01 
  70234.7223     0.13667E-01 
  70266.9845     0.13831E-01 
  70299.2466     0.13997E-01 
  70331.5088     0.14164E-01 
  70363.7710     0.14333E-01 
  70396.0331     0.14503E-01 
  70428.2953     0.14675E-01 
  70460.5574     0.14848E-01 
  70492.8196     0.15023E-01 
  70525.0818     0.15198E-01 
  70557.3439     0.15376E-01 
  70589.6061     0.15555E-01 
  70621.8682     0.15735E-01 
  70654.1304     0.15917E-01 
  70686.3926     0.16100E-01 
  70718.6547     0.16284E-01 
  70750.9169     0.16471E-01 
  70783.1790     0.16658E-01 
  70815.4412     0.16847E-01 
  70847.7034     0.17038E-01 
  70879.9655     0.17230E-01 
  70912.2277     0.17423E-01 
  70944.4898     0.17618E-01 
  70976.7520     0.17815E-01 
  71009.0142     0.18013E-01 
  71041.2763     0.18212E-01 
  71073.5385     0.18413E-01 
  71105.8006     0.18616E-01 
  71138.0628     0.18820E-01 
  71170.3250     0.19026E-01 
  71202.5871     0.19233E-01 
  71234.8493     0.19441E-01 
  71267.1114     0.19651E-01 
  71299.3736     0.19863E-01 
  71331.6358     0.20076E-01 
  71363.8979     0.20291E-01 
  71396.1601     0.20507E-01 
  71428.4222     0.20725E-01 
  71460.6844     0.20944E-01 
  71492.9466     0.21165E-01 
  71525.2087     0.21387E-01 
  71557.4709     0.21611E-01 
  71589.7330     0.21837E-01 
  71621.9952     0.22064E-01 
  71654.2574     0.22292E-01 
  71686.5195     0.22522E-01 
  71718.7817     0.22754E-01 
  71751.0438     0.22987E-01 
  71783.3060     0.23222E-01 
  71815.5682     0.23458E-01 
  71847.8303     0.23696E-01 
  71880.0925     0.23936E-01 
  71912.3546     0.24176E-01 
  71944.6168     0.24419E-01 
  71976.8790     0.24663E-01 
  72009.1411     0.24909E-01 
  72041.4033     0.25156E-01 
  72073.6654     0.25405E-01 
  72105.9276     0.25655E-01 
  72138.1898     0.25907E-01 
  72170.4519     0.26160E-01 
  72202.7141     0.26415E-01 
  72234.9762     0.26671E-01 
  72267.2384     0.26929E-01 
  72299.5006     0.27189E-01 
  72331.7627     0.27450E-01 
  72364.0249     0.27713E-01 
  72396.2870     0.27977E-01 
  72428.5492     0.28242E-01 
  72460.8114     0.28510E-01 
  72493.0735     0.28778E-01 
  72525.3357     0.29049E-01 
  72557.5978     0.29321E-01 
  72589.8600     0.29594E-01 
