  32262.1600     0.80429E-02 
  32294.4222     0.81255E-02 
  32326.6843     0.82086E-02 
  32358.9465     0.82923E-02 
  32391.2086     0.83766E-02 
  32423.4708     0.84614E-02 
  32455.7330     0.85468E-02 
  32487.9951     0.86327E-02 
  32520.2573     0.87192E-02 
  32552.5194     0.88062E-02 
  32584.7816     0.88938E-02 
  32617.0438     0.89820E-02 
  32649.3059     0.90707E-02 
  32681.5681     0.91600E-02 
  32713.8302     0.92498E-02 
  32746.0924     0.93402E-02 
  32778.3546     0.94312E-02 
  32810.6167     0.95227E-02 
  32842.8789     0.96147E-02 
  32875.1410     0.97073E-02 
  32907.4032     0.98005E-02 
  32939.6654     0.98942E-02 
  32971.9275     0.99885E-02 
  33004.1897     0.10083E-01 
  33036.4518     0.10179E-01 
  33068.7140     0.10275E-01 
  33100.9762     0.10371E-01 
  33133.2383     0.10468E-01 
  33165.5005     0.10566E-01 
  33197.7626     0.10664E-01 
  33230.0248     0.10762E-01 
  33262.2870     0.10862E-01 
  33294.5491     0.10961E-01 
  33326.8113     0.11062E-01 
  33359.0734     0.11162E-01 
  33391.3356     0.11264E-01 
  33423.5978     0.11366E-01 
  33455.8599     0.11468E-01 
  33488.1221     0.11571E-01 
  33520.3842     0.11674E-01 
  33552.6464     0.11778E-01 
  33584.9086     0.11883E-01 
  33617.1707     0.11988E-01 
  33649.4329     0.12094E-01 
  33681.6950     0.12200E-01 
  33713.9572     0.12306E-01 
  33746.2194     0.12413E-01 
  33778.4815     0.12521E-01 
  33810.7437     0.12629E-01 
  33843.0058     0.12738E-01 
  33875.2680     0.12847E-01 
  33907.5302     0.12957E-01 
  33939.7923     0.13067E-01 
  33972.0545     0.13178E-01 
  34004.3166     0.13289E-01 
  34036.5788     0.13401E-01 
  34068.8410     0.13513E-01 
  34101.1031     0.13625E-01 
  34133.3653     0.13739E-01 
  34165.6274     0.13852E-01 
  34197.8896     0.13966E-01 
  34230.1518     0.14081E-01 
  34262.4139     0.14196E-01 
  34294.6761     0.14312E-01 
  34326.9382     0.14428E-01 
  34359.2004     0.14544E-01 
  34391.4626     0.14661E-01 
  34423.7247     0.14779E-01 
  34455.9869     0.14896E-01 
  34488.2490     0.15015E-01 
  34520.5112     0.15134E-01 
  34552.7734     0.15253E-01 
  34585.0355     0.15372E-01 
  34617.2977     0.15492E-01 
  34649.5598     0.15613E-01 
  34681.8220     0.15734E-01 
  34714.0842     0.15855E-01 
  34746.3463     0.15977E-01 
  34778.6085     0.16099E-01 
  34810.8706     0.16222E-01 
  34843.1328     0.16345E-01 
  34875.3950     0.16469E-01 
  34907.6571     0.16592E-01 
  34939.9193     0.16717E-01 
  34972.1814     0.16841E-01 
  35004.4436     0.16966E-01 
  35036.7058     0.17092E-01 
  35068.9679     0.17218E-01 
  35101.2301     0.17344E-01 
  35133.4922     0.17470E-01 
  35165.7544     0.17597E-01 
  35198.0166     0.17725E-01 
  35230.2787     0.17852E-01 
  35262.5409     0.17980E-01 
  35294.8030     0.18109E-01 
  35327.0652     0.18237E-01 
  35359.3274     0.18366E-01 
  35391.5895     0.18496E-01 
  35423.8517     0.18625E-01 
  35456.1138     0.18755E-01 
  35488.3760     0.18886E-01 
  35520.6382     0.19016E-01 
  35552.9003     0.19147E-01 
  35585.1625     0.19278E-01 
  35617.4246     0.19410E-01 
  35649.6868     0.19542E-01 
  35681.9490     0.19674E-01 
  35714.2111     0.19806E-01 
  35746.4733     0.19939E-01 
  35778.7354     0.20072E-01 
  35810.9976     0.20205E-01 
  35843.2598     0.20339E-01 
  35875.5219     0.20472E-01 
  35907.7841     0.20606E-01 
  35940.0462     0.20740E-01 
  35972.3084     0.20875E-01 
  36004.5706     0.21010E-01 
  36036.8327     0.21144E-01 
  36069.0949     0.21279E-01 
  36101.3570     0.21415E-01 
  36133.6192     0.21550E-01 
  36165.8814     0.21686E-01 
  36198.1435     0.21822E-01 
  36230.4057     0.21958E-01 
  36262.6678     0.22094E-01 
  36294.9300     0.22231E-01 
  36327.1922     0.22367E-01 
  36359.4543     0.22504E-01 
  36391.7165     0.22641E-01 
  36423.9786     0.22778E-01 
  36456.2408     0.22915E-01 
  36488.5030     0.23052E-01 
  36520.7651     0.23190E-01 
  36553.0273     0.23327E-01 
  36585.2894     0.23465E-01 
  36617.5516     0.23603E-01 
  36649.8138     0.23741E-01 
  36682.0759     0.23879E-01 
  36714.3381     0.24017E-01 
  36746.6002     0.24155E-01 
  36778.8624     0.24293E-01 
  36811.1246     0.24431E-01 
  36843.3867     0.24570E-01 
  36875.6489     0.24708E-01 
  36907.9110     0.24846E-01 
  36940.1732     0.24985E-01 
  36972.4354     0.25123E-01 
  37004.6975     0.25262E-01 
  37036.9597     0.25400E-01 
  37069.2218     0.25539E-01 
  37101.4840     0.25677E-01 
  37133.7462     0.25816E-01 
  37166.0083     0.25954E-01 
  37198.2705     0.26093E-01 
  37230.5326     0.26231E-01 
  37262.7948     0.26370E-01 
  37295.0570     0.26508E-01 
  37327.3191     0.26646E-01 
  37359.5813     0.26784E-01 
  37391.8434     0.26923E-01 
  37424.1056     0.27061E-01 
  37456.3678     0.27199E-01 
  37488.6299     0.27337E-01 
  37520.8921     0.27475E-01 
  37553.1542     0.27612E-01 
  37585.4164     0.27750E-01 
  37617.6786     0.27887E-01 
  37649.9407     0.28025E-01 
  37682.2029     0.28162E-01 
  37714.4650     0.28299E-01 
  37746.7272     0.28436E-01 
  37778.9894     0.28573E-01 
  37811.2515     0.28709E-01 
  37843.5137     0.28846E-01 
  37875.7758     0.28982E-01 
  37908.0380     0.29118E-01 
  37940.3002     0.29254E-01 
  37972.5623     0.29390E-01 
  38004.8245     0.29525E-01 
  38037.0866     0.29661E-01 
  38069.3488     0.29796E-01 
  38101.6110     0.29930E-01 
  38133.8731     0.30065E-01 
  38166.1353     0.30199E-01 
  38198.3974     0.30333E-01 
  38230.6596     0.30467E-01 
  38262.9218     0.30601E-01 
  38295.1839     0.30734E-01 
  38327.4461     0.30867E-01 
  38359.7082     0.31000E-01 
  38391.9704     0.31132E-01 
  38424.2326     0.31264E-01 
  38456.4947     0.31396E-01 
  38488.7569     0.31527E-01 
  38521.0190     0.31658E-01 
  38553.2812     0.31789E-01 
  38585.5434     0.31919E-01 
  38617.8055     0.32049E-01 
  38650.0677     0.32179E-01 
  38682.3298     0.32308E-01 
  38714.5920     0.32437E-01 
  38746.8542     0.32565E-01 
  38779.1163     0.32694E-01 
  38811.3785     0.32821E-01 
  38843.6406     0.32949E-01 
  38875.9028     0.33075E-01 
  38908.1650     0.33202E-01 
  38940.4271     0.33328E-01 
  38972.6893     0.33454E-01 
  39004.9514     0.33579E-01 
  39037.2136     0.33703E-01 
  39069.4758     0.33828E-01 
  39101.7379     0.33951E-01 
  39134.0001     0.34075E-01 
  39166.2622     0.34197E-01 
  39198.5244     0.34320E-01 
  39230.7866     0.34441E-01 
  39263.0487     0.34563E-01 
  39295.3109     0.34684E-01 
  39327.5730     0.34804E-01 
  39359.8352     0.34924E-01 
  39392.0974     0.35043E-01 
  39424.3595     0.35161E-01 
  39456.6217     0.35279E-01 
  39488.8838     0.35397E-01 
  39521.1460     0.35514E-01 
  39553.4082     0.35630E-01 
  39585.6703     0.35746E-01 
  39617.9325     0.35861E-01 
  39650.1946     0.35976E-01 
  39682.4568     0.36090E-01 
  39714.7190     0.36204E-01 
  39746.9811     0.36316E-01 
  39779.2433     0.36429E-01 
  39811.5054     0.36540E-01 
  39843.7676     0.36651E-01 
  39876.0298     0.36762E-01 
  39908.2919     0.36871E-01 
  39940.5541     0.36980E-01 
  39972.8162     0.37089E-01 
  40005.0784     0.37196E-01 
  40037.3406     0.37303E-01 
  40069.6027     0.37410E-01 
  40101.8649     0.37515E-01 
  40134.1270     0.37620E-01 
  40166.3892     0.37725E-01 
  40198.6514     0.37828E-01 
  40230.9135     0.37931E-01 
  40263.1757     0.38033E-01 
  40295.4378     0.38135E-01 
  40327.7000     0.38235E-01 
  40359.9622     0.38335E-01 
  40392.2243     0.38434E-01 
  40424.4865     0.38533E-01 
  40456.7486     0.38631E-01 
  40489.0108     0.38728E-01 
  40521.2730     0.38824E-01 
  40553.5351     0.38919E-01 
  40585.7973     0.39014E-01 
  40618.0594     0.39108E-01 
  40650.3216     0.39201E-01 
  40682.5838     0.39293E-01 
  40714.8459     0.39385E-01 
  40747.1081     0.39475E-01 
  40779.3702     0.39565E-01 
  40811.6324     0.39654E-01 
  40843.8946     0.39743E-01 
  40876.1567     0.39830E-01 
  40908.4189     0.39917E-01 
  40940.6810     0.40003E-01 
  40972.9432     0.40087E-01 
  41005.2054     0.40172E-01 
  41037.4675     0.40255E-01 
  41069.7297     0.40337E-01 
  41101.9918     0.40419E-01 
  41134.2540     0.40499E-01 
  41166.5162     0.40579E-01 
  41198.7783     0.40658E-01 
  41231.0405     0.40736E-01 
  41263.3026     0.40813E-01 
  41295.5648     0.40890E-01 
  41327.8270     0.40965E-01 
  41360.0891     0.41040E-01 
  41392.3513     0.41113E-01 
  41424.6134     0.41186E-01 
  41456.8756     0.41258E-01 
  41489.1378     0.41329E-01 
  41521.3999     0.41399E-01 
  41553.6621     0.41468E-01 
  41585.9242     0.41536E-01 
  41618.1864     0.41603E-01 
  41650.4486     0.41670E-01 
  41682.7107     0.41735E-01 
  41714.9729     0.41799E-01 
  41747.2350     0.41863E-01 
  41779.4972     0.41925E-01 
  41811.7594     0.41987E-01 
  41844.0215     0.42048E-01 
  41876.2837     0.42107E-01 
  41908.5458     0.42166E-01 
  41940.8080     0.42224E-01 
  41973.0702     0.42281E-01 
  42005.3323     0.42337E-01 
  42037.5945     0.42392E-01 
  42069.8566     0.42446E-01 
  42102.1188     0.42499E-01 
  42134.3810     0.42551E-01 
  42166.6431     0.42602E-01 
  42198.9053     0.42652E-01 
  42231.1674     0.42701E-01 
  42263.4296     0.42749E-01 
  42295.6918     0.42796E-01 
  42327.9539     0.42842E-01 
  42360.2161     0.42887E-01 
  42392.4782     0.42931E-01 
  42424.7404     0.42974E-01 
  42457.0026     0.43016E-01 
  42489.2647     0.43058E-01 
  42521.5269     0.43098E-01 
  42553.7890     0.43137E-01 
  42586.0512     0.43175E-01 
  42618.3134     0.43212E-01 
  42650.5755     0.43248E-01 
  42682.8377     0.43283E-01 
  42715.0998     0.43317E-01 
  42747.3620     0.43350E-01 
  42779.6242     0.43382E-01 
  42811.8863     0.43414E-01 
  42844.1485     0.43444E-01 
  42876.4106     0.43473E-01 
  42908.6728     0.43501E-01 
  42940.9350     0.43528E-01 
  42973.1971     0.43554E-01 
  43005.4593     0.43579E-01 
  43037.7214     0.43602E-01 
  43069.9836     0.43625E-01 
  43102.2458     0.43647E-01 
  43134.5079     0.43668E-01 
  43166.7701     0.43688E-01 
  43199.0322     0.43707E-01 
  43231.2944     0.43725E-01 
  43263.5566     0.43741E-01 
  43295.8187     0.43757E-01 
  43328.0809     0.43772E-01 
  43360.3430     0.43786E-01 
  43392.6052     0.43798E-01 
  43424.8674     0.43810E-01 
  43457.1295     0.43821E-01 
  43489.3917     0.43830E-01 
  43521.6538     0.43839E-01 
  43553.9160     0.43847E-01 
  43586.1782     0.43853E-01 
  43618.4403     0.43859E-01 
  43650.7025     0.43863E-01 
  43682.9646     0.43867E-01 
  43715.2268     0.43870E-01 
  43747.4890     0.43871E-01 
  43779.7511     0.43872E-01 
  43812.0133     0.43871E-01 
  43844.2754     0.43870E-01 
  43876.5376     0.43867E-01 
  43908.7998     0.43863E-01 
  43941.0619     0.43859E-01 
  43973.3241     0.43853E-01 
  44005.5862     0.43847E-01 
  44037.8484     0.43839E-01 
  44070.1106     0.43831E-01 
  44102.3727     0.43821E-01 
  44134.6349     0.43811E-01 
  44166.8970     0.43799E-01 
  44199.1592     0.43786E-01 
  44231.4214     0.43773E-01 
  44263.6835     0.43758E-01 
  44295.9457     0.43743E-01 
  44328.2078     0.43726E-01 
  44360.4700     0.43709E-01 
  44392.7322     0.43690E-01 
  44424.9943     0.43671E-01 
  44457.2565     0.43651E-01 
  44489.5186     0.43629E-01 
  44521.7808     0.43607E-01 
  44554.0430     0.43583E-01 
  44586.3051     0.43559E-01 
  44618.5673     0.43534E-01 
  44650.8294     0.43508E-01 
  44683.0916     0.43480E-01 
  44715.3538     0.43452E-01 
  44747.6159     0.43423E-01 
  44779.8781     0.43393E-01 
  44812.1402     0.43362E-01 
  44844.4024     0.43330E-01 
  44876.6646     0.43297E-01 
  44908.9267     0.43263E-01 
  44941.1889     0.43229E-01 
  44973.4510     0.43193E-01 
  45005.7132     0.43156E-01 
  45037.9754     0.43119E-01 
  45070.2375     0.43080E-01 
  45102.4997     0.43041E-01 
  45134.7618     0.43000E-01 
  45167.0240     0.42959E-01 
  45199.2862     0.42917E-01 
  45231.5483     0.42874E-01 
  45263.8105     0.42830E-01 
  45296.0726     0.42785E-01 
  45328.3348     0.42740E-01 
  45360.5970     0.42693E-01 
  45392.8591     0.42645E-01 
  45425.1213     0.42597E-01 
  45457.3834     0.42548E-01 
  45489.6456     0.42498E-01 
  45521.9078     0.42447E-01 
  45554.1699     0.42395E-01 
  45586.4321     0.42342E-01 
  45618.6942     0.42288E-01 
  45650.9564     0.42234E-01 
  45683.2186     0.42179E-01 
  45715.4807     0.42123E-01 
  45747.7429     0.42066E-01 
  45780.0050     0.42008E-01 
  45812.2672     0.41949E-01 
  45844.5294     0.41890E-01 
  45876.7915     0.41829E-01 
  45909.0537     0.41768E-01 
  45941.3158     0.41706E-01 
  45973.5780     0.41644E-01 
  46005.8402     0.41580E-01 
  46038.1023     0.41516E-01 
  46070.3645     0.41451E-01 
  46102.6266     0.41385E-01 
  46134.8888     0.41318E-01 
  46167.1510     0.41251E-01 
  46199.4131     0.41182E-01 
  46231.6753     0.41113E-01 
  46263.9374     0.41044E-01 
  46296.1996     0.40973E-01 
  46328.4618     0.40902E-01 
  46360.7239     0.40830E-01 
  46392.9861     0.40757E-01 
  46425.2482     0.40683E-01 
  46457.5104     0.40609E-01 
  46489.7726     0.40534E-01 
  46522.0347     0.40458E-01 
  46554.2969     0.40382E-01 
  46586.5590     0.40305E-01 
  46618.8212     0.40227E-01 
  46651.0834     0.40148E-01 
  46683.3455     0.40069E-01 
  46715.6077     0.39989E-01 
  46747.8698     0.39909E-01 
  46780.1320     0.39827E-01 
  46812.3942     0.39745E-01 
  46844.6563     0.39663E-01 
  46876.9185     0.39579E-01 
  46909.1806     0.39495E-01 
  46941.4428     0.39411E-01 
  46973.7050     0.39326E-01 
  47005.9671     0.39240E-01 
  47038.2293     0.39153E-01 
  47070.4914     0.39066E-01 
  47102.7536     0.38978E-01 
  47135.0158     0.38890E-01 
  47167.2779     0.38801E-01 
  47199.5401     0.38711E-01 
  47231.8022     0.38621E-01 
  47264.0644     0.38530E-01 
  47296.3266     0.38438E-01 
  47328.5887     0.38346E-01 
  47360.8509     0.38254E-01 
  47393.1130     0.38161E-01 
  47425.3752     0.38067E-01 
  47457.6374     0.37973E-01 
  47489.8995     0.37878E-01 
  47522.1617     0.37782E-01 
  47554.4238     0.37686E-01 
  47586.6860     0.37590E-01 
  47618.9482     0.37493E-01 
  47651.2103     0.37395E-01 
  47683.4725     0.37297E-01 
  47715.7346     0.37199E-01 
  47747.9968     0.37099E-01 
  47780.2590     0.37000E-01 
  47812.5211     0.36900E-01 
  47844.7833     0.36799E-01 
  47877.0454     0.36698E-01 
  47909.3076     0.36597E-01 
  47941.5698     0.36494E-01 
  47973.8319     0.36392E-01 
  48006.0941     0.36289E-01 
  48038.3562     0.36186E-01 
  48070.6184     0.36082E-01 
  48102.8806     0.35977E-01 
  48135.1427     0.35873E-01 
  48167.4049     0.35767E-01 
  48199.6670     0.35662E-01 
  48231.9292     0.35556E-01 
  48264.1914     0.35449E-01 
  48296.4535     0.35342E-01 
  48328.7157     0.35235E-01 
  48360.9778     0.35127E-01 
  48393.2400     0.35019E-01 
  48425.5022     0.34911E-01 
  48457.7643     0.34802E-01 
  48490.0265     0.34693E-01 
  48522.2886     0.34583E-01 
  48554.5508     0.34473E-01 
  48586.8130     0.34363E-01 
  48619.0751     0.34253E-01 
  48651.3373     0.34142E-01 
  48683.5994     0.34030E-01 
  48715.8616     0.33919E-01 
  48748.1238     0.33807E-01 
  48780.3859     0.33694E-01 
  48812.6481     0.33582E-01 
  48844.9102     0.33469E-01 
  48877.1724     0.33355E-01 
  48909.4346     0.33242E-01 
  48941.6967     0.33128E-01 
  48973.9589     0.33014E-01 
  49006.2210     0.32900E-01 
  49038.4832     0.32785E-01 
  49070.7454     0.32670E-01 
  49103.0075     0.32555E-01 
  49135.2697     0.32439E-01 
  49167.5318     0.32324E-01 
  49199.7940     0.32208E-01 
  49232.0562     0.32091E-01 
  49264.3183     0.31975E-01 
  49296.5805     0.31858E-01 
  49328.8426     0.31741E-01 
  49361.1048     0.31624E-01 
  49393.3670     0.31507E-01 
  49425.6291     0.31389E-01 
  49457.8913     0.31272E-01 
  49490.1534     0.31154E-01 
  49522.4156     0.31036E-01 
  49554.6778     0.30917E-01 
  49586.9399     0.30799E-01 
  49619.2021     0.30680E-01 
  49651.4642     0.30561E-01 
  49683.7264     0.30442E-01 
  49715.9886     0.30323E-01 
  49748.2507     0.30204E-01 
  49780.5129     0.30084E-01 
  49812.7750     0.29965E-01 
  49845.0372     0.29845E-01 
  49877.2994     0.29725E-01 
  49909.5615     0.29605E-01 
  49941.8237     0.29485E-01 
  49974.0858     0.29365E-01 
  50006.3480     0.29245E-01 
  50038.6102     0.29124E-01 
  50070.8723     0.29004E-01 
  50103.1345     0.28883E-01 
  50135.3966     0.28762E-01 
  50167.6588     0.28641E-01 
  50199.9210     0.28520E-01 
  50232.1831     0.28399E-01 
  50264.4453     0.28278E-01 
  50296.7074     0.28157E-01 
  50328.9696     0.28036E-01 
  50361.2318     0.27915E-01 
  50393.4939     0.27794E-01 
  50425.7561     0.27672E-01 
  50458.0182     0.27551E-01 
  50490.2804     0.27430E-01 
  50522.5426     0.27308E-01 
  50554.8047     0.27187E-01 
  50587.0669     0.27065E-01 
  50619.3290     0.26944E-01 
  50651.5912     0.26822E-01 
  50683.8534     0.26701E-01 
  50716.1155     0.26579E-01 
  50748.3777     0.26458E-01 
  50780.6398     0.26336E-01 
  50812.9020     0.26215E-01 
  50845.1642     0.26093E-01 
  50877.4263     0.25972E-01 
  50909.6885     0.25850E-01 
  50941.9506     0.25729E-01 
  50974.2128     0.25607E-01 
  51006.4750     0.25486E-01 
  51038.7371     0.25365E-01 
  51070.9993     0.25244E-01 
  51103.2614     0.25122E-01 
  51135.5236     0.25001E-01 
  51167.7858     0.24880E-01 
  51200.0479     0.24759E-01 
  51232.3101     0.24638E-01 
  51264.5722     0.24517E-01 
  51296.8344     0.24396E-01 
  51329.0966     0.24276E-01 
  51361.3587     0.24155E-01 
  51393.6209     0.24034E-01 
  51425.8830     0.23914E-01 
  51458.1452     0.23794E-01 
  51490.4074     0.23673E-01 
  51522.6695     0.23553E-01 
  51554.9317     0.23433E-01 
  51587.1938     0.23313E-01 
  51619.4560     0.23193E-01 
  51651.7182     0.23074E-01 
  51683.9803     0.22954E-01 
  51716.2425     0.22835E-01 
  51748.5046     0.22715E-01 
  51780.7668     0.22596E-01 
  51813.0290     0.22477E-01 
  51845.2911     0.22358E-01 
  51877.5533     0.22239E-01 
  51909.8154     0.22121E-01 
  51942.0776     0.22002E-01 
  51974.3398     0.21884E-01 
  52006.6019     0.21766E-01 
  52038.8641     0.21648E-01 
  52071.1262     0.21530E-01 
  52103.3884     0.21412E-01 
  52135.6506     0.21295E-01 
  52167.9127     0.21178E-01 
  52200.1749     0.21061E-01 
  52232.4370     0.20944E-01 
  52264.6992     0.20827E-01 
  52296.9614     0.20710E-01 
  52329.2235     0.20594E-01 
  52361.4857     0.20478E-01 
  52393.7478     0.20362E-01 
  52426.0100     0.20246E-01 
  52458.2722     0.20130E-01 
  52490.5343     0.20015E-01 
  52522.7965     0.19900E-01 
  52555.0586     0.19785E-01 
  52587.3208     0.19670E-01 
  52619.5830     0.19556E-01 
  52651.8451     0.19441E-01 
  52684.1073     0.19327E-01 
  52716.3694     0.19213E-01 
  52748.6316     0.19100E-01 
  52780.8938     0.18986E-01 
  52813.1559     0.18873E-01 
  52845.4181     0.18760E-01 
  52877.6802     0.18648E-01 
  52909.9424     0.18535E-01 
  52942.2046     0.18423E-01 
  52974.4667     0.18311E-01 
  53006.7289     0.18199E-01 
  53038.9910     0.18088E-01 
  53071.2532     0.17977E-01 
  53103.5154     0.17866E-01 
  53135.7775     0.17755E-01 
  53168.0397     0.17645E-01 
  53200.3018     0.17535E-01 
  53232.5640     0.17425E-01 
  53264.8262     0.17315E-01 
  53297.0883     0.17206E-01 
  53329.3505     0.17097E-01 
  53361.6126     0.16988E-01 
  53393.8748     0.16880E-01 
  53426.1370     0.16771E-01 
  53458.3991     0.16664E-01 
  53490.6613     0.16556E-01 
  53522.9234     0.16448E-01 
  53555.1856     0.16341E-01 
  53587.4478     0.16235E-01 
  53619.7099     0.16128E-01 
  53651.9721     0.16022E-01 
  53684.2342     0.15916E-01 
  53716.4964     0.15810E-01 
  53748.7586     0.15705E-01 
  53781.0207     0.15600E-01 
  53813.2829     0.15495E-01 
  53845.5450     0.15391E-01 
  53877.8072     0.15287E-01 
  53910.0694     0.15183E-01 
  53942.3315     0.15080E-01 
  53974.5937     0.14976E-01 
  54006.8558     0.14874E-01 
  54039.1180     0.14771E-01 
  54071.3802     0.14669E-01 
  54103.6423     0.14567E-01 
  54135.9045     0.14465E-01 
  54168.1666     0.14364E-01 
  54200.4288     0.14263E-01 
  54232.6910     0.14162E-01 
  54264.9531     0.14062E-01 
  54297.2153     0.13962E-01 
  54329.4774     0.13862E-01 
  54361.7396     0.13763E-01 
  54394.0018     0.13664E-01 
  54426.2639     0.13565E-01 
  54458.5261     0.13467E-01 
  54490.7882     0.13369E-01 
  54523.0504     0.13271E-01 
  54555.3126     0.13174E-01 
  54587.5747     0.13077E-01 
  54619.8369     0.12980E-01 
  54652.0990     0.12884E-01 
  54684.3612     0.12788E-01 
  54716.6234     0.12692E-01 
  54748.8855     0.12597E-01 
  54781.1477     0.12502E-01 
  54813.4098     0.12408E-01 
  54845.6720     0.12313E-01 
  54877.9342     0.12219E-01 
  54910.1963     0.12126E-01 
  54942.4585     0.12033E-01 
  54974.7206     0.11940E-01 
  55006.9828     0.11847E-01 
  55039.2450     0.11755E-01 
  55071.5071     0.11663E-01 
  55103.7693     0.11572E-01 
  55136.0314     0.11480E-01 
  55168.2936     0.11390E-01 
  55200.5558     0.11299E-01 
  55232.8179     0.11209E-01 
  55265.0801     0.11119E-01 
  55297.3422     0.11030E-01 
  55329.6044     0.10941E-01 
  55361.8666     0.10852E-01 
  55394.1287     0.10764E-01 
  55426.3909     0.10676E-01 
  55458.6530     0.10588E-01 
  55490.9152     0.10501E-01 
  55523.1774     0.10414E-01 
  55555.4395     0.10328E-01 
  55587.7017     0.10242E-01 
  55619.9638     0.10156E-01 
  55652.2260     0.10070E-01 
  55684.4882     0.99854E-02 
  55716.7503     0.99007E-02 
  55749.0125     0.98164E-02 
  55781.2746     0.97324E-02 
  55813.5368     0.96488E-02 
  55845.7990     0.95655E-02 
  55878.0611     0.94826E-02 
  55910.3233     0.94001E-02 
  55942.5854     0.93179E-02 
  55974.8476     0.92361E-02 
  56007.1098     0.91546E-02 
  56039.3719     0.90736E-02 
  56071.6341     0.89928E-02 
  56103.8962     0.89125E-02 
  56136.1584     0.88325E-02 
  56168.4206     0.87529E-02 
  56200.6827     0.86736E-02 
  56232.9449     0.85948E-02 
  56265.2070     0.85162E-02 
  56297.4692     0.84381E-02 
  56329.7314     0.83603E-02 
  56361.9935     0.82829E-02 
  56394.2557     0.82058E-02 
  56426.5178     0.81291E-02 
  56458.7800     0.80528E-02 
  56491.0422     0.79768E-02 
  56523.3043     0.79013E-02 
  56555.5665     0.78260E-02 
  56587.8286     0.77512E-02 
  56620.0908     0.76767E-02 
  56652.3530     0.76026E-02 
  56684.6151     0.75288E-02 
  56716.8773     0.74554E-02 
  56749.1394     0.73824E-02 
  56781.4016     0.73098E-02 
  56813.6638     0.72375E-02 
  56845.9259     0.71656E-02 
  56878.1881     0.70940E-02 
  56910.4502     0.70228E-02 
  56942.7124     0.69520E-02 
  56974.9746     0.68816E-02 
  57007.2367     0.68115E-02 
  57039.4989     0.67418E-02 
  57071.7610     0.66724E-02 
  57104.0232     0.66034E-02 
  57136.2854     0.65348E-02 
  57168.5475     0.64666E-02 
  57200.8097     0.63987E-02 
  57233.0718     0.63312E-02 
  57265.3340     0.62640E-02 
  57297.5962     0.61972E-02 
  57329.8583     0.61308E-02 
  57362.1205     0.60648E-02 
  57394.3826     0.59991E-02 
  57426.6448     0.59338E-02 
  57458.9070     0.58688E-02 
  57491.1691     0.58042E-02 
  57523.4313     0.57400E-02 
  57555.6934     0.56762E-02 
  57587.9556     0.56127E-02 
  57620.2178     0.55496E-02 
  57652.4799     0.54868E-02 
  57684.7421     0.54244E-02 
  57717.0042     0.53624E-02 
  57749.2664     0.53008E-02 
  57781.5286     0.52395E-02 
  57813.7907     0.51786E-02 
  57846.0529     0.51180E-02 
  57878.3150     0.50578E-02 
  57910.5772     0.49980E-02 
  57942.8394     0.49385E-02 
  57975.1015     0.48794E-02 
  58007.3637     0.48207E-02 
  58039.6258     0.47623E-02 
  58071.8880     0.47043E-02 
  58104.1502     0.46467E-02 
  58136.4123     0.45894E-02 
  58168.6745     0.45325E-02 
  58200.9366     0.44760E-02 
  58233.1988     0.44198E-02 
  58265.4610     0.43640E-02 
  58297.7231     0.43086E-02 
  58329.9853     0.42535E-02 
  58362.2474     0.41988E-02 
  58394.5096     0.41445E-02 
  58426.7718     0.40905E-02 
  58459.0339     0.40369E-02 
  58491.2961     0.39837E-02 
  58523.5582     0.39308E-02 
  58555.8204     0.38783E-02 
  58588.0826     0.38262E-02 
  58620.3447     0.37744E-02 
  58652.6069     0.37230E-02 
  58684.8690     0.36720E-02 
  58717.1312     0.36213E-02 
  58749.3934     0.35710E-02 
  58781.6555     0.35211E-02 
  58813.9177     0.34715E-02 
  58846.1798     0.34223E-02 
  58878.4420     0.33735E-02 
  58910.7042     0.33250E-02 
  58942.9663     0.32770E-02 
  58975.2285     0.32293E-02 
  59007.4906     0.31819E-02 
  59039.7528     0.31350E-02 
  59072.0150     0.30884E-02 
  59104.2771     0.30421E-02 
  59136.5393     0.29963E-02 
  59168.8014     0.29508E-02 
  59201.0636     0.29057E-02 
  59233.3258     0.28610E-02 
  59265.5879     0.28167E-02 
  59297.8501     0.27727E-02 
  59330.1122     0.27291E-02 
  59362.3744     0.26859E-02 
  59394.6366     0.26430E-02 
  59426.8987     0.26006E-02 
  59459.1609     0.25585E-02 
  59491.4230     0.25168E-02 
  59523.6852     0.24755E-02 
  59555.9474     0.24346E-02 
  59588.2095     0.23940E-02 
  59620.4717     0.23538E-02 
  59652.7338     0.23141E-02 
  59684.9960     0.22747E-02 
  59717.2582     0.22357E-02 
  59749.5203     0.21971E-02 
  59781.7825     0.21588E-02 
  59814.0446     0.21210E-02 
  59846.3068     0.20836E-02 
  59878.5690     0.20465E-02 
  59910.8311     0.20099E-02 
  59943.0933     0.19736E-02 
  59975.3554     0.19377E-02 
  60007.6176     0.19023E-02 
  60039.8798     0.18672E-02 
  60072.1419     0.18326E-02 
  60104.4041     0.17983E-02 
  60136.6662     0.17645E-02 
  60168.9284     0.17310E-02 
  60201.1906     0.16980E-02 
  60233.4527     0.16654E-02 
  60265.7149     0.16331E-02 
  60297.9770     0.16014E-02 
  60330.2392     0.15700E-02 
  60362.5014     0.15390E-02 
  60394.7635     0.15085E-02 
  60427.0257     0.14783E-02 
  60459.2878     0.14486E-02 
  60491.5500     0.14194E-02 
  60523.8122     0.13905E-02 
  60556.0743     0.13621E-02 
  60588.3365     0.13341E-02 
  60620.5986     0.13066E-02 
  60652.8608     0.12795E-02 
  60685.1230     0.12528E-02 
  60717.3851     0.12266E-02 
  60749.6473     0.12008E-02 
  60781.9094     0.11755E-02 
  60814.1716     0.11506E-02 
  60846.4338     0.11261E-02 
  60878.6959     0.11022E-02 
  60910.9581     0.10787E-02 
  60943.2202     0.10556E-02 
  60975.4824     0.10330E-02 
  61007.7446     0.10109E-02 
  61040.0067     0.98924E-03 
  61072.2689     0.96807E-03 
  61104.5310     0.94738E-03 
  61136.7932     0.92716E-03 
  61169.0554     0.90743E-03 
  61201.3175     0.88819E-03 
  61233.5797     0.86944E-03 
  61265.8418     0.85119E-03 
  61298.1040     0.83344E-03 
  61330.3662     0.81619E-03 
  61362.6283     0.79945E-03 
  61394.8905     0.78322E-03 
  61427.1526     0.76750E-03 
  61459.4148     0.75231E-03 
  61491.6770     0.73764E-03 
  61523.9391     0.72350E-03 
  61556.2013     0.70989E-03 
  61588.4634     0.69681E-03 
  61620.7256     0.68428E-03 
  61652.9878     0.67230E-03 
  61685.2499     0.66087E-03 
  61717.5121     0.64999E-03 
  61749.7742     0.63968E-03 
  61782.0364     0.62993E-03 
  61814.2986     0.62076E-03 
  61846.5607     0.61216E-03 
  61878.8229     0.60414E-03 
  61911.0850     0.59671E-03 
  61943.3472     0.58988E-03 
  61975.6094     0.58364E-03 
  62007.8715     0.57801E-03 
  62040.1337     0.57299E-03 
  62072.3958     0.56859E-03 
  62104.6580     0.56480E-03 
  62136.9202     0.56165E-03 
  62169.1823     0.55914E-03 
  62201.4445     0.55726E-03 
  62233.7066     0.55603E-03 
  62265.9688     0.55546E-03 
  62298.2310     0.55555E-03 
  62330.4931     0.55630E-03 
  62362.7553     0.55774E-03 
  62395.0174     0.55985E-03 
  62427.2796     0.56266E-03 
  62459.5418     0.56616E-03 
  62491.8039     0.57036E-03 
  62524.0661     0.57528E-03 
  62556.3282     0.58092E-03 
  62588.5904     0.58728E-03 
  62620.8526     0.59438E-03 
  62653.1147     0.60223E-03 
  62685.3769     0.61082E-03 
  62717.6390     0.62018E-03 
  62749.9012     0.63030E-03 
  62782.1634     0.64120E-03 
  62814.4255     0.65289E-03 
  62846.6877     0.66537E-03 
  62878.9498     0.67865E-03 
  62911.2120     0.69275E-03 
  62943.4742     0.70766E-03 
  62975.7363     0.72341E-03 
  63007.9985     0.74000E-03 
  63040.2606     0.75745E-03 
  63072.5228     0.77575E-03 
  63104.7850     0.79492E-03 
  63137.0471     0.81497E-03 
  63169.3093     0.83591E-03 
  63201.5714     0.85776E-03 
  63233.8336     0.88051E-03 
  63266.0958     0.90419E-03 
  63298.3579     0.92880E-03 
  63330.6201     0.95436E-03 
  63362.8822     0.98087E-03 
  63395.1444     0.10083E-02 
  63427.4066     0.10368E-02 
  63459.6687     0.10662E-02 
  63491.9309     0.10967E-02 
  63524.1930     0.11282E-02 
  63556.4552     0.11606E-02 
  63588.7174     0.11942E-02 
  63620.9795     0.12287E-02 
  63653.2417     0.12644E-02 
  63685.5038     0.13011E-02 
  63717.7660     0.13389E-02 
  63750.0282     0.13778E-02 
  63782.2903     0.14178E-02 
  63814.5525     0.14590E-02 
  63846.8146     0.15013E-02 
  63879.0768     0.15447E-02 
  63911.3390     0.15893E-02 
  63943.6011     0.16351E-02 
  63975.8633     0.16821E-02 
  64008.1254     0.17303E-02 
  64040.3876     0.17798E-02 
  64072.6498     0.18305E-02 
  64104.9119     0.18824E-02 
  64137.1741     0.19356E-02 
  64169.4362     0.19901E-02 
  64201.6984     0.20459E-02 
  64233.9606     0.21030E-02 
  64266.2227     0.21615E-02 
  64298.4849     0.22213E-02 
  64330.7470     0.22825E-02 
  64363.0092     0.23451E-02 
  64395.2714     0.24090E-02 
  64427.5335     0.24744E-02 
  64459.7957     0.25413E-02 
  64492.0578     0.26095E-02 
  64524.3200     0.26793E-02 
  64556.5822     0.27505E-02 
  64588.8443     0.28233E-02 
  64621.1065     0.28975E-02 
  64653.3686     0.29733E-02 
  64685.6308     0.30507E-02 
  64717.8930     0.31297E-02 
  64750.1551     0.32102E-02 
  64782.4173     0.32924E-02 
  64814.6794     0.33762E-02 
  64846.9416     0.34617E-02 
  64879.2038     0.35488E-02 
  64911.4659     0.36377E-02 
  64943.7281     0.37282E-02 
  64975.9902     0.38205E-02 
  65008.2524     0.39146E-02 
  65040.5146     0.40104E-02 
  65072.7767     0.41080E-02 
  65105.0389     0.42075E-02 
  65137.3010     0.43088E-02 
  65169.5632     0.44120E-02 
  65201.8254     0.45170E-02 
  65234.0875     0.46240E-02 
  65266.3497     0.47328E-02 
  65298.6118     0.48437E-02 
  65330.8740     0.49565E-02 
  65363.1362     0.50713E-02 
  65395.3983     0.51882E-02 
  65427.6605     0.53070E-02 
  65459.9226     0.54280E-02 
  65492.1848     0.55510E-02 
  65524.4470     0.56762E-02 
  65556.7091     0.58035E-02 
  65588.9713     0.59330E-02 
  65621.2334     0.60646E-02 
  65653.4956     0.61985E-02 
  65685.7578     0.63346E-02 
  65718.0199     0.64730E-02 
  65750.2821     0.66137E-02 
  65782.5442     0.67567E-02 
  65814.8064     0.69020E-02 
  65847.0686     0.70497E-02 
  65879.3307     0.71998E-02 
  65911.5929     0.73523E-02 
  65943.8550     0.75073E-02 
  65976.1172     0.76647E-02 
  66008.3794     0.78247E-02 
  66040.6415     0.79871E-02 
  66072.9037     0.81522E-02 
  66105.1658     0.83198E-02 
  66137.4280     0.84900E-02 
  66169.6902     0.86629E-02 
  66201.9523     0.88385E-02 
  66234.2145     0.90167E-02 
  66266.4766     0.91977E-02 
  66298.7388     0.93814E-02 
  66331.0010     0.95680E-02 
  66363.2631     0.97573E-02 
  66395.5253     0.99495E-02 
  66427.7874     0.10145E-01 
  66460.0496     0.10343E-01 
  66492.3118     0.10543E-01 
  66524.5739     0.10747E-01 
  66556.8361     0.10954E-01 
  66589.0982     0.11164E-01 
  66621.3604     0.11377E-01 
  66653.6226     0.11593E-01 
  66685.8847     0.11812E-01 
  66718.1469     0.12035E-01 
  66750.4090     0.12260E-01 
  66782.6712     0.12489E-01 
  66814.9334     0.12721E-01 
  66847.1955     0.12956E-01 
  66879.4577     0.13195E-01 
  66911.7198     0.13437E-01 
  66943.9820     0.13682E-01 
  66976.2442     0.13931E-01 
  67008.5063     0.14183E-01 
  67040.7685     0.14439E-01 
  67073.0306     0.14698E-01 
  67105.2928     0.14961E-01 
  67137.5550     0.15228E-01 
  67169.8171     0.15498E-01 
  67202.0793     0.15771E-01 
  67234.3414     0.16049E-01 
  67266.6036     0.16330E-01 
  67298.8658     0.16615E-01 
  67331.1279     0.16904E-01 
  67363.3901     0.17196E-01 
  67395.6522     0.17492E-01 
  67427.9144     0.17793E-01 
  67460.1766     0.18097E-01 
  67492.4387     0.18405E-01 
  67524.7009     0.18717E-01 
  67556.9630     0.19034E-01 
  67589.2252     0.19354E-01 
  67621.4874     0.19679E-01 
  67653.7495     0.20007E-01 
  67686.0117     0.20340E-01 
  67718.2738     0.20677E-01 
  67750.5360     0.21019E-01 
  67782.7982     0.21364E-01 
  67815.0603     0.21714E-01 
  67847.3225     0.22069E-01 
  67879.5846     0.22428E-01 
  67911.8468     0.22791E-01 
  67944.1090     0.23159E-01 
  67976.3711     0.23531E-01 
  68008.6333     0.23908E-01 
  68040.8954     0.24290E-01 
  68073.1576     0.24676E-01 
  68105.4198     0.25067E-01 
  68137.6819     0.25463E-01 
  68169.9441     0.25863E-01 
  68202.2062     0.26269E-01 
  68234.4684     0.26679E-01 
  68266.7306     0.27094E-01 
  68298.9927     0.27514E-01 
  68331.2549     0.27938E-01 
  68363.5170     0.28368E-01 
  68395.7792     0.28803E-01 
  68428.0414     0.29243E-01 
  68460.3035     0.29689E-01 
  68492.5657     0.30139E-01 
  68524.8278     0.30594E-01 
  68557.0900     0.31055E-01 
  68589.3522     0.31521E-01 
  68621.6143     0.31993E-01 
  68653.8765     0.32470E-01 
  68686.1386     0.32952E-01 
  68718.4008     0.33439E-01 
  68750.6630     0.33933E-01 
  68782.9251     0.34431E-01 
  68815.1873     0.34935E-01 
  68847.4494     0.35445E-01 
  68879.7116     0.35961E-01 
  68911.9738     0.36482E-01 
  68944.2359     0.37009E-01 
  68976.4981     0.37541E-01 
  69008.7602     0.38080E-01 
  69041.0224     0.38624E-01 
  69073.2846     0.39174E-01 
  69105.5467     0.39730E-01 
  69137.8089     0.40292E-01 
  69170.0710     0.40860E-01 
  69202.3332     0.41434E-01 
  69234.5954     0.42015E-01 
  69266.8575     0.42601E-01 
  69299.1197     0.43193E-01 
  69331.3818     0.43792E-01 
  69363.6440     0.44397E-01 
  69395.9062     0.45008E-01 
  69428.1683     0.45626E-01 
  69460.4305     0.46249E-01 
  69492.6926     0.46880E-01 
  69524.9548     0.47516E-01 
  69557.2170     0.48160E-01 
  69589.4791     0.48809E-01 
  69621.7413     0.49465E-01 
  69654.0034     0.50128E-01 
  69686.2656     0.50798E-01 
  69718.5278     0.51474E-01 
  69750.7899     0.52156E-01 
  69783.0521     0.52846E-01 
  69815.3142     0.53542E-01 
  69847.5764     0.54245E-01 
  69879.8386     0.54955E-01 
  69912.1007     0.55672E-01 
  69944.3629     0.56396E-01 
  69976.6250     0.57127E-01 
  70008.8872     0.57864E-01 
  70041.1494     0.58609E-01 
  70073.4115     0.59361E-01 
  70105.6737     0.60120E-01 
  70137.9358     0.60886E-01 
  70170.1980     0.61659E-01 
  70202.4602     0.62440E-01 
  70234.7223     0.63227E-01 
  70266.9845     0.64022E-01 
  70299.2466     0.64825E-01 
  70331.5088     0.65634E-01 
  70363.7710     0.66451E-01 
  70396.0331     0.67276E-01 
  70428.2953     0.68107E-01 
  70460.5574     0.68947E-01 
  70492.8196     0.69794E-01 
  70525.0818     0.70648E-01 
  70557.3439     0.71510E-01 
  70589.6061     0.72379E-01 
  70621.8682     0.73257E-01 
  70654.1304     0.74141E-01 
  70686.3926     0.75034E-01 
  70718.6547     0.75934E-01 
  70750.9169     0.76842E-01 
  70783.1790     0.77758E-01 
  70815.4412     0.78682E-01 
  70847.7034     0.79613E-01 
  70879.9655     0.80552E-01 
  70912.2277     0.81500E-01 
  70944.4898     0.82455E-01 
  70976.7520     0.83418E-01 
  71009.0142     0.84389E-01 
  71041.2763     0.85368E-01 
  71073.5385     0.86355E-01 
  71105.8006     0.87350E-01 
  71138.0628     0.88353E-01 
  71170.3250     0.89365E-01 
  71202.5871     0.90384E-01 
  71234.8493     0.91412E-01 
  71267.1114     0.92447E-01 
  71299.3736     0.93491E-01 
  71331.6358     0.94544E-01 
  71363.8979     0.95604E-01 
  71396.1601     0.96673E-01 
  71428.4222     0.97749E-01 
  71460.6844     0.98835E-01 
  71492.9466     0.99928E-01 
  71525.2087     0.10103E+00 
  71557.4709     0.10214E+00 
  71589.7330     0.10326E+00 
  71621.9952     0.10439E+00 
  71654.2574     0.10552E+00 
  71686.5195     0.10666E+00 
  71718.7817     0.10782E+00 
  71751.0438     0.10898E+00 
  71783.3060     0.11015E+00 
  71815.5682     0.11132E+00 
  71847.8303     0.11251E+00 
  71880.0925     0.11370E+00 
  71912.3546     0.11491E+00 
  71944.6168     0.11612E+00 
  71976.8790     0.11734E+00 
  72009.1411     0.11857E+00 
  72041.4033     0.11980E+00 
  72073.6654     0.12105E+00 
  72105.9276     0.12230E+00 
  72138.1898     0.12357E+00 
  72170.4519     0.12484E+00 
  72202.7141     0.12612E+00 
  72234.9762     0.12741E+00 
  72267.2384     0.12870E+00 
  72299.5006     0.13001E+00 
  72331.7627     0.13132E+00 
  72364.0249     0.13265E+00 
  72396.2870     0.13398E+00 
  72428.5492     0.13532E+00 
  72460.8114     0.13667E+00 
  72493.0735     0.13803E+00 
  72525.3357     0.13939E+00 
  72557.5978     0.14077E+00 
  72589.8600     0.14215E+00 
