  32262.1600     0.78889E-04 
  32294.4222     0.79812E-04 
  32326.6843     0.80742E-04 
  32358.9465     0.81679E-04 
  32391.2086     0.82623E-04 
  32423.4708     0.83575E-04 
  32455.7330     0.84533E-04 
  32487.9951     0.85499E-04 
  32520.2573     0.86472E-04 
  32552.5194     0.87452E-04 
  32584.7816     0.88440E-04 
  32617.0438     0.89434E-04 
  32649.3059     0.90436E-04 
  32681.5681     0.91445E-04 
  32713.8302     0.92461E-04 
  32746.0924     0.93484E-04 
  32778.3546     0.94515E-04 
  32810.6167     0.95552E-04 
  32842.8789     0.96597E-04 
  32875.1410     0.97649E-04 
  32907.4032     0.98708E-04 
  32939.6654     0.99774E-04 
  32971.9275     0.10085E-03 
  33004.1897     0.10193E-03 
  33036.4518     0.10302E-03 
  33068.7140     0.10411E-03 
  33100.9762     0.10521E-03 
  33133.2383     0.10632E-03 
  33165.5005     0.10744E-03 
  33197.7626     0.10856E-03 
  33230.0248     0.10969E-03 
  33262.2870     0.11082E-03 
  33294.5491     0.11197E-03 
  33326.8113     0.11312E-03 
  33359.0734     0.11427E-03 
  33391.3356     0.11544E-03 
  33423.5978     0.11661E-03 
  33455.8599     0.11779E-03 
  33488.1221     0.11897E-03 
  33520.3842     0.12016E-03 
  33552.6464     0.12136E-03 
  33584.9086     0.12257E-03 
  33617.1707     0.12378E-03 
  33649.4329     0.12500E-03 
  33681.6950     0.12622E-03 
  33713.9572     0.12745E-03 
  33746.2194     0.12869E-03 
  33778.4815     0.12993E-03 
  33810.7437     0.13119E-03 
  33843.0058     0.13244E-03 
  33875.2680     0.13371E-03 
  33907.5302     0.13498E-03 
  33939.7923     0.13625E-03 
  33972.0545     0.13754E-03 
  34004.3166     0.13883E-03 
  34036.5788     0.14012E-03 
  34068.8410     0.14142E-03 
  34101.1031     0.14273E-03 
  34133.3653     0.14404E-03 
  34165.6274     0.14536E-03 
  34197.8896     0.14669E-03 
  34230.1518     0.14802E-03 
  34262.4139     0.14936E-03 
  34294.6761     0.15070E-03 
  34326.9382     0.15205E-03 
  34359.2004     0.15340E-03 
  34391.4626     0.15476E-03 
  34423.7247     0.15613E-03 
  34455.9869     0.15750E-03 
  34488.2490     0.15888E-03 
  34520.5112     0.16026E-03 
  34552.7734     0.16165E-03 
  34585.0355     0.16304E-03 
  34617.2977     0.16444E-03 
  34649.5598     0.16585E-03 
  34681.8220     0.16725E-03 
  34714.0842     0.16867E-03 
  34746.3463     0.17009E-03 
  34778.6085     0.17151E-03 
  34810.8706     0.17294E-03 
  34843.1328     0.17438E-03 
  34875.3950     0.17581E-03 
  34907.6571     0.17726E-03 
  34939.9193     0.17871E-03 
  34972.1814     0.18016E-03 
  35004.4436     0.18162E-03 
  35036.7058     0.18308E-03 
  35068.9679     0.18454E-03 
  35101.2301     0.18601E-03 
  35133.4922     0.18749E-03 
  35165.7544     0.18897E-03 
  35198.0166     0.19045E-03 
  35230.2787     0.19194E-03 
  35262.5409     0.19343E-03 
  35294.8030     0.19492E-03 
  35327.0652     0.19642E-03 
  35359.3274     0.19792E-03 
  35391.5895     0.19943E-03 
  35423.8517     0.20093E-03 
  35456.1138     0.20245E-03 
  35488.3760     0.20396E-03 
  35520.6382     0.20548E-03 
  35552.9003     0.20700E-03 
  35585.1625     0.20853E-03 
  35617.4246     0.21006E-03 
  35649.6868     0.21159E-03 
  35681.9490     0.21312E-03 
  35714.2111     0.21466E-03 
  35746.4733     0.21620E-03 
  35778.7354     0.21774E-03 
  35810.9976     0.21929E-03 
  35843.2598     0.22083E-03 
  35875.5219     0.22238E-03 
  35907.7841     0.22393E-03 
  35940.0462     0.22549E-03 
  35972.3084     0.22704E-03 
  36004.5706     0.22860E-03 
  36036.8327     0.23016E-03 
  36069.0949     0.23172E-03 
  36101.3570     0.23329E-03 
  36133.6192     0.23485E-03 
  36165.8814     0.23642E-03 
  36198.1435     0.23799E-03 
  36230.4057     0.23955E-03 
  36262.6678     0.24112E-03 
  36294.9300     0.24270E-03 
  36327.1922     0.24427E-03 
  36359.4543     0.24584E-03 
  36391.7165     0.24742E-03 
  36423.9786     0.24899E-03 
  36456.2408     0.25057E-03 
  36488.5030     0.25214E-03 
  36520.7651     0.25372E-03 
  36553.0273     0.25529E-03 
  36585.2894     0.25687E-03 
  36617.5516     0.25845E-03 
  36649.8138     0.26002E-03 
  36682.0759     0.26160E-03 
  36714.3381     0.26318E-03 
  36746.6002     0.26475E-03 
  36778.8624     0.26633E-03 
  36811.1246     0.26790E-03 
  36843.3867     0.26948E-03 
  36875.6489     0.27105E-03 
  36907.9110     0.27263E-03 
  36940.1732     0.27420E-03 
  36972.4354     0.27577E-03 
  37004.6975     0.27734E-03 
  37036.9597     0.27891E-03 
  37069.2218     0.28048E-03 
  37101.4840     0.28204E-03 
  37133.7462     0.28361E-03 
  37166.0083     0.28517E-03 
  37198.2705     0.28673E-03 
  37230.5326     0.28829E-03 
  37262.7948     0.28985E-03 
  37295.0570     0.29140E-03 
  37327.3191     0.29295E-03 
  37359.5813     0.29450E-03 
  37391.8434     0.29605E-03 
  37424.1056     0.29760E-03 
  37456.3678     0.29914E-03 
  37488.6299     0.30068E-03 
  37520.8921     0.30222E-03 
  37553.1542     0.30375E-03 
  37585.4164     0.30528E-03 
  37617.6786     0.30681E-03 
  37649.9407     0.30834E-03 
  37682.2029     0.30986E-03 
  37714.4650     0.31138E-03 
  37746.7272     0.31289E-03 
  37778.9894     0.31440E-03 
  37811.2515     0.31591E-03 
  37843.5137     0.31741E-03 
  37875.7758     0.31891E-03 
  37908.0380     0.32041E-03 
  37940.3002     0.32190E-03 
  37972.5623     0.32338E-03 
  38004.8245     0.32487E-03 
  38037.0866     0.32634E-03 
  38069.3488     0.32782E-03 
  38101.6110     0.32928E-03 
  38133.8731     0.33075E-03 
  38166.1353     0.33220E-03 
  38198.3974     0.33366E-03 
  38230.6596     0.33511E-03 
  38262.9218     0.33655E-03 
  38295.1839     0.33799E-03 
  38327.4461     0.33942E-03 
  38359.7082     0.34084E-03 
  38391.9704     0.34227E-03 
  38424.2326     0.34368E-03 
  38456.4947     0.34509E-03 
  38488.7569     0.34649E-03 
  38521.0190     0.34789E-03 
  38553.2812     0.34928E-03 
  38585.5434     0.35066E-03 
  38617.8055     0.35204E-03 
  38650.0677     0.35341E-03 
  38682.3298     0.35478E-03 
  38714.5920     0.35614E-03 
  38746.8542     0.35749E-03 
  38779.1163     0.35883E-03 
  38811.3785     0.36017E-03 
  38843.6406     0.36150E-03 
  38875.9028     0.36283E-03 
  38908.1650     0.36414E-03 
  38940.4271     0.36545E-03 
  38972.6893     0.36675E-03 
  39004.9514     0.36805E-03 
  39037.2136     0.36934E-03 
  39069.4758     0.37061E-03 
  39101.7379     0.37189E-03 
  39134.0001     0.37315E-03 
  39166.2622     0.37440E-03 
  39198.5244     0.37565E-03 
  39230.7866     0.37689E-03 
  39263.0487     0.37812E-03 
  39295.3109     0.37934E-03 
  39327.5730     0.38056E-03 
  39359.8352     0.38176E-03 
  39392.0974     0.38296E-03 
  39424.3595     0.38415E-03 
  39456.6217     0.38533E-03 
  39488.8838     0.38650E-03 
  39521.1460     0.38766E-03 
  39553.4082     0.38881E-03 
  39585.6703     0.38996E-03 
  39617.9325     0.39109E-03 
  39650.1946     0.39222E-03 
  39682.4568     0.39334E-03 
  39714.7190     0.39444E-03 
  39746.9811     0.39554E-03 
  39779.2433     0.39663E-03 
  39811.5054     0.39771E-03 
  39843.7676     0.39877E-03 
  39876.0298     0.39983E-03 
  39908.2919     0.40088E-03 
  39940.5541     0.40192E-03 
  39972.8162     0.40295E-03 
  40005.0784     0.40397E-03 
  40037.3406     0.40498E-03 
  40069.6027     0.40598E-03 
  40101.8649     0.40697E-03 
  40134.1270     0.40795E-03 
  40166.3892     0.40891E-03 
  40198.6514     0.40987E-03 
  40230.9135     0.41082E-03 
  40263.1757     0.41176E-03 
  40295.4378     0.41268E-03 
  40327.7000     0.41360E-03 
  40359.9622     0.41450E-03 
  40392.2243     0.41540E-03 
  40424.4865     0.41628E-03 
  40456.7486     0.41715E-03 
  40489.0108     0.41801E-03 
  40521.2730     0.41886E-03 
  40553.5351     0.41970E-03 
  40585.7973     0.42053E-03 
  40618.0594     0.42135E-03 
  40650.3216     0.42215E-03 
  40682.5838     0.42295E-03 
  40714.8459     0.42373E-03 
  40747.1081     0.42450E-03 
  40779.3702     0.42527E-03 
  40811.6324     0.42601E-03 
  40843.8946     0.42675E-03 
  40876.1567     0.42748E-03 
  40908.4189     0.42819E-03 
  40940.6810     0.42890E-03 
  40972.9432     0.42959E-03 
  41005.2054     0.43027E-03 
  41037.4675     0.43094E-03 
  41069.7297     0.43159E-03 
  41101.9918     0.43224E-03 
  41134.2540     0.43287E-03 
  41166.5162     0.43349E-03 
  41198.7783     0.43410E-03 
  41231.0405     0.43470E-03 
  41263.3026     0.43528E-03 
  41295.5648     0.43586E-03 
  41327.8270     0.43642E-03 
  41360.0891     0.43697E-03 
  41392.3513     0.43750E-03 
  41424.6134     0.43803E-03 
  41456.8756     0.43854E-03 
  41489.1378     0.43904E-03 
  41521.3999     0.43953E-03 
  41553.6621     0.44001E-03 
  41585.9242     0.44047E-03 
  41618.1864     0.44092E-03 
  41650.4486     0.44136E-03 
  41682.7107     0.44179E-03 
  41714.9729     0.44221E-03 
  41747.2350     0.44261E-03 
  41779.4972     0.44300E-03 
  41811.7594     0.44338E-03 
  41844.0215     0.44375E-03 
  41876.2837     0.44410E-03 
  41908.5458     0.44444E-03 
  41940.8080     0.44477E-03 
  41973.0702     0.44509E-03 
  42005.3323     0.44539E-03 
  42037.5945     0.44569E-03 
  42069.8566     0.44597E-03 
  42102.1188     0.44623E-03 
  42134.3810     0.44649E-03 
  42166.6431     0.44673E-03 
  42198.9053     0.44696E-03 
  42231.1674     0.44718E-03 
  42263.4296     0.44739E-03 
  42295.6918     0.44758E-03 
  42327.9539     0.44776E-03 
  42360.2161     0.44793E-03 
  42392.4782     0.44809E-03 
  42424.7404     0.44823E-03 
  42457.0026     0.44836E-03 
  42489.2647     0.44848E-03 
  42521.5269     0.44859E-03 
  42553.7890     0.44869E-03 
  42586.0512     0.44877E-03 
  42618.3134     0.44884E-03 
  42650.5755     0.44890E-03 
  42682.8377     0.44895E-03 
  42715.0998     0.44898E-03 
  42747.3620     0.44900E-03 
  42779.6242     0.44901E-03 
  42811.8863     0.44901E-03 
  42844.1485     0.44899E-03 
  42876.4106     0.44897E-03 
  42908.6728     0.44893E-03 
  42940.9350     0.44888E-03 
  42973.1971     0.44882E-03 
  43005.4593     0.44874E-03 
  43037.7214     0.44865E-03 
  43069.9836     0.44855E-03 
  43102.2458     0.44844E-03 
  43134.5079     0.44832E-03 
  43166.7701     0.44819E-03 
  43199.0322     0.44804E-03 
  43231.2944     0.44788E-03 
  43263.5566     0.44771E-03 
  43295.8187     0.44753E-03 
  43328.0809     0.44734E-03 
  43360.3430     0.44713E-03 
  43392.6052     0.44692E-03 
  43424.8674     0.44669E-03 
  43457.1295     0.44645E-03 
  43489.3917     0.44620E-03 
  43521.6538     0.44593E-03 
  43553.9160     0.44566E-03 
  43586.1782     0.44537E-03 
  43618.4403     0.44508E-03 
  43650.7025     0.44477E-03 
  43682.9646     0.44445E-03 
  43715.2268     0.44412E-03 
  43747.4890     0.44378E-03 
  43779.7511     0.44342E-03 
  43812.0133     0.44306E-03 
  43844.2754     0.44268E-03 
  43876.5376     0.44230E-03 
  43908.7998     0.44190E-03 
  43941.0619     0.44149E-03 
  43973.3241     0.44107E-03 
  44005.5862     0.44064E-03 
  44037.8484     0.44020E-03 
  44070.1106     0.43975E-03 
  44102.3727     0.43929E-03 
  44134.6349     0.43881E-03 
  44166.8970     0.43833E-03 
  44199.1592     0.43783E-03 
  44231.4214     0.43733E-03 
  44263.6835     0.43682E-03 
  44295.9457     0.43629E-03 
  44328.2078     0.43575E-03 
  44360.4700     0.43521E-03 
  44392.7322     0.43465E-03 
  44424.9943     0.43409E-03 
  44457.2565     0.43351E-03 
  44489.5186     0.43292E-03 
  44521.7808     0.43233E-03 
  44554.0430     0.43172E-03 
  44586.3051     0.43111E-03 
  44618.5673     0.43048E-03 
  44650.8294     0.42985E-03 
  44683.0916     0.42920E-03 
  44715.3538     0.42855E-03 
  44747.6159     0.42788E-03 
  44779.8781     0.42721E-03 
  44812.1402     0.42653E-03 
  44844.4024     0.42583E-03 
  44876.6646     0.42513E-03 
  44908.9267     0.42442E-03 
  44941.1889     0.42370E-03 
  44973.4510     0.42297E-03 
  45005.7132     0.42224E-03 
  45037.9754     0.42149E-03 
  45070.2375     0.42073E-03 
  45102.4997     0.41997E-03 
  45134.7618     0.41920E-03 
  45167.0240     0.41841E-03 
  45199.2862     0.41762E-03 
  45231.5483     0.41682E-03 
  45263.8105     0.41602E-03 
  45296.0726     0.41520E-03 
  45328.3348     0.41438E-03 
  45360.5970     0.41355E-03 
  45392.8591     0.41271E-03 
  45425.1213     0.41186E-03 
  45457.3834     0.41100E-03 
  45489.6456     0.41014E-03 
  45521.9078     0.40926E-03 
  45554.1699     0.40838E-03 
  45586.4321     0.40749E-03 
  45618.6942     0.40660E-03 
  45650.9564     0.40570E-03 
  45683.2186     0.40478E-03 
  45715.4807     0.40387E-03 
  45747.7429     0.40294E-03 
  45780.0050     0.40201E-03 
  45812.2672     0.40107E-03 
  45844.5294     0.40012E-03 
  45876.7915     0.39917E-03 
  45909.0537     0.39821E-03 
  45941.3158     0.39724E-03 
  45973.5780     0.39626E-03 
  46005.8402     0.39528E-03 
  46038.1023     0.39429E-03 
  46070.3645     0.39330E-03 
  46102.6266     0.39229E-03 
  46134.8888     0.39129E-03 
  46167.1510     0.39027E-03 
  46199.4131     0.38925E-03 
  46231.6753     0.38822E-03 
  46263.9374     0.38719E-03 
  46296.1996     0.38615E-03 
  46328.4618     0.38510E-03 
  46360.7239     0.38405E-03 
  46392.9861     0.38299E-03 
  46425.2482     0.38193E-03 
  46457.5104     0.38086E-03 
  46489.7726     0.37979E-03 
  46522.0347     0.37871E-03 
  46554.2969     0.37762E-03 
  46586.5590     0.37653E-03 
  46618.8212     0.37543E-03 
  46651.0834     0.37433E-03 
  46683.3455     0.37323E-03 
  46715.6077     0.37211E-03 
  46747.8698     0.37100E-03 
  46780.1320     0.36988E-03 
  46812.3942     0.36875E-03 
  46844.6563     0.36762E-03 
  46876.9185     0.36648E-03 
  46909.1806     0.36534E-03 
  46941.4428     0.36419E-03 
  46973.7050     0.36304E-03 
  47005.9671     0.36189E-03 
  47038.2293     0.36073E-03 
  47070.4914     0.35957E-03 
  47102.7536     0.35840E-03 
  47135.0158     0.35723E-03 
  47167.2779     0.35605E-03 
  47199.5401     0.35487E-03 
  47231.8022     0.35369E-03 
  47264.0644     0.35250E-03 
  47296.3266     0.35131E-03 
  47328.5887     0.35011E-03 
  47360.8509     0.34892E-03 
  47393.1130     0.34771E-03 
  47425.3752     0.34651E-03 
  47457.6374     0.34530E-03 
  47489.8995     0.34409E-03 
  47522.1617     0.34287E-03 
  47554.4238     0.34165E-03 
  47586.6860     0.34043E-03 
  47618.9482     0.33921E-03 
  47651.2103     0.33798E-03 
  47683.4725     0.33675E-03 
  47715.7346     0.33551E-03 
  47747.9968     0.33428E-03 
  47780.2590     0.33304E-03 
  47812.5211     0.33180E-03 
  47844.7833     0.33055E-03 
  47877.0454     0.32931E-03 
  47909.3076     0.32806E-03 
  47941.5698     0.32681E-03 
  47973.8319     0.32555E-03 
  48006.0941     0.32430E-03 
  48038.3562     0.32304E-03 
  48070.6184     0.32178E-03 
  48102.8806     0.32052E-03 
  48135.1427     0.31926E-03 
  48167.4049     0.31799E-03 
  48199.6670     0.31672E-03 
  48231.9292     0.31545E-03 
  48264.1914     0.31418E-03 
  48296.4535     0.31291E-03 
  48328.7157     0.31164E-03 
  48360.9778     0.31036E-03 
  48393.2400     0.30909E-03 
  48425.5022     0.30781E-03 
  48457.7643     0.30653E-03 
  48490.0265     0.30525E-03 
  48522.2886     0.30397E-03 
  48554.5508     0.30268E-03 
  48586.8130     0.30140E-03 
  48619.0751     0.30012E-03 
  48651.3373     0.29883E-03 
  48683.5994     0.29755E-03 
  48715.8616     0.29626E-03 
  48748.1238     0.29497E-03 
  48780.3859     0.29368E-03 
  48812.6481     0.29240E-03 
  48844.9102     0.29111E-03 
  48877.1724     0.28982E-03 
  48909.4346     0.28853E-03 
  48941.6967     0.28724E-03 
  48973.9589     0.28595E-03 
  49006.2210     0.28466E-03 
  49038.4832     0.28337E-03 
  49070.7454     0.28208E-03 
  49103.0075     0.28078E-03 
  49135.2697     0.27949E-03 
  49167.5318     0.27820E-03 
  49199.7940     0.27691E-03 
  49232.0562     0.27562E-03 
  49264.3183     0.27433E-03 
  49296.5805     0.27304E-03 
  49328.8426     0.27175E-03 
  49361.1048     0.27047E-03 
  49393.3670     0.26918E-03 
  49425.6291     0.26789E-03 
  49457.8913     0.26660E-03 
  49490.1534     0.26532E-03 
  49522.4156     0.26403E-03 
  49554.6778     0.26274E-03 
  49586.9399     0.26146E-03 
  49619.2021     0.26018E-03 
  49651.4642     0.25889E-03 
  49683.7264     0.25761E-03 
  49715.9886     0.25633E-03 
  49748.2507     0.25505E-03 
  49780.5129     0.25377E-03 
  49812.7750     0.25250E-03 
  49845.0372     0.25122E-03 
  49877.2994     0.24995E-03 
  49909.5615     0.24867E-03 
  49941.8237     0.24740E-03 
  49974.0858     0.24613E-03 
  50006.3480     0.24486E-03 
  50038.6102     0.24359E-03 
  50070.8723     0.24233E-03 
  50103.1345     0.24106E-03 
  50135.3966     0.23980E-03 
  50167.6588     0.23854E-03 
  50199.9210     0.23728E-03 
  50232.1831     0.23602E-03 
  50264.4453     0.23476E-03 
  50296.7074     0.23351E-03 
  50328.9696     0.23226E-03 
  50361.2318     0.23101E-03 
  50393.4939     0.22976E-03 
  50425.7561     0.22851E-03 
  50458.0182     0.22727E-03 
  50490.2804     0.22602E-03 
  50522.5426     0.22478E-03 
  50554.8047     0.22355E-03 
  50587.0669     0.22231E-03 
  50619.3290     0.22108E-03 
  50651.5912     0.21984E-03 
  50683.8534     0.21861E-03 
  50716.1155     0.21739E-03 
  50748.3777     0.21616E-03 
  50780.6398     0.21494E-03 
  50812.9020     0.21372E-03 
  50845.1642     0.21250E-03 
  50877.4263     0.21129E-03 
  50909.6885     0.21008E-03 
  50941.9506     0.20887E-03 
  50974.2128     0.20766E-03 
  51006.4750     0.20646E-03 
  51038.7371     0.20526E-03 
  51070.9993     0.20406E-03 
  51103.2614     0.20286E-03 
  51135.5236     0.20167E-03 
  51167.7858     0.20048E-03 
  51200.0479     0.19929E-03 
  51232.3101     0.19811E-03 
  51264.5722     0.19692E-03 
  51296.8344     0.19574E-03 
  51329.0966     0.19457E-03 
  51361.3587     0.19340E-03 
  51393.6209     0.19223E-03 
  51425.8830     0.19106E-03 
  51458.1452     0.18989E-03 
  51490.4074     0.18873E-03 
  51522.6695     0.18758E-03 
  51554.9317     0.18642E-03 
  51587.1938     0.18527E-03 
  51619.4560     0.18412E-03 
  51651.7182     0.18298E-03 
  51683.9803     0.18184E-03 
  51716.2425     0.18070E-03 
  51748.5046     0.17956E-03 
  51780.7668     0.17843E-03 
  51813.0290     0.17730E-03 
  51845.2911     0.17618E-03 
  51877.5533     0.17506E-03 
  51909.8154     0.17394E-03 
  51942.0776     0.17282E-03 
  51974.3398     0.17171E-03 
  52006.6019     0.17060E-03 
  52038.8641     0.16950E-03 
  52071.1262     0.16840E-03 
  52103.3884     0.16730E-03 
  52135.6506     0.16621E-03 
  52167.9127     0.16512E-03 
  52200.1749     0.16403E-03 
  52232.4370     0.16295E-03 
  52264.6992     0.16187E-03 
  52296.9614     0.16079E-03 
  52329.2235     0.15972E-03 
  52361.4857     0.15865E-03 
  52393.7478     0.15758E-03 
  52426.0100     0.15652E-03 
  52458.2722     0.15546E-03 
  52490.5343     0.15441E-03 
  52522.7965     0.15336E-03 
  52555.0586     0.15231E-03 
  52587.3208     0.15127E-03 
  52619.5830     0.15023E-03 
  52651.8451     0.14920E-03 
  52684.1073     0.14817E-03 
  52716.3694     0.14714E-03 
  52748.6316     0.14612E-03 
  52780.8938     0.14510E-03 
  52813.1559     0.14408E-03 
  52845.4181     0.14307E-03 
  52877.6802     0.14206E-03 
  52909.9424     0.14105E-03 
  52942.2046     0.14005E-03 
  52974.4667     0.13906E-03 
  53006.7289     0.13806E-03 
  53038.9910     0.13708E-03 
  53071.2532     0.13609E-03 
  53103.5154     0.13511E-03 
  53135.7775     0.13413E-03 
  53168.0397     0.13316E-03 
  53200.3018     0.13219E-03 
  53232.5640     0.13123E-03 
  53264.8262     0.13026E-03 
  53297.0883     0.12931E-03 
  53329.3505     0.12835E-03 
  53361.6126     0.12740E-03 
  53393.8748     0.12646E-03 
  53426.1370     0.12552E-03 
  53458.3991     0.12458E-03 
  53490.6613     0.12365E-03 
  53522.9234     0.12272E-03 
  53555.1856     0.12179E-03 
  53587.4478     0.12087E-03 
  53619.7099     0.11995E-03 
  53651.9721     0.11904E-03 
  53684.2342     0.11813E-03 
  53716.4964     0.11723E-03 
  53748.7586     0.11633E-03 
  53781.0207     0.11543E-03 
  53813.2829     0.11454E-03 
  53845.5450     0.11365E-03 
  53877.8072     0.11276E-03 
  53910.0694     0.11188E-03 
  53942.3315     0.11100E-03 
  53974.5937     0.11013E-03 
  54006.8558     0.10926E-03 
  54039.1180     0.10840E-03 
  54071.3802     0.10754E-03 
  54103.6423     0.10668E-03 
  54135.9045     0.10583E-03 
  54168.1666     0.10498E-03 
  54200.4288     0.10414E-03 
  54232.6910     0.10330E-03 
  54264.9531     0.10246E-03 
  54297.2153     0.10163E-03 
  54329.4774     0.10080E-03 
  54361.7396     0.99974E-04 
  54394.0018     0.99153E-04 
  54426.2639     0.98337E-04 
  54458.5261     0.97525E-04 
  54490.7882     0.96717E-04 
  54523.0504     0.95913E-04 
  54555.3126     0.95113E-04 
  54587.5747     0.94317E-04 
  54619.8369     0.93525E-04 
  54652.0990     0.92737E-04 
  54684.3612     0.91952E-04 
  54716.6234     0.91172E-04 
  54748.8855     0.90396E-04 
  54781.1477     0.89624E-04 
  54813.4098     0.88856E-04 
  54845.6720     0.88092E-04 
  54877.9342     0.87332E-04 
  54910.1963     0.86576E-04 
  54942.4585     0.85824E-04 
  54974.7206     0.85076E-04 
  55006.9828     0.84331E-04 
  55039.2450     0.83591E-04 
  55071.5071     0.82855E-04 
  55103.7693     0.82123E-04 
  55136.0314     0.81394E-04 
  55168.2936     0.80670E-04 
  55200.5558     0.79949E-04 
  55232.8179     0.79232E-04 
  55265.0801     0.78520E-04 
  55297.3422     0.77811E-04 
  55329.6044     0.77106E-04 
  55361.8666     0.76405E-04 
  55394.1287     0.75708E-04 
  55426.3909     0.75014E-04 
  55458.6530     0.74325E-04 
  55490.9152     0.73639E-04 
  55523.1774     0.72957E-04 
  55555.4395     0.72280E-04 
  55587.7017     0.71606E-04 
  55619.9638     0.70935E-04 
  55652.2260     0.70269E-04 
  55684.4882     0.69606E-04 
  55716.7503     0.68948E-04 
  55749.0125     0.68293E-04 
  55781.2746     0.67641E-04 
  55813.5368     0.66994E-04 
  55845.7990     0.66350E-04 
  55878.0611     0.65710E-04 
  55910.3233     0.65074E-04 
  55942.5854     0.64442E-04 
  55974.8476     0.63813E-04 
  56007.1098     0.63188E-04 
  56039.3719     0.62567E-04 
  56071.6341     0.61950E-04 
  56103.8962     0.61336E-04 
  56136.1584     0.60726E-04 
  56168.4206     0.60119E-04 
  56200.6827     0.59516E-04 
  56232.9449     0.58917E-04 
  56265.2070     0.58322E-04 
  56297.4692     0.57730E-04 
  56329.7314     0.57142E-04 
  56361.9935     0.56557E-04 
  56394.2557     0.55976E-04 
  56426.5178     0.55399E-04 
  56458.7800     0.54825E-04 
  56491.0422     0.54254E-04 
  56523.3043     0.53688E-04 
  56555.5665     0.53125E-04 
  56587.8286     0.52565E-04 
  56620.0908     0.52009E-04 
  56652.3530     0.51457E-04 
  56684.6151     0.50908E-04 
  56716.8773     0.50362E-04 
  56749.1394     0.49820E-04 
  56781.4016     0.49282E-04 
  56813.6638     0.48747E-04 
  56845.9259     0.48215E-04 
  56878.1881     0.47687E-04 
  56910.4502     0.47162E-04 
  56942.7124     0.46641E-04 
  56974.9746     0.46123E-04 
  57007.2367     0.45609E-04 
  57039.4989     0.45098E-04 
  57071.7610     0.44590E-04 
  57104.0232     0.44086E-04 
  57136.2854     0.43585E-04 
  57168.5475     0.43087E-04 
  57200.8097     0.42593E-04 
  57233.0718     0.42102E-04 
  57265.3340     0.41615E-04 
  57297.5962     0.41130E-04 
  57329.8583     0.40650E-04 
  57362.1205     0.40172E-04 
  57394.3826     0.39698E-04 
  57426.6448     0.39226E-04 
  57458.9070     0.38759E-04 
  57491.1691     0.38294E-04 
  57523.4313     0.37833E-04 
  57555.6934     0.37375E-04 
  57587.9556     0.36920E-04 
  57620.2178     0.36468E-04 
  57652.4799     0.36020E-04 
  57684.7421     0.35574E-04 
  57717.0042     0.35132E-04 
  57749.2664     0.34693E-04 
  57781.5286     0.34257E-04 
  57813.7907     0.33825E-04 
  57846.0529     0.33395E-04 
  57878.3150     0.32969E-04 
  57910.5772     0.32545E-04 
  57942.8394     0.32125E-04 
  57975.1015     0.31708E-04 
  58007.3637     0.31294E-04 
  58039.6258     0.30883E-04 
  58071.8880     0.30475E-04 
  58104.1502     0.30070E-04 
  58136.4123     0.29669E-04 
  58168.6745     0.29270E-04 
  58200.9366     0.28874E-04 
  58233.1988     0.28482E-04 
  58265.4610     0.28092E-04 
  58297.7231     0.27705E-04 
  58329.9853     0.27321E-04 
  58362.2474     0.26941E-04 
  58394.5096     0.26563E-04 
  58426.7718     0.26188E-04 
  58459.0339     0.25816E-04 
  58491.2961     0.25447E-04 
  58523.5582     0.25081E-04 
  58555.8204     0.24718E-04 
  58588.0826     0.24358E-04 
  58620.3447     0.24001E-04 
  58652.6069     0.23647E-04 
  58684.8690     0.23295E-04 
  58717.1312     0.22946E-04 
  58749.3934     0.22601E-04 
  58781.6555     0.22258E-04 
  58813.9177     0.21918E-04 
  58846.1798     0.21581E-04 
  58878.4420     0.21247E-04 
  58910.7042     0.20915E-04 
  58942.9663     0.20587E-04 
  58975.2285     0.20261E-04 
  59007.4906     0.19938E-04 
  59039.7528     0.19618E-04 
  59072.0150     0.19300E-04 
  59104.2771     0.18986E-04 
  59136.5393     0.18674E-04 
  59168.8014     0.18365E-04 
  59201.0636     0.18059E-04 
  59233.3258     0.17755E-04 
  59265.5879     0.17454E-04 
  59297.8501     0.17156E-04 
  59330.1122     0.16861E-04 
  59362.3744     0.16569E-04 
  59394.6366     0.16279E-04 
  59426.8987     0.15992E-04 
  59459.1609     0.15708E-04 
  59491.4230     0.15426E-04 
  59523.6852     0.15148E-04 
  59555.9474     0.14872E-04 
  59588.2095     0.14598E-04 
  59620.4717     0.14328E-04 
  59652.7338     0.14060E-04 
  59684.9960     0.13794E-04 
  59717.2582     0.13532E-04 
  59749.5203     0.13272E-04 
  59781.7825     0.13015E-04 
  59814.0446     0.12760E-04 
  59846.3068     0.12509E-04 
  59878.5690     0.12260E-04 
  59910.8311     0.12013E-04 
  59943.0933     0.11769E-04 
  59975.3554     0.11528E-04 
  60007.6176     0.11290E-04 
  60039.8798     0.11054E-04 
  60072.1419     0.10821E-04 
  60104.4041     0.10591E-04 
  60136.6662     0.10364E-04 
  60168.9284     0.10139E-04 
  60201.1906     0.99163E-05 
  60233.4527     0.96967E-05 
  60265.7149     0.94798E-05 
  60297.9770     0.92656E-05 
  60330.2392     0.90541E-05 
  60362.5014     0.88452E-05 
  60394.7635     0.86390E-05 
  60427.0257     0.84356E-05 
  60459.2878     0.82348E-05 
  60491.5500     0.80367E-05 
  60523.8122     0.78414E-05 
  60556.0743     0.76487E-05 
  60588.3365     0.74587E-05 
  60620.5986     0.72715E-05 
  60652.8608     0.70869E-05 
  60685.1230     0.69051E-05 
  60717.3851     0.67261E-05 
  60749.6473     0.65497E-05 
  60781.9094     0.63761E-05 
  60814.1716     0.62053E-05 
  60846.4338     0.60372E-05 
  60878.6959     0.58719E-05 
  60910.9581     0.57093E-05 
  60943.2202     0.55496E-05 
  60975.4824     0.53926E-05 
  61007.7446     0.52384E-05 
  61040.0067     0.50870E-05 
  61072.2689     0.49385E-05 
  61104.5310     0.47927E-05 
  61136.7932     0.46498E-05 
  61169.0554     0.45098E-05 
  61201.3175     0.43726E-05 
  61233.5797     0.42383E-05 
  61265.8418     0.41069E-05 
  61298.1040     0.39784E-05 
  61330.3662     0.38528E-05 
  61362.6283     0.37302E-05 
  61394.8905     0.36105E-05 
  61427.1526     0.34938E-05 
  61459.4148     0.33800E-05 
  61491.6770     0.32692E-05 
  61523.9391     0.31615E-05 
  61556.2013     0.30567E-05 
  61588.4634     0.29551E-05 
  61620.7256     0.28565E-05 
  61652.9878     0.27610E-05 
  61685.2499     0.26685E-05 
  61717.5121     0.25793E-05 
  61749.7742     0.24931E-05 
  61782.0364     0.24102E-05 
  61814.2986     0.23304E-05 
  61846.5607     0.22539E-05 
  61878.8229     0.21806E-05 
  61911.0850     0.21106E-05 
  61943.3472     0.20439E-05 
  61975.6094     0.19805E-05 
  62007.8715     0.19204E-05 
  62040.1337     0.18638E-05 
  62072.3958     0.18105E-05 
  62104.6580     0.17607E-05 
  62136.9202     0.17143E-05 
  62169.1823     0.16714E-05 
  62201.4445     0.16321E-05 
  62233.7066     0.15963E-05 
  62265.9688     0.15641E-05 
  62298.2310     0.15356E-05 
  62330.4931     0.15107E-05 
  62362.7553     0.14895E-05 
  62395.0174     0.14720E-05 
  62427.2796     0.14583E-05 
  62459.5418     0.14485E-05 
  62491.8039     0.14425E-05 
  62524.0661     0.14403E-05 
  62556.3282     0.14422E-05 
  62588.5904     0.14480E-05 
  62620.8526     0.14578E-05 
  62653.1147     0.14717E-05 
  62685.3769     0.14897E-05 
  62717.6390     0.15119E-05 
  62749.9012     0.15382E-05 
  62782.1634     0.15689E-05 
  62814.4255     0.16038E-05 
  62846.6877     0.16431E-05 
  62878.9498     0.16868E-05 
  62911.2120     0.17350E-05 
  62943.4742     0.17876E-05 
  62975.7363     0.18449E-05 
  63007.9985     0.19068E-05 
  63040.2606     0.19734E-05 
  63072.5228     0.20447E-05 
  63104.7850     0.21208E-05 
  63137.0471     0.22019E-05 
  63169.3093     0.22878E-05 
  63201.5714     0.23787E-05 
  63233.8336     0.24748E-05 
  63266.0958     0.25759E-05 
  63298.3579     0.26822E-05 
  63330.6201     0.27939E-05 
  63362.8822     0.29108E-05 
  63395.1444     0.30332E-05 
  63427.4066     0.31611E-05 
  63459.6687     0.32945E-05 
  63491.9309     0.34336E-05 
  63524.1930     0.35784E-05 
  63556.4552     0.37290E-05 
  63588.7174     0.38855E-05 
  63620.9795     0.40480E-05 
  63653.2417     0.42165E-05 
  63685.5038     0.43911E-05 
  63717.7660     0.45720E-05 
  63750.0282     0.47592E-05 
  63782.2903     0.49529E-05 
  63814.5525     0.51530E-05 
  63846.8146     0.53597E-05 
  63879.0768     0.55731E-05 
  63911.3390     0.57934E-05 
  63943.6011     0.60205E-05 
  63975.8633     0.62546E-05 
  64008.1254     0.64959E-05 
  64040.3876     0.67443E-05 
  64072.6498     0.70001E-05 
  64104.9119     0.72633E-05 
  64137.1741     0.75340E-05 
  64169.4362     0.78124E-05 
  64201.6984     0.80986E-05 
  64233.9606     0.83927E-05 
  64266.2227     0.86948E-05 
  64298.4849     0.90050E-05 
  64330.7470     0.93235E-05 
  64363.0092     0.96504E-05 
  64395.2714     0.99858E-05 
  64427.5335     0.10330E-04 
  64459.7957     0.10683E-04 
  64492.0578     0.11044E-04 
  64524.3200     0.11415E-04 
  64556.5822     0.11795E-04 
  64588.8443     0.12184E-04 
  64621.1065     0.12583E-04 
  64653.3686     0.12992E-04 
  64685.6308     0.13410E-04 
  64717.8930     0.13838E-04 
  64750.1551     0.14276E-04 
  64782.4173     0.14725E-04 
  64814.6794     0.15184E-04 
  64846.9416     0.15653E-04 
  64879.2038     0.16134E-04 
  64911.4659     0.16625E-04 
  64943.7281     0.17127E-04 
  64975.9902     0.17640E-04 
  65008.2524     0.18165E-04 
  65040.5146     0.18702E-04 
  65072.7767     0.19250E-04 
  65105.0389     0.19810E-04 
  65137.3010     0.20383E-04 
  65169.5632     0.20967E-04 
  65201.8254     0.21565E-04 
  65234.0875     0.22175E-04 
  65266.3497     0.22797E-04 
  65298.6118     0.23433E-04 
  65330.8740     0.24083E-04 
  65363.1362     0.24746E-04 
  65395.3983     0.25422E-04 
  65427.6605     0.26113E-04 
  65459.9226     0.26818E-04 
  65492.1848     0.27537E-04 
  65524.4470     0.28271E-04 
  65556.7091     0.29020E-04 
  65588.9713     0.29784E-04 
  65621.2334     0.30563E-04 
  65653.4956     0.31357E-04 
  65685.7578     0.32168E-04 
  65718.0199     0.32994E-04 
  65750.2821     0.33837E-04 
  65782.5442     0.34697E-04 
  65814.8064     0.35573E-04 
  65847.0686     0.36466E-04 
  65879.3307     0.37376E-04 
  65911.5929     0.38304E-04 
  65943.8550     0.39250E-04 
  65976.1172     0.40214E-04 
  66008.3794     0.41196E-04 
  66040.6415     0.42197E-04 
  66072.9037     0.43217E-04 
  66105.1658     0.44256E-04 
  66137.4280     0.45314E-04 
  66169.6902     0.46393E-04 
  66201.9523     0.47491E-04 
  66234.2145     0.48610E-04 
  66266.4766     0.49750E-04 
  66298.7388     0.50910E-04 
  66331.0010     0.52092E-04 
  66363.2631     0.53295E-04 
  66395.5253     0.54521E-04 
  66427.7874     0.55768E-04 
  66460.0496     0.57038E-04 
  66492.3118     0.58331E-04 
  66524.5739     0.59648E-04 
  66556.8361     0.60988E-04 
  66589.0982     0.62351E-04 
  66621.3604     0.63739E-04 
  66653.6226     0.65152E-04 
  66685.8847     0.66590E-04 
  66718.1469     0.68053E-04 
  66750.4090     0.69541E-04 
  66782.6712     0.71056E-04 
  66814.9334     0.72597E-04 
  66847.1955     0.74165E-04 
  66879.4577     0.75760E-04 
  66911.7198     0.77383E-04 
  66943.9820     0.79033E-04 
  66976.2442     0.80712E-04 
  67008.5063     0.82420E-04 
  67040.7685     0.84156E-04 
  67073.0306     0.85923E-04 
  67105.2928     0.87719E-04 
  67137.5550     0.89545E-04 
  67169.8171     0.91402E-04 
  67202.0793     0.93291E-04 
  67234.3414     0.95210E-04 
  67266.6036     0.97162E-04 
  67298.8658     0.99146E-04 
  67331.1279     0.10116E-03 
  67363.3901     0.10321E-03 
  67395.6522     0.10530E-03 
  67427.9144     0.10742E-03 
  67460.1766     0.10957E-03 
  67492.4387     0.11176E-03 
  67524.7009     0.11398E-03 
  67556.9630     0.11624E-03 
  67589.2252     0.11854E-03 
  67621.4874     0.12087E-03 
  67653.7495     0.12324E-03 
  67686.0117     0.12565E-03 
  67718.2738     0.12809E-03 
  67750.5360     0.13058E-03 
  67782.7982     0.13311E-03 
  67815.0603     0.13567E-03 
  67847.3225     0.13827E-03 
  67879.5846     0.14092E-03 
  67911.8468     0.14361E-03 
  67944.1090     0.14634E-03 
  67976.3711     0.14911E-03 
  68008.6333     0.15192E-03 
  68040.8954     0.15478E-03 
  68073.1576     0.15768E-03 
  68105.4198     0.16063E-03 
  68137.6819     0.16362E-03 
  68169.9441     0.16666E-03 
  68202.2062     0.16974E-03 
  68234.4684     0.17287E-03 
  68266.7306     0.17604E-03 
  68298.9927     0.17927E-03 
  68331.2549     0.18254E-03 
  68363.5170     0.18586E-03 
  68395.7792     0.18923E-03 
  68428.0414     0.19265E-03 
  68460.3035     0.19612E-03 
  68492.5657     0.19964E-03 
  68524.8278     0.20322E-03 
  68557.0900     0.20684E-03 
  68589.3522     0.21052E-03 
  68621.6143     0.21425E-03 
  68653.8765     0.21804E-03 
  68686.1386     0.22188E-03 
  68718.4008     0.22577E-03 
  68750.6630     0.22972E-03 
  68782.9251     0.23373E-03 
  68815.1873     0.23780E-03 
  68847.4494     0.24192E-03 
  68879.7116     0.24610E-03 
  68911.9738     0.25034E-03 
  68944.2359     0.25463E-03 
  68976.4981     0.25899E-03 
  69008.7602     0.26341E-03 
  69041.0224     0.26789E-03 
  69073.2846     0.27243E-03 
  69105.5467     0.27704E-03 
  69137.8089     0.28170E-03 
  69170.0710     0.28643E-03 
  69202.3332     0.29123E-03 
  69234.5954     0.29609E-03 
  69266.8575     0.30101E-03 
  69299.1197     0.30600E-03 
  69331.3818     0.31106E-03 
  69363.6440     0.31619E-03 
  69395.9062     0.32138E-03 
  69428.1683     0.32664E-03 
  69460.4305     0.33198E-03 
  69492.6926     0.33738E-03 
  69524.9548     0.34285E-03 
  69557.2170     0.34839E-03 
  69589.4791     0.35401E-03 
  69621.7413     0.35970E-03 
  69654.0034     0.36546E-03 
  69686.2656     0.37129E-03 
  69718.5278     0.37720E-03 
  69750.7899     0.38319E-03 
  69783.0521     0.38925E-03 
  69815.3142     0.39538E-03 
  69847.5764     0.40160E-03 
  69879.8386     0.40789E-03 
  69912.1007     0.41426E-03 
  69944.3629     0.42071E-03 
  69976.6250     0.42724E-03 
  70008.8872     0.43385E-03 
  70041.1494     0.44054E-03 
  70073.4115     0.44731E-03 
  70105.6737     0.45416E-03 
  70137.9358     0.46110E-03 
  70170.1980     0.46812E-03 
  70202.4602     0.47522E-03 
  70234.7223     0.48241E-03 
  70266.9845     0.48969E-03 
  70299.2466     0.49705E-03 
  70331.5088     0.50449E-03 
  70363.7710     0.51203E-03 
  70396.0331     0.51965E-03 
  70428.2953     0.52736E-03 
  70460.5574     0.53516E-03 
  70492.8196     0.54305E-03 
  70525.0818     0.55103E-03 
  70557.3439     0.55910E-03 
  70589.6061     0.56726E-03 
  70621.8682     0.57552E-03 
  70654.1304     0.58387E-03 
  70686.3926     0.59231E-03 
  70718.6547     0.60084E-03 
  70750.9169     0.60947E-03 
  70783.1790     0.61820E-03 
  70815.4412     0.62702E-03 
  70847.7034     0.63594E-03 
  70879.9655     0.64495E-03 
  70912.2277     0.65406E-03 
  70944.4898     0.66327E-03 
  70976.7520     0.67258E-03 
  71009.0142     0.68199E-03 
  71041.2763     0.69150E-03 
  71073.5385     0.70111E-03 
  71105.8006     0.71082E-03 
  71138.0628     0.72063E-03 
  71170.3250     0.73054E-03 
  71202.5871     0.74055E-03 
  71234.8493     0.75067E-03 
  71267.1114     0.76089E-03 
  71299.3736     0.77122E-03 
  71331.6358     0.78165E-03 
  71363.8979     0.79218E-03 
  71396.1601     0.80283E-03 
  71428.4222     0.81357E-03 
  71460.6844     0.82443E-03 
  71492.9466     0.83539E-03 
  71525.2087     0.84645E-03 
  71557.4709     0.85763E-03 
  71589.7330     0.86891E-03 
  71621.9952     0.88031E-03 
  71654.2574     0.89181E-03 
  71686.5195     0.90342E-03 
  71718.7817     0.91514E-03 
  71751.0438     0.92698E-03 
  71783.3060     0.93892E-03 
  71815.5682     0.95098E-03 
  71847.8303     0.96314E-03 
  71880.0925     0.97542E-03 
  71912.3546     0.98781E-03 
  71944.6168     0.10003E-02 
  71976.8790     0.10129E-02 
  72009.1411     0.10257E-02 
  72041.4033     0.10385E-02 
  72073.6654     0.10515E-02 
  72105.9276     0.10645E-02 
  72138.1898     0.10777E-02 
  72170.4519     0.10910E-02 
  72202.7141     0.11044E-02 
  72234.9762     0.11180E-02 
  72267.2384     0.11316E-02 
  72299.5006     0.11454E-02 
  72331.7627     0.11593E-02 
  72364.0249     0.11733E-02 
  72396.2870     0.11874E-02 
  72428.5492     0.12016E-02 
  72460.8114     0.12160E-02 
  72493.0735     0.12304E-02 
  72525.3357     0.12450E-02 
  72557.5978     0.12597E-02 
  72589.8600     0.12745E-02 
