  32262.1600     0.25744E-04 
  32294.4222     0.26034E-04 
  32326.6843     0.26326E-04 
  32358.9465     0.26620E-04 
  32391.2086     0.26916E-04 
  32423.4708     0.27214E-04 
  32455.7330     0.27515E-04 
  32487.9951     0.27817E-04 
  32520.2573     0.28121E-04 
  32552.5194     0.28428E-04 
  32584.7816     0.28737E-04 
  32617.0438     0.29047E-04 
  32649.3059     0.29360E-04 
  32681.5681     0.29675E-04 
  32713.8302     0.29992E-04 
  32746.0924     0.30311E-04 
  32778.3546     0.30632E-04 
  32810.6167     0.30956E-04 
  32842.8789     0.31281E-04 
  32875.1410     0.31608E-04 
  32907.4032     0.31937E-04 
  32939.6654     0.32269E-04 
  32971.9275     0.32602E-04 
  33004.1897     0.32938E-04 
  33036.4518     0.33275E-04 
  33068.7140     0.33615E-04 
  33100.9762     0.33956E-04 
  33133.2383     0.34300E-04 
  33165.5005     0.34645E-04 
  33197.7626     0.34992E-04 
  33230.0248     0.35342E-04 
  33262.2870     0.35693E-04 
  33294.5491     0.36047E-04 
  33326.8113     0.36402E-04 
  33359.0734     0.36759E-04 
  33391.3356     0.37119E-04 
  33423.5978     0.37480E-04 
  33455.8599     0.37843E-04 
  33488.1221     0.38208E-04 
  33520.3842     0.38575E-04 
  33552.6464     0.38944E-04 
  33584.9086     0.39314E-04 
  33617.1707     0.39687E-04 
  33649.4329     0.40061E-04 
  33681.6950     0.40438E-04 
  33713.9572     0.40816E-04 
  33746.2194     0.41196E-04 
  33778.4815     0.41578E-04 
  33810.7437     0.41961E-04 
  33843.0058     0.42346E-04 
  33875.2680     0.42734E-04 
  33907.5302     0.43122E-04 
  33939.7923     0.43513E-04 
  33972.0545     0.43905E-04 
  34004.3166     0.44300E-04 
  34036.5788     0.44695E-04 
  34068.8410     0.45093E-04 
  34101.1031     0.45492E-04 
  34133.3653     0.45893E-04 
  34165.6274     0.46295E-04 
  34197.8896     0.46699E-04 
  34230.1518     0.47105E-04 
  34262.4139     0.47512E-04 
  34294.6761     0.47921E-04 
  34326.9382     0.48332E-04 
  34359.2004     0.48744E-04 
  34391.4626     0.49157E-04 
  34423.7247     0.49573E-04 
  34455.9869     0.49989E-04 
  34488.2490     0.50407E-04 
  34520.5112     0.50827E-04 
  34552.7734     0.51248E-04 
  34585.0355     0.51670E-04 
  34617.2977     0.52094E-04 
  34649.5598     0.52519E-04 
  34681.8220     0.52946E-04 
  34714.0842     0.53374E-04 
  34746.3463     0.53803E-04 
  34778.6085     0.54234E-04 
  34810.8706     0.54665E-04 
  34843.1328     0.55099E-04 
  34875.3950     0.55533E-04 
  34907.6571     0.55969E-04 
  34939.9193     0.56405E-04 
  34972.1814     0.56844E-04 
  35004.4436     0.57283E-04 
  35036.7058     0.57723E-04 
  35068.9679     0.58165E-04 
  35101.2301     0.58607E-04 
  35133.4922     0.59051E-04 
  35165.7544     0.59495E-04 
  35198.0166     0.59941E-04 
  35230.2787     0.60388E-04 
  35262.5409     0.60836E-04 
  35294.8030     0.61284E-04 
  35327.0652     0.61734E-04 
  35359.3274     0.62185E-04 
  35391.5895     0.62636E-04 
  35423.8517     0.63088E-04 
  35456.1138     0.63541E-04 
  35488.3760     0.63995E-04 
  35520.6382     0.64450E-04 
  35552.9003     0.64906E-04 
  35585.1625     0.65362E-04 
  35617.4246     0.65819E-04 
  35649.6868     0.66277E-04 
  35681.9490     0.66735E-04 
  35714.2111     0.67194E-04 
  35746.4733     0.67654E-04 
  35778.7354     0.68114E-04 
  35810.9976     0.68575E-04 
  35843.2598     0.69036E-04 
  35875.5219     0.69498E-04 
  35907.7841     0.69960E-04 
  35940.0462     0.70423E-04 
  35972.3084     0.70886E-04 
  36004.5706     0.71350E-04 
  36036.8327     0.71814E-04 
  36069.0949     0.72278E-04 
  36101.3570     0.72743E-04 
  36133.6192     0.73208E-04 
  36165.8814     0.73673E-04 
  36198.1435     0.74139E-04 
  36230.4057     0.74604E-04 
  36262.6678     0.75070E-04 
  36294.9300     0.75536E-04 
  36327.1922     0.76003E-04 
  36359.4543     0.76469E-04 
  36391.7165     0.76935E-04 
  36423.9786     0.77401E-04 
  36456.2408     0.77868E-04 
  36488.5030     0.78334E-04 
  36520.7651     0.78801E-04 
  36553.0273     0.79267E-04 
  36585.2894     0.79733E-04 
  36617.5516     0.80199E-04 
  36649.8138     0.80665E-04 
  36682.0759     0.81130E-04 
  36714.3381     0.81596E-04 
  36746.6002     0.82061E-04 
  36778.8624     0.82526E-04 
  36811.1246     0.82991E-04 
  36843.3867     0.83455E-04 
  36875.6489     0.83919E-04 
  36907.9110     0.84382E-04 
  36940.1732     0.84845E-04 
  36972.4354     0.85308E-04 
  37004.6975     0.85770E-04 
  37036.9597     0.86231E-04 
  37069.2218     0.86693E-04 
  37101.4840     0.87153E-04 
  37133.7462     0.87613E-04 
  37166.0083     0.88072E-04 
  37198.2705     0.88531E-04 
  37230.5326     0.88988E-04 
  37262.7948     0.89446E-04 
  37295.0570     0.89902E-04 
  37327.3191     0.90358E-04 
  37359.5813     0.90812E-04 
  37391.8434     0.91266E-04 
  37424.1056     0.91719E-04 
  37456.3678     0.92171E-04 
  37488.6299     0.92623E-04 
  37520.8921     0.93073E-04 
  37553.1542     0.93522E-04 
  37585.4164     0.93970E-04 
  37617.6786     0.94417E-04 
  37649.9407     0.94863E-04 
  37682.2029     0.95308E-04 
  37714.4650     0.95752E-04 
  37746.7272     0.96195E-04 
  37778.9894     0.96636E-04 
  37811.2515     0.97076E-04 
  37843.5137     0.97515E-04 
  37875.7758     0.97953E-04 
  37908.0380     0.98389E-04 
  37940.3002     0.98824E-04 
  37972.5623     0.99258E-04 
  38004.8245     0.99690E-04 
  38037.0866     0.10012E-03 
  38069.3488     0.10055E-03 
  38101.6110     0.10098E-03 
  38133.8731     0.10140E-03 
  38166.1353     0.10183E-03 
  38198.3974     0.10225E-03 
  38230.6596     0.10267E-03 
  38262.9218     0.10309E-03 
  38295.1839     0.10351E-03 
  38327.4461     0.10393E-03 
  38359.7082     0.10434E-03 
  38391.9704     0.10476E-03 
  38424.2326     0.10517E-03 
  38456.4947     0.10558E-03 
  38488.7569     0.10598E-03 
  38521.0190     0.10639E-03 
  38553.2812     0.10679E-03 
  38585.5434     0.10720E-03 
  38617.8055     0.10760E-03 
  38650.0677     0.10799E-03 
  38682.3298     0.10839E-03 
  38714.5920     0.10878E-03 
  38746.8542     0.10918E-03 
  38779.1163     0.10957E-03 
  38811.3785     0.10995E-03 
  38843.6406     0.11034E-03 
  38875.9028     0.11072E-03 
  38908.1650     0.11110E-03 
  38940.4271     0.11148E-03 
  38972.6893     0.11186E-03 
  39004.9514     0.11223E-03 
  39037.2136     0.11261E-03 
  39069.4758     0.11298E-03 
  39101.7379     0.11334E-03 
  39134.0001     0.11371E-03 
  39166.2622     0.11407E-03 
  39198.5244     0.11443E-03 
  39230.7866     0.11479E-03 
  39263.0487     0.11515E-03 
  39295.3109     0.11550E-03 
  39327.5730     0.11585E-03 
  39359.8352     0.11620E-03 
  39392.0974     0.11654E-03 
  39424.3595     0.11689E-03 
  39456.6217     0.11723E-03 
  39488.8838     0.11757E-03 
  39521.1460     0.11790E-03 
  39553.4082     0.11823E-03 
  39585.6703     0.11856E-03 
  39617.9325     0.11889E-03 
  39650.1946     0.11922E-03 
  39682.4568     0.11954E-03 
  39714.7190     0.11986E-03 
  39746.9811     0.12017E-03 
  39779.2433     0.12049E-03 
  39811.5054     0.12080E-03 
  39843.7676     0.12111E-03 
  39876.0298     0.12141E-03 
  39908.2919     0.12171E-03 
  39940.5541     0.12201E-03 
  39972.8162     0.12231E-03 
  40005.0784     0.12260E-03 
  40037.3406     0.12289E-03 
  40069.6027     0.12318E-03 
  40101.8649     0.12346E-03 
  40134.1270     0.12375E-03 
  40166.3892     0.12403E-03 
  40198.6514     0.12430E-03 
  40230.9135     0.12457E-03 
  40263.1757     0.12484E-03 
  40295.4378     0.12511E-03 
  40327.7000     0.12537E-03 
  40359.9622     0.12563E-03 
  40392.2243     0.12589E-03 
  40424.4865     0.12614E-03 
  40456.7486     0.12639E-03 
  40489.0108     0.12664E-03 
  40521.2730     0.12689E-03 
  40553.5351     0.12713E-03 
  40585.7973     0.12736E-03 
  40618.0594     0.12760E-03 
  40650.3216     0.12783E-03 
  40682.5838     0.12806E-03 
  40714.8459     0.12828E-03 
  40747.1081     0.12851E-03 
  40779.3702     0.12872E-03 
  40811.6324     0.12894E-03 
  40843.8946     0.12915E-03 
  40876.1567     0.12936E-03 
  40908.4189     0.12956E-03 
  40940.6810     0.12977E-03 
  40972.9432     0.12997E-03 
  41005.2054     0.13016E-03 
  41037.4675     0.13035E-03 
  41069.7297     0.13054E-03 
  41101.9918     0.13073E-03 
  41134.2540     0.13091E-03 
  41166.5162     0.13109E-03 
  41198.7783     0.13126E-03 
  41231.0405     0.13143E-03 
  41263.3026     0.13160E-03 
  41295.5648     0.13176E-03 
  41327.8270     0.13192E-03 
  41360.0891     0.13208E-03 
  41392.3513     0.13224E-03 
  41424.6134     0.13239E-03 
  41456.8756     0.13253E-03 
  41489.1378     0.13268E-03 
  41521.3999     0.13282E-03 
  41553.6621     0.13295E-03 
  41585.9242     0.13309E-03 
  41618.1864     0.13322E-03 
  41650.4486     0.13334E-03 
  41682.7107     0.13347E-03 
  41714.9729     0.13359E-03 
  41747.2350     0.13370E-03 
  41779.4972     0.13381E-03 
  41811.7594     0.13392E-03 
  41844.0215     0.13403E-03 
  41876.2837     0.13413E-03 
  41908.5458     0.13423E-03 
  41940.8080     0.13432E-03 
  41973.0702     0.13441E-03 
  42005.3323     0.13450E-03 
  42037.5945     0.13458E-03 
  42069.8566     0.13467E-03 
  42102.1188     0.13474E-03 
  42134.3810     0.13482E-03 
  42166.6431     0.13489E-03 
  42198.9053     0.13495E-03 
  42231.1674     0.13501E-03 
  42263.4296     0.13507E-03 
  42295.6918     0.13513E-03 
  42327.9539     0.13518E-03 
  42360.2161     0.13523E-03 
  42392.4782     0.13528E-03 
  42424.7404     0.13532E-03 
  42457.0026     0.13536E-03 
  42489.2647     0.13539E-03 
  42521.5269     0.13542E-03 
  42553.7890     0.13545E-03 
  42586.0512     0.13547E-03 
  42618.3134     0.13549E-03 
  42650.5755     0.13551E-03 
  42682.8377     0.13553E-03 
  42715.0998     0.13554E-03 
  42747.3620     0.13554E-03 
  42779.6242     0.13555E-03 
  42811.8863     0.13555E-03 
  42844.1485     0.13554E-03 
  42876.4106     0.13554E-03 
  42908.6728     0.13552E-03 
  42940.9350     0.13551E-03 
  42973.1971     0.13549E-03 
  43005.4593     0.13547E-03 
  43037.7214     0.13545E-03 
  43069.9836     0.13542E-03 
  43102.2458     0.13539E-03 
  43134.5079     0.13535E-03 
  43166.7701     0.13532E-03 
  43199.0322     0.13528E-03 
  43231.2944     0.13523E-03 
  43263.5566     0.13518E-03 
  43295.8187     0.13513E-03 
  43328.0809     0.13508E-03 
  43360.3430     0.13502E-03 
  43392.6052     0.13496E-03 
  43424.8674     0.13489E-03 
  43457.1295     0.13483E-03 
  43489.3917     0.13475E-03 
  43521.6538     0.13468E-03 
  43553.9160     0.13460E-03 
  43586.1782     0.13452E-03 
  43618.4403     0.13444E-03 
  43650.7025     0.13435E-03 
  43682.9646     0.13426E-03 
  43715.2268     0.13416E-03 
  43747.4890     0.13407E-03 
  43779.7511     0.13397E-03 
  43812.0133     0.13386E-03 
  43844.2754     0.13376E-03 
  43876.5376     0.13365E-03 
  43908.7998     0.13353E-03 
  43941.0619     0.13342E-03 
  43973.3241     0.13330E-03 
  44005.5862     0.13317E-03 
  44037.8484     0.13305E-03 
  44070.1106     0.13292E-03 
  44102.3727     0.13279E-03 
  44134.6349     0.13265E-03 
  44166.8970     0.13252E-03 
  44199.1592     0.13238E-03 
  44231.4214     0.13223E-03 
  44263.6835     0.13209E-03 
  44295.9457     0.13194E-03 
  44328.2078     0.13178E-03 
  44360.4700     0.13163E-03 
  44392.7322     0.13147E-03 
  44424.9943     0.13131E-03 
  44457.2565     0.13114E-03 
  44489.5186     0.13098E-03 
  44521.7808     0.13081E-03 
  44554.0430     0.13063E-03 
  44586.3051     0.13046E-03 
  44618.5673     0.13028E-03 
  44650.8294     0.13010E-03 
  44683.0916     0.12991E-03 
  44715.3538     0.12973E-03 
  44747.6159     0.12954E-03 
  44779.8781     0.12935E-03 
  44812.1402     0.12915E-03 
  44844.4024     0.12895E-03 
  44876.6646     0.12875E-03 
  44908.9267     0.12855E-03 
  44941.1889     0.12834E-03 
  44973.4510     0.12814E-03 
  45005.7132     0.12793E-03 
  45037.9754     0.12771E-03 
  45070.2375     0.12750E-03 
  45102.4997     0.12728E-03 
  45134.7618     0.12706E-03 
  45167.0240     0.12683E-03 
  45199.2862     0.12661E-03 
  45231.5483     0.12638E-03 
  45263.8105     0.12615E-03 
  45296.0726     0.12591E-03 
  45328.3348     0.12568E-03 
  45360.5970     0.12544E-03 
  45392.8591     0.12520E-03 
  45425.1213     0.12496E-03 
  45457.3834     0.12471E-03 
  45489.6456     0.12446E-03 
  45521.9078     0.12421E-03 
  45554.1699     0.12396E-03 
  45586.4321     0.12371E-03 
  45618.6942     0.12345E-03 
  45650.9564     0.12319E-03 
  45683.2186     0.12293E-03 
  45715.4807     0.12267E-03 
  45747.7429     0.12240E-03 
  45780.0050     0.12213E-03 
  45812.2672     0.12186E-03 
  45844.5294     0.12159E-03 
  45876.7915     0.12132E-03 
  45909.0537     0.12104E-03 
  45941.3158     0.12076E-03 
  45973.5780     0.12048E-03 
  46005.8402     0.12020E-03 
  46038.1023     0.11992E-03 
  46070.3645     0.11963E-03 
  46102.6266     0.11934E-03 
  46134.8888     0.11906E-03 
  46167.1510     0.11876E-03 
  46199.4131     0.11847E-03 
  46231.6753     0.11817E-03 
  46263.9374     0.11788E-03 
  46296.1996     0.11758E-03 
  46328.4618     0.11728E-03 
  46360.7239     0.11698E-03 
  46392.9861     0.11667E-03 
  46425.2482     0.11637E-03 
  46457.5104     0.11606E-03 
  46489.7726     0.11575E-03 
  46522.0347     0.11544E-03 
  46554.2969     0.11512E-03 
  46586.5590     0.11481E-03 
  46618.8212     0.11449E-03 
  46651.0834     0.11418E-03 
  46683.3455     0.11386E-03 
  46715.6077     0.11354E-03 
  46747.8698     0.11321E-03 
  46780.1320     0.11289E-03 
  46812.3942     0.11257E-03 
  46844.6563     0.11224E-03 
  46876.9185     0.11191E-03 
  46909.1806     0.11158E-03 
  46941.4428     0.11125E-03 
  46973.7050     0.11092E-03 
  47005.9671     0.11059E-03 
  47038.2293     0.11025E-03 
  47070.4914     0.10992E-03 
  47102.7536     0.10958E-03 
  47135.0158     0.10924E-03 
  47167.2779     0.10890E-03 
  47199.5401     0.10856E-03 
  47231.8022     0.10822E-03 
  47264.0644     0.10787E-03 
  47296.3266     0.10753E-03 
  47328.5887     0.10718E-03 
  47360.8509     0.10683E-03 
  47393.1130     0.10649E-03 
  47425.3752     0.10614E-03 
  47457.6374     0.10579E-03 
  47489.8995     0.10544E-03 
  47522.1617     0.10508E-03 
  47554.4238     0.10473E-03 
  47586.6860     0.10438E-03 
  47618.9482     0.10402E-03 
  47651.2103     0.10366E-03 
  47683.4725     0.10331E-03 
  47715.7346     0.10295E-03 
  47747.9968     0.10259E-03 
  47780.2590     0.10223E-03 
  47812.5211     0.10187E-03 
  47844.7833     0.10151E-03 
  47877.0454     0.10115E-03 
  47909.3076     0.10078E-03 
  47941.5698     0.10042E-03 
  47973.8319     0.10006E-03 
  48006.0941     0.99691E-04 
  48038.3562     0.99325E-04 
  48070.6184     0.98959E-04 
  48102.8806     0.98591E-04 
  48135.1427     0.98223E-04 
  48167.4049     0.97855E-04 
  48199.6670     0.97486E-04 
  48231.9292     0.97116E-04 
  48264.1914     0.96746E-04 
  48296.4535     0.96375E-04 
  48328.7157     0.96004E-04 
  48360.9778     0.95632E-04 
  48393.2400     0.95259E-04 
  48425.5022     0.94887E-04 
  48457.7643     0.94513E-04 
  48490.0265     0.94140E-04 
  48522.2886     0.93765E-04 
  48554.5508     0.93391E-04 
  48586.8130     0.93016E-04 
  48619.0751     0.92640E-04 
  48651.3373     0.92265E-04 
  48683.5994     0.91889E-04 
  48715.8616     0.91512E-04 
  48748.1238     0.91136E-04 
  48780.3859     0.90759E-04 
  48812.6481     0.90382E-04 
  48844.9102     0.90004E-04 
  48877.1724     0.89627E-04 
  48909.4346     0.89249E-04 
  48941.6967     0.88871E-04 
  48973.9589     0.88492E-04 
  49006.2210     0.88114E-04 
  49038.4832     0.87735E-04 
  49070.7454     0.87357E-04 
  49103.0075     0.86978E-04 
  49135.2697     0.86599E-04 
  49167.5318     0.86220E-04 
  49199.7940     0.85841E-04 
  49232.0562     0.85462E-04 
  49264.3183     0.85083E-04 
  49296.5805     0.84704E-04 
  49328.8426     0.84325E-04 
  49361.1048     0.83946E-04 
  49393.3670     0.83567E-04 
  49425.6291     0.83188E-04 
  49457.8913     0.82809E-04 
  49490.1534     0.82430E-04 
  49522.4156     0.82051E-04 
  49554.6778     0.81672E-04 
  49586.9399     0.81294E-04 
  49619.2021     0.80915E-04 
  49651.4642     0.80537E-04 
  49683.7264     0.80159E-04 
  49715.9886     0.79781E-04 
  49748.2507     0.79403E-04 
  49780.5129     0.79026E-04 
  49812.7750     0.78648E-04 
  49845.0372     0.78271E-04 
  49877.2994     0.77895E-04 
  49909.5615     0.77518E-04 
  49941.8237     0.77142E-04 
  49974.0858     0.76766E-04 
  50006.3480     0.76390E-04 
  50038.6102     0.76015E-04 
  50070.8723     0.75640E-04 
  50103.1345     0.75265E-04 
  50135.3966     0.74891E-04 
  50167.6588     0.74517E-04 
  50199.9210     0.74143E-04 
  50232.1831     0.73770E-04 
  50264.4453     0.73398E-04 
  50296.7074     0.73025E-04 
  50328.9696     0.72653E-04 
  50361.2318     0.72282E-04 
  50393.4939     0.71911E-04 
  50425.7561     0.71541E-04 
  50458.0182     0.71171E-04 
  50490.2804     0.70801E-04 
  50522.5426     0.70432E-04 
  50554.8047     0.70064E-04 
  50587.0669     0.69696E-04 
  50619.3290     0.69328E-04 
  50651.5912     0.68961E-04 
  50683.8534     0.68595E-04 
  50716.1155     0.68229E-04 
  50748.3777     0.67864E-04 
  50780.6398     0.67500E-04 
  50812.9020     0.67136E-04 
  50845.1642     0.66772E-04 
  50877.4263     0.66410E-04 
  50909.6885     0.66048E-04 
  50941.9506     0.65686E-04 
  50974.2128     0.65326E-04 
  51006.4750     0.64965E-04 
  51038.7371     0.64606E-04 
  51070.9993     0.64247E-04 
  51103.2614     0.63889E-04 
  51135.5236     0.63532E-04 
  51167.7858     0.63175E-04 
  51200.0479     0.62820E-04 
  51232.3101     0.62464E-04 
  51264.5722     0.62110E-04 
  51296.8344     0.61756E-04 
  51329.0966     0.61404E-04 
  51361.3587     0.61051E-04 
  51393.6209     0.60700E-04 
  51425.8830     0.60350E-04 
  51458.1452     0.60000E-04 
  51490.4074     0.59651E-04 
  51522.6695     0.59303E-04 
  51554.9317     0.58955E-04 
  51587.1938     0.58609E-04 
  51619.4560     0.58263E-04 
  51651.7182     0.57918E-04 
  51683.9803     0.57574E-04 
  51716.2425     0.57231E-04 
  51748.5046     0.56889E-04 
  51780.7668     0.56548E-04 
  51813.0290     0.56207E-04 
  51845.2911     0.55868E-04 
  51877.5533     0.55529E-04 
  51909.8154     0.55191E-04 
  51942.0776     0.54854E-04 
  51974.3398     0.54518E-04 
  52006.6019     0.54183E-04 
  52038.8641     0.53849E-04 
  52071.1262     0.53516E-04 
  52103.3884     0.53184E-04 
  52135.6506     0.52852E-04 
  52167.9127     0.52522E-04 
  52200.1749     0.52192E-04 
  52232.4370     0.51864E-04 
  52264.6992     0.51537E-04 
  52296.9614     0.51210E-04 
  52329.2235     0.50884E-04 
  52361.4857     0.50560E-04 
  52393.7478     0.50236E-04 
  52426.0100     0.49914E-04 
  52458.2722     0.49592E-04 
  52490.5343     0.49272E-04 
  52522.7965     0.48952E-04 
  52555.0586     0.48634E-04 
  52587.3208     0.48316E-04 
  52619.5830     0.48000E-04 
  52651.8451     0.47684E-04 
  52684.1073     0.47370E-04 
  52716.3694     0.47056E-04 
  52748.6316     0.46744E-04 
  52780.8938     0.46433E-04 
  52813.1559     0.46122E-04 
  52845.4181     0.45813E-04 
  52877.6802     0.45505E-04 
  52909.9424     0.45198E-04 
  52942.2046     0.44892E-04 
  52974.4667     0.44587E-04 
  53006.7289     0.44283E-04 
  53038.9910     0.43980E-04 
  53071.2532     0.43679E-04 
  53103.5154     0.43378E-04 
  53135.7775     0.43078E-04 
  53168.0397     0.42780E-04 
  53200.3018     0.42483E-04 
  53232.5640     0.42186E-04 
  53264.8262     0.41891E-04 
  53297.0883     0.41597E-04 
  53329.3505     0.41304E-04 
  53361.6126     0.41012E-04 
  53393.8748     0.40721E-04 
  53426.1370     0.40432E-04 
  53458.3991     0.40143E-04 
  53490.6613     0.39856E-04 
  53522.9234     0.39569E-04 
  53555.1856     0.39284E-04 
  53587.4478     0.39000E-04 
  53619.7099     0.38717E-04 
  53651.9721     0.38435E-04 
  53684.2342     0.38155E-04 
  53716.4964     0.37875E-04 
  53748.7586     0.37596E-04 
  53781.0207     0.37319E-04 
  53813.2829     0.37043E-04 
  53845.5450     0.36768E-04 
  53877.8072     0.36494E-04 
  53910.0694     0.36221E-04 
  53942.3315     0.35949E-04 
  53974.5937     0.35679E-04 
  54006.8558     0.35410E-04 
  54039.1180     0.35141E-04 
  54071.3802     0.34874E-04 
  54103.6423     0.34608E-04 
  54135.9045     0.34343E-04 
  54168.1666     0.34080E-04 
  54200.4288     0.33817E-04 
  54232.6910     0.33556E-04 
  54264.9531     0.33296E-04 
  54297.2153     0.33037E-04 
  54329.4774     0.32779E-04 
  54361.7396     0.32522E-04 
  54394.0018     0.32266E-04 
  54426.2639     0.32012E-04 
  54458.5261     0.31758E-04 
  54490.7882     0.31506E-04 
  54523.0504     0.31255E-04 
  54555.3126     0.31005E-04 
  54587.5747     0.30756E-04 
  54619.8369     0.30509E-04 
  54652.0990     0.30262E-04 
  54684.3612     0.30017E-04 
  54716.6234     0.29773E-04 
  54748.8855     0.29530E-04 
  54781.1477     0.29288E-04 
  54813.4098     0.29047E-04 
  54845.6720     0.28807E-04 
  54877.9342     0.28569E-04 
  54910.1963     0.28331E-04 
  54942.4585     0.28095E-04 
  54974.7206     0.27860E-04 
  55006.9828     0.27626E-04 
  55039.2450     0.27393E-04 
  55071.5071     0.27162E-04 
  55103.7693     0.26931E-04 
  55136.0314     0.26702E-04 
  55168.2936     0.26474E-04 
  55200.5558     0.26247E-04 
  55232.8179     0.26021E-04 
  55265.0801     0.25796E-04 
  55297.3422     0.25572E-04 
  55329.6044     0.25350E-04 
  55361.8666     0.25128E-04 
  55394.1287     0.24908E-04 
  55426.3909     0.24689E-04 
  55458.6530     0.24471E-04 
  55490.9152     0.24254E-04 
  55523.1774     0.24038E-04 
  55555.4395     0.23823E-04 
  55587.7017     0.23610E-04 
  55619.9638     0.23397E-04 
  55652.2260     0.23186E-04 
  55684.4882     0.22975E-04 
  55716.7503     0.22766E-04 
  55749.0125     0.22558E-04 
  55781.2746     0.22351E-04 
  55813.5368     0.22146E-04 
  55845.7990     0.21941E-04 
  55878.0611     0.21737E-04 
  55910.3233     0.21535E-04 
  55942.5854     0.21333E-04 
  55974.8476     0.21133E-04 
  56007.1098     0.20934E-04 
  56039.3719     0.20736E-04 
  56071.6341     0.20539E-04 
  56103.8962     0.20343E-04 
  56136.1584     0.20148E-04 
  56168.4206     0.19954E-04 
  56200.6827     0.19762E-04 
  56232.9449     0.19570E-04 
  56265.2070     0.19379E-04 
  56297.4692     0.19190E-04 
  56329.7314     0.19002E-04 
  56361.9935     0.18814E-04 
  56394.2557     0.18628E-04 
  56426.5178     0.18443E-04 
  56458.7800     0.18259E-04 
  56491.0422     0.18076E-04 
  56523.3043     0.17894E-04 
  56555.5665     0.17713E-04 
  56587.8286     0.17533E-04 
  56620.0908     0.17354E-04 
  56652.3530     0.17176E-04 
  56684.6151     0.17000E-04 
  56716.8773     0.16824E-04 
  56749.1394     0.16650E-04 
  56781.4016     0.16476E-04 
  56813.6638     0.16303E-04 
  56845.9259     0.16132E-04 
  56878.1881     0.15961E-04 
  56910.4502     0.15792E-04 
  56942.7124     0.15624E-04 
  56974.9746     0.15456E-04 
  57007.2367     0.15290E-04 
  57039.4989     0.15125E-04 
  57071.7610     0.14960E-04 
  57104.0232     0.14797E-04 
  57136.2854     0.14635E-04 
  57168.5475     0.14473E-04 
  57200.8097     0.14313E-04 
  57233.0718     0.14154E-04 
  57265.3340     0.13996E-04 
  57297.5962     0.13838E-04 
  57329.8583     0.13682E-04 
  57362.1205     0.13527E-04 
  57394.3826     0.13373E-04 
  57426.6448     0.13219E-04 
  57458.9070     0.13067E-04 
  57491.1691     0.12916E-04 
  57523.4313     0.12765E-04 
  57555.6934     0.12616E-04 
  57587.9556     0.12468E-04 
  57620.2178     0.12320E-04 
  57652.4799     0.12174E-04 
  57684.7421     0.12029E-04 
  57717.0042     0.11884E-04 
  57749.2664     0.11741E-04 
  57781.5286     0.11598E-04 
  57813.7907     0.11456E-04 
  57846.0529     0.11316E-04 
  57878.3150     0.11176E-04 
  57910.5772     0.11038E-04 
  57942.8394     0.10900E-04 
  57975.1015     0.10763E-04 
  58007.3637     0.10627E-04 
  58039.6258     0.10492E-04 
  58071.8880     0.10358E-04 
  58104.1502     0.10225E-04 
  58136.4123     0.10093E-04 
  58168.6745     0.99621E-05 
  58200.9366     0.98319E-05 
  58233.1988     0.97026E-05 
  58265.4610     0.95742E-05 
  58297.7231     0.94468E-05 
  58329.9853     0.93203E-05 
  58362.2474     0.91947E-05 
  58394.5096     0.90701E-05 
  58426.7718     0.89464E-05 
  58459.0339     0.88235E-05 
  58491.2961     0.87016E-05 
  58523.5582     0.85806E-05 
  58555.8204     0.84606E-05 
  58588.0826     0.83414E-05 
  58620.3447     0.82231E-05 
  58652.6069     0.81058E-05 
  58684.8690     0.79893E-05 
  58717.1312     0.78738E-05 
  58749.3934     0.77591E-05 
  58781.6555     0.76454E-05 
  58813.9177     0.75325E-05 
  58846.1798     0.74205E-05 
  58878.4420     0.73095E-05 
  58910.7042     0.71993E-05 
  58942.9663     0.70900E-05 
  58975.2285     0.69816E-05 
  59007.4906     0.68741E-05 
  59039.7528     0.67674E-05 
  59072.0150     0.66617E-05 
  59104.2771     0.65568E-05 
  59136.5393     0.64529E-05 
  59168.8014     0.63498E-05 
  59201.0636     0.62475E-05 
  59233.3258     0.61462E-05 
  59265.5879     0.60457E-05 
  59297.8501     0.59461E-05 
  59330.1122     0.58474E-05 
  59362.3744     0.57496E-05 
  59394.6366     0.56526E-05 
  59426.8987     0.55565E-05 
  59459.1609     0.54613E-05 
  59491.4230     0.53669E-05 
  59523.6852     0.52735E-05 
  59555.9474     0.51808E-05 
  59588.2095     0.50891E-05 
  59620.4717     0.49982E-05 
  59652.7338     0.49082E-05 
  59684.9960     0.48191E-05 
  59717.2582     0.47308E-05 
  59749.5203     0.46434E-05 
  59781.7825     0.45569E-05 
  59814.0446     0.44712E-05 
  59846.3068     0.43864E-05 
  59878.5690     0.43025E-05 
  59910.8311     0.42194E-05 
  59943.0933     0.41373E-05 
  59975.3554     0.40559E-05 
  60007.6176     0.39755E-05 
  60039.8798     0.38959E-05 
  60072.1419     0.38172E-05 
  60104.4041     0.37394E-05 
  60136.6662     0.36624E-05 
  60168.9284     0.35863E-05 
  60201.1906     0.35111E-05 
  60233.4527     0.34368E-05 
  60265.7149     0.33633E-05 
  60297.9770     0.32907E-05 
  60330.2392     0.32190E-05 
  60362.5014     0.31482E-05 
  60394.7635     0.30783E-05 
  60427.0257     0.30092E-05 
  60459.2878     0.29410E-05 
  60491.5500     0.28738E-05 
  60523.8122     0.28074E-05 
  60556.0743     0.27419E-05 
  60588.3365     0.26773E-05 
  60620.5986     0.26136E-05 
  60652.8608     0.25508E-05 
  60685.1230     0.24889E-05 
  60717.3851     0.24279E-05 
  60749.6473     0.23678E-05 
  60781.9094     0.23087E-05 
  60814.1716     0.22504E-05 
  60846.4338     0.21931E-05 
  60878.6959     0.21367E-05 
  60910.9581     0.20812E-05 
  60943.2202     0.20266E-05 
  60975.4824     0.19730E-05 
  61007.7446     0.19203E-05 
  61040.0067     0.18686E-05 
  61072.2689     0.18178E-05 
  61104.5310     0.17680E-05 
  61136.7932     0.17191E-05 
  61169.0554     0.16712E-05 
  61201.3175     0.16242E-05 
  61233.5797     0.15782E-05 
  61265.8418     0.15332E-05 
  61298.1040     0.14892E-05 
  61330.3662     0.14461E-05 
  61362.6283     0.14041E-05 
  61394.8905     0.13630E-05 
  61427.1526     0.13230E-05 
  61459.4148     0.12840E-05 
  61491.6770     0.12460E-05 
  61523.9391     0.12090E-05 
  61556.2013     0.11730E-05 
  61588.4634     0.11381E-05 
  61620.7256     0.11043E-05 
  61652.9878     0.10715E-05 
  61685.2499     0.10397E-05 
  61717.5121     0.10091E-05 
  61749.7742     0.97949E-06 
  61782.0364     0.95100E-06 
  61814.2986     0.92361E-06 
  61846.5607     0.89732E-06 
  61878.8229     0.87215E-06 
  61911.0850     0.84811E-06 
  61943.3472     0.82521E-06 
  61975.6094     0.80345E-06 
  62007.8715     0.78285E-06 
  62040.1337     0.76342E-06 
  62072.3958     0.74516E-06 
  62104.6580     0.72810E-06 
  62136.9202     0.71224E-06 
  62169.1823     0.69759E-06 
  62201.4445     0.68416E-06 
  62233.7066     0.67198E-06 
  62265.9688     0.66104E-06 
  62298.2310     0.65137E-06 
  62330.4931     0.64298E-06 
  62362.7553     0.63587E-06 
  62395.0174     0.63007E-06 
  62427.2796     0.62559E-06 
  62459.5418     0.62244E-06 
  62491.8039     0.62064E-06 
  62524.0661     0.62020E-06 
  62556.3282     0.62113E-06 
  62588.5904     0.62347E-06 
  62620.8526     0.62721E-06 
  62653.1147     0.63238E-06 
  62685.3769     0.63899E-06 
  62717.6390     0.64707E-06 
  62749.9012     0.65662E-06 
  62782.1634     0.66767E-06 
  62814.4255     0.68024E-06 
  62846.6877     0.69434E-06 
  62878.9498     0.70999E-06 
  62911.2120     0.72722E-06 
  62943.4742     0.74604E-06 
  62975.7363     0.76647E-06 
  63007.9985     0.78854E-06 
  63040.2606     0.81226E-06 
  63072.5228     0.83767E-06 
  63104.7850     0.86477E-06 
  63137.0471     0.89359E-06 
  63169.3093     0.92416E-06 
  63201.5714     0.95650E-06 
  63233.8336     0.99063E-06 
  63266.0958     0.10266E-05 
  63298.3579     0.10644E-05 
  63330.6201     0.11040E-05 
  63362.8822     0.11456E-05 
  63395.1444     0.11891E-05 
  63427.4066     0.12345E-05 
  63459.6687     0.12819E-05 
  63491.9309     0.13313E-05 
  63524.1930     0.13827E-05 
  63556.4552     0.14362E-05 
  63588.7174     0.14918E-05 
  63620.9795     0.15495E-05 
  63653.2417     0.16094E-05 
  63685.5038     0.16714E-05 
  63717.7660     0.17356E-05 
  63750.0282     0.18021E-05 
  63782.2903     0.18709E-05 
  63814.5525     0.19420E-05 
  63846.8146     0.20155E-05 
  63879.0768     0.20913E-05 
  63911.3390     0.21695E-05 
  63943.6011     0.22502E-05 
  63975.8633     0.23334E-05 
  64008.1254     0.24191E-05 
  64040.3876     0.25074E-05 
  64072.6498     0.25983E-05 
  64104.9119     0.26919E-05 
  64137.1741     0.27881E-05 
  64169.4362     0.28870E-05 
  64201.6984     0.29887E-05 
  64233.9606     0.30933E-05 
  64266.2227     0.32006E-05 
  64298.4849     0.33109E-05 
  64330.7470     0.34241E-05 
  64363.0092     0.35403E-05 
  64395.2714     0.36595E-05 
  64427.5335     0.37819E-05 
  64459.7957     0.39073E-05 
  64492.0578     0.40359E-05 
  64524.3200     0.41677E-05 
  64556.5822     0.43028E-05 
  64588.8443     0.44412E-05 
  64621.1065     0.45830E-05 
  64653.3686     0.47282E-05 
  64685.6308     0.48769E-05 
  64717.8930     0.50292E-05 
  64750.1551     0.51850E-05 
  64782.4173     0.53444E-05 
  64814.6794     0.55076E-05 
  64846.9416     0.56745E-05 
  64879.2038     0.58452E-05 
  64911.4659     0.60198E-05 
  64943.7281     0.61983E-05 
  64975.9902     0.63808E-05 
  65008.2524     0.65674E-05 
  65040.5146     0.67580E-05 
  65072.7767     0.69529E-05 
  65105.0389     0.71520E-05 
  65137.3010     0.73554E-05 
  65169.5632     0.75632E-05 
  65201.8254     0.77754E-05 
  65234.0875     0.79921E-05 
  65266.3497     0.82135E-05 
  65298.6118     0.84394E-05 
  65330.8740     0.86701E-05 
  65363.1362     0.89055E-05 
  65395.3983     0.91459E-05 
  65427.6605     0.93911E-05 
  65459.9226     0.96414E-05 
  65492.1848     0.98968E-05 
  65524.4470     0.10157E-04 
  65556.7091     0.10423E-04 
  65588.9713     0.10694E-04 
  65621.2334     0.10971E-04 
  65653.4956     0.11253E-04 
  65685.7578     0.11540E-04 
  65718.0199     0.11833E-04 
  65750.2821     0.12132E-04 
  65782.5442     0.12437E-04 
  65814.8064     0.12748E-04 
  65847.0686     0.13064E-04 
  65879.3307     0.13387E-04 
  65911.5929     0.13716E-04 
  65943.8550     0.14051E-04 
  65976.1172     0.14393E-04 
  66008.3794     0.14741E-04 
  66040.6415     0.15095E-04 
  66072.9037     0.15456E-04 
  66105.1658     0.15824E-04 
  66137.4280     0.16199E-04 
  66169.6902     0.16580E-04 
  66201.9523     0.16969E-04 
  66234.2145     0.17365E-04 
  66266.4766     0.17768E-04 
  66298.7388     0.18178E-04 
  66331.0010     0.18596E-04 
  66363.2631     0.19021E-04 
  66395.5253     0.19454E-04 
  66427.7874     0.19895E-04 
  66460.0496     0.20344E-04 
  66492.3118     0.20800E-04 
  66524.5739     0.21265E-04 
  66556.8361     0.21738E-04 
  66589.0982     0.22219E-04 
  66621.3604     0.22709E-04 
  66653.6226     0.23207E-04 
  66685.8847     0.23714E-04 
  66718.1469     0.24230E-04 
  66750.4090     0.24754E-04 
  66782.6712     0.25288E-04 
  66814.9334     0.25831E-04 
  66847.1955     0.26383E-04 
  66879.4577     0.26944E-04 
  66911.7198     0.27515E-04 
  66943.9820     0.28096E-04 
  66976.2442     0.28686E-04 
  67008.5063     0.29287E-04 
  67040.7685     0.29897E-04 
  67073.0306     0.30518E-04 
  67105.2928     0.31148E-04 
  67137.5550     0.31790E-04 
  67169.8171     0.32442E-04 
  67202.0793     0.33104E-04 
  67234.3414     0.33778E-04 
  67266.6036     0.34462E-04 
  67298.8658     0.35158E-04 
  67331.1279     0.35865E-04 
  67363.3901     0.36583E-04 
  67395.6522     0.37313E-04 
  67427.9144     0.38054E-04 
  67460.1766     0.38808E-04 
  67492.4387     0.39573E-04 
  67524.7009     0.40350E-04 
  67556.9630     0.41140E-04 
  67589.2252     0.41943E-04 
  67621.4874     0.42758E-04 
  67653.7495     0.43585E-04 
  67686.0117     0.44426E-04 
  67718.2738     0.45279E-04 
  67750.5360     0.46146E-04 
  67782.7982     0.47026E-04 
  67815.0603     0.47920E-04 
  67847.3225     0.48828E-04 
  67879.5846     0.49749E-04 
  67911.8468     0.50684E-04 
  67944.1090     0.51634E-04 
  67976.3711     0.52598E-04 
  68008.6333     0.53576E-04 
  68040.8954     0.54569E-04 
  68073.1576     0.55577E-04 
  68105.4198     0.56600E-04 
  68137.6819     0.57638E-04 
  68169.9441     0.58691E-04 
  68202.2062     0.59760E-04 
  68234.4684     0.60845E-04 
  68266.7306     0.61945E-04 
  68298.9927     0.63062E-04 
  68331.2549     0.64194E-04 
  68363.5170     0.65344E-04 
  68395.7792     0.66509E-04 
  68428.0414     0.67692E-04 
  68460.3035     0.68891E-04 
  68492.5657     0.70107E-04 
  68524.8278     0.71341E-04 
  68557.0900     0.72592E-04 
  68589.3522     0.73861E-04 
  68621.6143     0.75147E-04 
  68653.8765     0.76452E-04 
  68686.1386     0.77774E-04 
  68718.4008     0.79115E-04 
  68750.6630     0.80475E-04 
  68782.9251     0.81853E-04 
  68815.1873     0.83250E-04 
  68847.4494     0.84667E-04 
  68879.7116     0.86102E-04 
  68911.9738     0.87557E-04 
  68944.2359     0.89032E-04 
  68976.4981     0.90526E-04 
  69008.7602     0.92041E-04 
  69041.0224     0.93576E-04 
  69073.2846     0.95131E-04 
  69105.5467     0.96706E-04 
  69137.8089     0.98303E-04 
  69170.0710     0.99920E-04 
  69202.3332     0.10156E-03 
  69234.5954     0.10322E-03 
  69266.8575     0.10490E-03 
  69299.1197     0.10660E-03 
  69331.3818     0.10833E-03 
  69363.6440     0.11008E-03 
  69395.9062     0.11185E-03 
  69428.1683     0.11364E-03 
  69460.4305     0.11545E-03 
  69492.6926     0.11729E-03 
  69524.9548     0.11915E-03 
  69557.2170     0.12103E-03 
  69589.4791     0.12294E-03 
  69621.7413     0.12487E-03 
  69654.0034     0.12683E-03 
  69686.2656     0.12880E-03 
  69718.5278     0.13081E-03 
  69750.7899     0.13283E-03 
  69783.0521     0.13489E-03 
  69815.3142     0.13696E-03 
  69847.5764     0.13906E-03 
  69879.8386     0.14119E-03 
  69912.1007     0.14334E-03 
  69944.3629     0.14552E-03 
  69976.6250     0.14772E-03 
  70008.8872     0.14995E-03 
  70041.1494     0.15221E-03 
  70073.4115     0.15449E-03 
  70105.6737     0.15680E-03 
  70137.9358     0.15913E-03 
  70170.1980     0.16149E-03 
  70202.4602     0.16388E-03 
  70234.7223     0.16629E-03 
  70266.9845     0.16874E-03 
  70299.2466     0.17121E-03 
  70331.5088     0.17370E-03 
  70363.7710     0.17623E-03 
  70396.0331     0.17878E-03 
  70428.2953     0.18136E-03 
  70460.5574     0.18397E-03 
  70492.8196     0.18661E-03 
  70525.0818     0.18928E-03 
  70557.3439     0.19198E-03 
  70589.6061     0.19470E-03 
  70621.8682     0.19746E-03 
  70654.1304     0.20024E-03 
  70686.3926     0.20305E-03 
  70718.6547     0.20590E-03 
  70750.9169     0.20877E-03 
  70783.1790     0.21167E-03 
  70815.4412     0.21460E-03 
  70847.7034     0.21757E-03 
  70879.9655     0.22056E-03 
  70912.2277     0.22359E-03 
  70944.4898     0.22664E-03 
  70976.7520     0.22973E-03 
  71009.0142     0.23284E-03 
  71041.2763     0.23599E-03 
  71073.5385     0.23917E-03 
  71105.8006     0.24238E-03 
  71138.0628     0.24563E-03 
  71170.3250     0.24890E-03 
  71202.5871     0.25221E-03 
  71234.8493     0.25555E-03 
  71267.1114     0.25892E-03 
  71299.3736     0.26232E-03 
  71331.6358     0.26576E-03 
  71363.8979     0.26923E-03 
  71396.1601     0.27273E-03 
  71428.4222     0.27626E-03 
  71460.6844     0.27983E-03 
  71492.9466     0.28343E-03 
  71525.2087     0.28706E-03 
  71557.4709     0.29073E-03 
  71589.7330     0.29443E-03 
  71621.9952     0.29816E-03 
  71654.2574     0.30193E-03 
  71686.5195     0.30573E-03 
  71718.7817     0.30956E-03 
  71751.0438     0.31343E-03 
  71783.3060     0.31733E-03 
  71815.5682     0.32126E-03 
  71847.8303     0.32523E-03 
  71880.0925     0.32924E-03 
  71912.3546     0.33327E-03 
  71944.6168     0.33735E-03 
  71976.8790     0.34145E-03 
  72009.1411     0.34559E-03 
  72041.4033     0.34977E-03 
  72073.6654     0.35398E-03 
  72105.9276     0.35823E-03 
  72138.1898     0.36250E-03 
  72170.4519     0.36682E-03 
  72202.7141     0.37117E-03 
  72234.9762     0.37555E-03 
  72267.2384     0.37997E-03 
  72299.5006     0.38442E-03 
  72331.7627     0.38891E-03 
  72364.0249     0.39344E-03 
  72396.2870     0.39799E-03 
  72428.5492     0.40259E-03 
  72460.8114     0.40721E-03 
  72493.0735     0.41188E-03 
  72525.3357     0.41658E-03 
  72557.5978     0.42131E-03 
  72589.8600     0.42608E-03 
