  32262.1600     0.16052E+03 
  32294.4222     0.16186E+03 
  32326.6843     0.16322E+03 
  32358.9465     0.16458E+03 
  32391.2086     0.16594E+03 
  32423.4708     0.16732E+03 
  32455.7330     0.16870E+03 
  32487.9951     0.17008E+03 
  32520.2573     0.17148E+03 
  32552.5194     0.17288E+03 
  32584.7816     0.17429E+03 
  32617.0438     0.17570E+03 
  32649.3059     0.17712E+03 
  32681.5681     0.17855E+03 
  32713.8302     0.17999E+03 
  32746.0924     0.18143E+03 
  32778.3546     0.18288E+03 
  32810.6167     0.18433E+03 
  32842.8789     0.18579E+03 
  32875.1410     0.18726E+03 
  32907.4032     0.18874E+03 
  32939.6654     0.19022E+03 
  32971.9275     0.19171E+03 
  33004.1897     0.19320E+03 
  33036.4518     0.19471E+03 
  33068.7140     0.19622E+03 
  33100.9762     0.19773E+03 
  33133.2383     0.19925E+03 
  33165.5005     0.20078E+03 
  33197.7626     0.20232E+03 
  33230.0248     0.20386E+03 
  33262.2870     0.20541E+03 
  33294.5491     0.20696E+03 
  33326.8113     0.20852E+03 
  33359.0734     0.21009E+03 
  33391.3356     0.21167E+03 
  33423.5978     0.21325E+03 
  33455.8599     0.21483E+03 
  33488.1221     0.21643E+03 
  33520.3842     0.21803E+03 
  33552.6464     0.21963E+03 
  33584.9086     0.22125E+03 
  33617.1707     0.22286E+03 
  33649.4329     0.22449E+03 
  33681.6950     0.22612E+03 
  33713.9572     0.22776E+03 
  33746.2194     0.22940E+03 
  33778.4815     0.23105E+03 
  33810.7437     0.23270E+03 
  33843.0058     0.23437E+03 
  33875.2680     0.23603E+03 
  33907.5302     0.23771E+03 
  33939.7923     0.23939E+03 
  33972.0545     0.24107E+03 
  34004.3166     0.24276E+03 
  34036.5788     0.24446E+03 
  34068.8410     0.24616E+03 
  34101.1031     0.24787E+03 
  34133.3653     0.24958E+03 
  34165.6274     0.25130E+03 
  34197.8896     0.25303E+03 
  34230.1518     0.25476E+03 
  34262.4139     0.25650E+03 
  34294.6761     0.25824E+03 
  34326.9382     0.25999E+03 
  34359.2004     0.26174E+03 
  34391.4626     0.26350E+03 
  34423.7247     0.26527E+03 
  34455.9869     0.26704E+03 
  34488.2490     0.26881E+03 
  34520.5112     0.27059E+03 
  34552.7734     0.27238E+03 
  34585.0355     0.27417E+03 
  34617.2977     0.27596E+03 
  34649.5598     0.27777E+03 
  34681.8220     0.27957E+03 
  34714.0842     0.28138E+03 
  34746.3463     0.28320E+03 
  34778.6085     0.28502E+03 
  34810.8706     0.28685E+03 
  34843.1328     0.28868E+03 
  34875.3950     0.29051E+03 
  34907.6571     0.29235E+03 
  34939.9193     0.29420E+03 
  34972.1814     0.29605E+03 
  35004.4436     0.29790E+03 
  35036.7058     0.29976E+03 
  35068.9679     0.30162E+03 
  35101.2301     0.30349E+03 
  35133.4922     0.30536E+03 
  35165.7544     0.30724E+03 
  35198.0166     0.30912E+03 
  35230.2787     0.31101E+03 
  35262.5409     0.31290E+03 
  35294.8030     0.31479E+03 
  35327.0652     0.31669E+03 
  35359.3274     0.31859E+03 
  35391.5895     0.32050E+03 
  35423.8517     0.32240E+03 
  35456.1138     0.32432E+03 
  35488.3760     0.32624E+03 
  35520.6382     0.32816E+03 
  35552.9003     0.33008E+03 
  35585.1625     0.33201E+03 
  35617.4246     0.33394E+03 
  35649.6868     0.33588E+03 
  35681.9490     0.33782E+03 
  35714.2111     0.33976E+03 
  35746.4733     0.34170E+03 
  35778.7354     0.34365E+03 
  35810.9976     0.34560E+03 
  35843.2598     0.34756E+03 
  35875.5219     0.34952E+03 
  35907.7841     0.35148E+03 
  35940.0462     0.35344E+03 
  35972.3084     0.35541E+03 
  36004.5706     0.35738E+03 
  36036.8327     0.35935E+03 
  36069.0949     0.36133E+03 
  36101.3570     0.36331E+03 
  36133.6192     0.36529E+03 
  36165.8814     0.36727E+03 
  36198.1435     0.36926E+03 
  36230.4057     0.37125E+03 
  36262.6678     0.37324E+03 
  36294.9300     0.37523E+03 
  36327.1922     0.37723E+03 
  36359.4543     0.37922E+03 
  36391.7165     0.38122E+03 
  36423.9786     0.38323E+03 
  36456.2408     0.38523E+03 
  36488.5030     0.38723E+03 
  36520.7651     0.38924E+03 
  36553.0273     0.39125E+03 
  36585.2894     0.39326E+03 
  36617.5516     0.39527E+03 
  36649.8138     0.39729E+03 
  36682.0759     0.39930E+03 
  36714.3381     0.40132E+03 
  36746.6002     0.40334E+03 
  36778.8624     0.40535E+03 
  36811.1246     0.40737E+03 
  36843.3867     0.40940E+03 
  36875.6489     0.41142E+03 
  36907.9110     0.41344E+03 
  36940.1732     0.41546E+03 
  36972.4354     0.41749E+03 
  37004.6975     0.41951E+03 
  37036.9597     0.42154E+03 
  37069.2218     0.42357E+03 
  37101.4840     0.42559E+03 
  37133.7462     0.42762E+03 
  37166.0083     0.42965E+03 
  37198.2705     0.43168E+03 
  37230.5326     0.43371E+03 
  37262.7948     0.43574E+03 
  37295.0570     0.43776E+03 
  37327.3191     0.43979E+03 
  37359.5813     0.44182E+03 
  37391.8434     0.44385E+03 
  37424.1056     0.44588E+03 
  37456.3678     0.44790E+03 
  37488.6299     0.44993E+03 
  37520.8921     0.45196E+03 
  37553.1542     0.45398E+03 
  37585.4164     0.45601E+03 
  37617.6786     0.45804E+03 
  37649.9407     0.46006E+03 
  37682.2029     0.46208E+03 
  37714.4650     0.46410E+03 
  37746.7272     0.46613E+03 
  37778.9894     0.46815E+03 
  37811.2515     0.47016E+03 
  37843.5137     0.47218E+03 
  37875.7758     0.47420E+03 
  37908.0380     0.47621E+03 
  37940.3002     0.47823E+03 
  37972.5623     0.48024E+03 
  38004.8245     0.48225E+03 
  38037.0866     0.48426E+03 
  38069.3488     0.48626E+03 
  38101.6110     0.48827E+03 
  38133.8731     0.49027E+03 
  38166.1353     0.49227E+03 
  38198.3974     0.49427E+03 
  38230.6596     0.49626E+03 
  38262.9218     0.49826E+03 
  38295.1839     0.50025E+03 
  38327.4461     0.50224E+03 
  38359.7082     0.50422E+03 
  38391.9704     0.50620E+03 
  38424.2326     0.50819E+03 
  38456.4947     0.51016E+03 
  38488.7569     0.51214E+03 
  38521.0190     0.51411E+03 
  38553.2812     0.51608E+03 
  38585.5434     0.51805E+03 
  38617.8055     0.52001E+03 
  38650.0677     0.52197E+03 
  38682.3298     0.52392E+03 
  38714.5920     0.52588E+03 
  38746.8542     0.52782E+03 
  38779.1163     0.52977E+03 
  38811.3785     0.53171E+03 
  38843.6406     0.53365E+03 
  38875.9028     0.53558E+03 
  38908.1650     0.53751E+03 
  38940.4271     0.53944E+03 
  38972.6893     0.54136E+03 
  39004.9514     0.54328E+03 
  39037.2136     0.54519E+03 
  39069.4758     0.54710E+03 
  39101.7379     0.54900E+03 
  39134.0001     0.55090E+03 
  39166.2622     0.55280E+03 
  39198.5244     0.55469E+03 
  39230.7866     0.55658E+03 
  39263.0487     0.55846E+03 
  39295.3109     0.56033E+03 
  39327.5730     0.56221E+03 
  39359.8352     0.56407E+03 
  39392.0974     0.56593E+03 
  39424.3595     0.56779E+03 
  39456.6217     0.56964E+03 
  39488.8838     0.57148E+03 
  39521.1460     0.57332E+03 
  39553.4082     0.57516E+03 
  39585.6703     0.57698E+03 
  39617.9325     0.57881E+03 
  39650.1946     0.58062E+03 
  39682.4568     0.58244E+03 
  39714.7190     0.58424E+03 
  39746.9811     0.58604E+03 
  39779.2433     0.58783E+03 
  39811.5054     0.58962E+03 
  39843.7676     0.59140E+03 
  39876.0298     0.59317E+03 
  39908.2919     0.59494E+03 
  39940.5541     0.59670E+03 
  39972.8162     0.59846E+03 
  40005.0784     0.60020E+03 
  40037.3406     0.60195E+03 
  40069.6027     0.60368E+03 
  40101.8649     0.60541E+03 
  40134.1270     0.60713E+03 
  40166.3892     0.60884E+03 
  40198.6514     0.61055E+03 
  40230.9135     0.61225E+03 
  40263.1757     0.61394E+03 
  40295.4378     0.61562E+03 
  40327.7000     0.61730E+03 
  40359.9622     0.61897E+03 
  40392.2243     0.62063E+03 
  40424.4865     0.62229E+03 
  40456.7486     0.62393E+03 
  40489.0108     0.62557E+03 
  40521.2730     0.62720E+03 
  40553.5351     0.62883E+03 
  40585.7973     0.63044E+03 
  40618.0594     0.63205E+03 
  40650.3216     0.63365E+03 
  40682.5838     0.63524E+03 
  40714.8459     0.63682E+03 
  40747.1081     0.63840E+03 
  40779.3702     0.63996E+03 
  40811.6324     0.64152E+03 
  40843.8946     0.64307E+03 
  40876.1567     0.64461E+03 
  40908.4189     0.64614E+03 
  40940.6810     0.64766E+03 
  40972.9432     0.64918E+03 
  41005.2054     0.65068E+03 
  41037.4675     0.65218E+03 
  41069.7297     0.65367E+03 
  41101.9918     0.65515E+03 
  41134.2540     0.65662E+03 
  41166.5162     0.65808E+03 
  41198.7783     0.65953E+03 
  41231.0405     0.66097E+03 
  41263.3026     0.66240E+03 
  41295.5648     0.66382E+03 
  41327.8270     0.66523E+03 
  41360.0891     0.66664E+03 
  41392.3513     0.66803E+03 
  41424.6134     0.66942E+03 
  41456.8756     0.67079E+03 
  41489.1378     0.67215E+03 
  41521.3999     0.67351E+03 
  41553.6621     0.67485E+03 
  41585.9242     0.67619E+03 
  41618.1864     0.67751E+03 
  41650.4486     0.67883E+03 
  41682.7107     0.68013E+03 
  41714.9729     0.68142E+03 
  41747.2350     0.68271E+03 
  41779.4972     0.68398E+03 
  41811.7594     0.68524E+03 
  41844.0215     0.68650E+03 
  41876.2837     0.68774E+03 
  41908.5458     0.68897E+03 
  41940.8080     0.69019E+03 
  41973.0702     0.69140E+03 
  42005.3323     0.69260E+03 
  42037.5945     0.69379E+03 
  42069.8566     0.69497E+03 
  42102.1188     0.69613E+03 
  42134.3810     0.69729E+03 
  42166.6431     0.69843E+03 
  42198.9053     0.69957E+03 
  42231.1674     0.70069E+03 
  42263.4296     0.70180E+03 
  42295.6918     0.70290E+03 
  42327.9539     0.70399E+03 
  42360.2161     0.70507E+03 
  42392.4782     0.70614E+03 
  42424.7404     0.70719E+03 
  42457.0026     0.70824E+03 
  42489.2647     0.70927E+03 
  42521.5269     0.71029E+03 
  42553.7890     0.71130E+03 
  42586.0512     0.71230E+03 
  42618.3134     0.71329E+03 
  42650.5755     0.71426E+03 
  42682.8377     0.71522E+03 
  42715.0998     0.71617E+03 
  42747.3620     0.71711E+03 
  42779.6242     0.71804E+03 
  42811.8863     0.71896E+03 
  42844.1485     0.71986E+03 
  42876.4106     0.72075E+03 
  42908.6728     0.72163E+03 
  42940.9350     0.72250E+03 
  42973.1971     0.72336E+03 
  43005.4593     0.72420E+03 
  43037.7214     0.72503E+03 
  43069.9836     0.72585E+03 
  43102.2458     0.72666E+03 
  43134.5079     0.72746E+03 
  43166.7701     0.72824E+03 
  43199.0322     0.72901E+03 
  43231.2944     0.72977E+03 
  43263.5566     0.73051E+03 
  43295.8187     0.73125E+03 
  43328.0809     0.73197E+03 
  43360.3430     0.73268E+03 
  43392.6052     0.73338E+03 
  43424.8674     0.73406E+03 
  43457.1295     0.73473E+03 
  43489.3917     0.73539E+03 
  43521.6538     0.73604E+03 
  43553.9160     0.73667E+03 
  43586.1782     0.73729E+03 
  43618.4403     0.73790E+03 
  43650.7025     0.73850E+03 
  43682.9646     0.73908E+03 
  43715.2268     0.73965E+03 
  43747.4890     0.74021E+03 
  43779.7511     0.74076E+03 
  43812.0133     0.74129E+03 
  43844.2754     0.74181E+03 
  43876.5376     0.74232E+03 
  43908.7998     0.74281E+03 
  43941.0619     0.74329E+03 
  43973.3241     0.74376E+03 
  44005.5862     0.74422E+03 
  44037.8484     0.74466E+03 
  44070.1106     0.74509E+03 
  44102.3727     0.74551E+03 
  44134.6349     0.74591E+03 
  44166.8970     0.74630E+03 
  44199.1592     0.74668E+03 
  44231.4214     0.74705E+03 
  44263.6835     0.74740E+03 
  44295.9457     0.74774E+03 
  44328.2078     0.74807E+03 
  44360.4700     0.74838E+03 
  44392.7322     0.74868E+03 
  44424.9943     0.74897E+03 
  44457.2565     0.74924E+03 
  44489.5186     0.74951E+03 
  44521.7808     0.74975E+03 
  44554.0430     0.74999E+03 
  44586.3051     0.75021E+03 
  44618.5673     0.75042E+03 
  44650.8294     0.75062E+03 
  44683.0916     0.75080E+03 
  44715.3538     0.75097E+03 
  44747.6159     0.75113E+03 
  44779.8781     0.75128E+03 
  44812.1402     0.75141E+03 
  44844.4024     0.75153E+03 
  44876.6646     0.75163E+03 
  44908.9267     0.75173E+03 
  44941.1889     0.75181E+03 
  44973.4510     0.75187E+03 
  45005.7132     0.75193E+03 
  45037.9754     0.75197E+03 
  45070.2375     0.75199E+03 
  45102.4997     0.75201E+03 
  45134.7618     0.75201E+03 
  45167.0240     0.75200E+03 
  45199.2862     0.75197E+03 
  45231.5483     0.75194E+03 
  45263.8105     0.75189E+03 
  45296.0726     0.75182E+03 
  45328.3348     0.75175E+03 
  45360.5970     0.75166E+03 
  45392.8591     0.75156E+03 
  45425.1213     0.75144E+03 
  45457.3834     0.75131E+03 
  45489.6456     0.75117E+03 
  45521.9078     0.75102E+03 
  45554.1699     0.75085E+03 
  45586.4321     0.75067E+03 
  45618.6942     0.75048E+03 
  45650.9564     0.75028E+03 
  45683.2186     0.75006E+03 
  45715.4807     0.74983E+03 
  45747.7429     0.74959E+03 
  45780.0050     0.74933E+03 
  45812.2672     0.74906E+03 
  45844.5294     0.74878E+03 
  45876.7915     0.74849E+03 
  45909.0537     0.74818E+03 
  45941.3158     0.74786E+03 
  45973.5780     0.74753E+03 
  46005.8402     0.74719E+03 
  46038.1023     0.74683E+03 
  46070.3645     0.74646E+03 
  46102.6266     0.74608E+03 
  46134.8888     0.74568E+03 
  46167.1510     0.74528E+03 
  46199.4131     0.74486E+03 
  46231.6753     0.74442E+03 
  46263.9374     0.74398E+03 
  46296.1996     0.74352E+03 
  46328.4618     0.74305E+03 
  46360.7239     0.74257E+03 
  46392.9861     0.74208E+03 
  46425.2482     0.74157E+03 
  46457.5104     0.74106E+03 
  46489.7726     0.74053E+03 
  46522.0347     0.73998E+03 
  46554.2969     0.73943E+03 
  46586.5590     0.73886E+03 
  46618.8212     0.73828E+03 
  46651.0834     0.73769E+03 
  46683.3455     0.73709E+03 
  46715.6077     0.73647E+03 
  46747.8698     0.73585E+03 
  46780.1320     0.73521E+03 
  46812.3942     0.73456E+03 
  46844.6563     0.73390E+03 
  46876.9185     0.73322E+03 
  46909.1806     0.73254E+03 
  46941.4428     0.73184E+03 
  46973.7050     0.73113E+03 
  47005.9671     0.73041E+03 
  47038.2293     0.72968E+03 
  47070.4914     0.72893E+03 
  47102.7536     0.72818E+03 
  47135.0158     0.72741E+03 
  47167.2779     0.72663E+03 
  47199.5401     0.72584E+03 
  47231.8022     0.72504E+03 
  47264.0644     0.72423E+03 
  47296.3266     0.72340E+03 
  47328.5887     0.72257E+03 
  47360.8509     0.72172E+03 
  47393.1130     0.72086E+03 
  47425.3752     0.72000E+03 
  47457.6374     0.71912E+03 
  47489.8995     0.71823E+03 
  47522.1617     0.71732E+03 
  47554.4238     0.71641E+03 
  47586.6860     0.71549E+03 
  47618.9482     0.71455E+03 
  47651.2103     0.71361E+03 
  47683.4725     0.71265E+03 
  47715.7346     0.71168E+03 
  47747.9968     0.71071E+03 
  47780.2590     0.70972E+03 
  47812.5211     0.70872E+03 
  47844.7833     0.70771E+03 
  47877.0454     0.70669E+03 
  47909.3076     0.70566E+03 
  47941.5698     0.70462E+03 
  47973.8319     0.70357E+03 
  48006.0941     0.70251E+03 
  48038.3562     0.70144E+03 
  48070.6184     0.70036E+03 
  48102.8806     0.69927E+03 
  48135.1427     0.69816E+03 
  48167.4049     0.69705E+03 
  48199.6670     0.69593E+03 
  48231.9292     0.69480E+03 
  48264.1914     0.69366E+03 
  48296.4535     0.69251E+03 
  48328.7157     0.69135E+03 
  48360.9778     0.69017E+03 
  48393.2400     0.68899E+03 
  48425.5022     0.68780E+03 
  48457.7643     0.68660E+03 
  48490.0265     0.68540E+03 
  48522.2886     0.68418E+03 
  48554.5508     0.68295E+03 
  48586.8130     0.68171E+03 
  48619.0751     0.68047E+03 
  48651.3373     0.67921E+03 
  48683.5994     0.67794E+03 
  48715.8616     0.67667E+03 
  48748.1238     0.67539E+03 
  48780.3859     0.67410E+03 
  48812.6481     0.67279E+03 
  48844.9102     0.67148E+03 
  48877.1724     0.67017E+03 
  48909.4346     0.66884E+03 
  48941.6967     0.66750E+03 
  48973.9589     0.66616E+03 
  49006.2210     0.66480E+03 
  49038.4832     0.66344E+03 
  49070.7454     0.66207E+03 
  49103.0075     0.66069E+03 
  49135.2697     0.65931E+03 
  49167.5318     0.65791E+03 
  49199.7940     0.65651E+03 
  49232.0562     0.65509E+03 
  49264.3183     0.65367E+03 
  49296.5805     0.65225E+03 
  49328.8426     0.65081E+03 
  49361.1048     0.64937E+03 
  49393.3670     0.64791E+03 
  49425.6291     0.64645E+03 
  49457.8913     0.64499E+03 
  49490.1534     0.64351E+03 
  49522.4156     0.64203E+03 
  49554.6778     0.64054E+03 
  49586.9399     0.63904E+03 
  49619.2021     0.63754E+03 
  49651.4642     0.63602E+03 
  49683.7264     0.63450E+03 
  49715.9886     0.63297E+03 
  49748.2507     0.63144E+03 
  49780.5129     0.62990E+03 
  49812.7750     0.62835E+03 
  49845.0372     0.62679E+03 
  49877.2994     0.62523E+03 
  49909.5615     0.62366E+03 
  49941.8237     0.62208E+03 
  49974.0858     0.62050E+03 
  50006.3480     0.61891E+03 
  50038.6102     0.61731E+03 
  50070.8723     0.61571E+03 
  50103.1345     0.61410E+03 
  50135.3966     0.61248E+03 
  50167.6588     0.61086E+03 
  50199.9210     0.60923E+03 
  50232.1831     0.60760E+03 
  50264.4453     0.60596E+03 
  50296.7074     0.60431E+03 
  50328.9696     0.60265E+03 
  50361.2318     0.60099E+03 
  50393.4939     0.59933E+03 
  50425.7561     0.59766E+03 
  50458.0182     0.59598E+03 
  50490.2804     0.59430E+03 
  50522.5426     0.59261E+03 
  50554.8047     0.59091E+03 
  50587.0669     0.58921E+03 
  50619.3290     0.58751E+03 
  50651.5912     0.58579E+03 
  50683.8534     0.58408E+03 
  50716.1155     0.58236E+03 
  50748.3777     0.58063E+03 
  50780.6398     0.57890E+03 
  50812.9020     0.57716E+03 
  50845.1642     0.57542E+03 
  50877.4263     0.57367E+03 
  50909.6885     0.57192E+03 
  50941.9506     0.57016E+03 
  50974.2128     0.56840E+03 
  51006.4750     0.56663E+03 
  51038.7371     0.56486E+03 
  51070.9993     0.56308E+03 
  51103.2614     0.56130E+03 
  51135.5236     0.55951E+03 
  51167.7858     0.55772E+03 
  51200.0479     0.55593E+03 
  51232.3101     0.55413E+03 
  51264.5722     0.55233E+03 
  51296.8344     0.55052E+03 
  51329.0966     0.54871E+03 
  51361.3587     0.54689E+03 
  51393.6209     0.54508E+03 
  51425.8830     0.54325E+03 
  51458.1452     0.54143E+03 
  51490.4074     0.53959E+03 
  51522.6695     0.53776E+03 
  51554.9317     0.53592E+03 
  51587.1938     0.53408E+03 
  51619.4560     0.53223E+03 
  51651.7182     0.53038E+03 
  51683.9803     0.52853E+03 
  51716.2425     0.52668E+03 
  51748.5046     0.52482E+03 
  51780.7668     0.52296E+03 
  51813.0290     0.52109E+03 
  51845.2911     0.51922E+03 
  51877.5533     0.51735E+03 
  51909.8154     0.51547E+03 
  51942.0776     0.51360E+03 
  51974.3398     0.51172E+03 
  52006.6019     0.50983E+03 
  52038.8641     0.50795E+03 
  52071.1262     0.50606E+03 
  52103.3884     0.50417E+03 
  52135.6506     0.50227E+03 
  52167.9127     0.50037E+03 
  52200.1749     0.49848E+03 
  52232.4370     0.49657E+03 
  52264.6992     0.49467E+03 
  52296.9614     0.49276E+03 
  52329.2235     0.49086E+03 
  52361.4857     0.48894E+03 
  52393.7478     0.48703E+03 
  52426.0100     0.48512E+03 
  52458.2722     0.48320E+03 
  52490.5343     0.48128E+03 
  52522.7965     0.47936E+03 
  52555.0586     0.47744E+03 
  52587.3208     0.47552E+03 
  52619.5830     0.47359E+03 
  52651.8451     0.47166E+03 
  52684.1073     0.46973E+03 
  52716.3694     0.46780E+03 
  52748.6316     0.46587E+03 
  52780.8938     0.46394E+03 
  52813.1559     0.46200E+03 
  52845.4181     0.46007E+03 
  52877.6802     0.45813E+03 
  52909.9424     0.45619E+03 
  52942.2046     0.45425E+03 
  52974.4667     0.45231E+03 
  53006.7289     0.45037E+03 
  53038.9910     0.44843E+03 
  53071.2532     0.44649E+03 
  53103.5154     0.44454E+03 
  53135.7775     0.44260E+03 
  53168.0397     0.44065E+03 
  53200.3018     0.43871E+03 
  53232.5640     0.43676E+03 
  53264.8262     0.43482E+03 
  53297.0883     0.43287E+03 
  53329.3505     0.43092E+03 
  53361.6126     0.42897E+03 
  53393.8748     0.42702E+03 
  53426.1370     0.42508E+03 
  53458.3991     0.42313E+03 
  53490.6613     0.42118E+03 
  53522.9234     0.41923E+03 
  53555.1856     0.41728E+03 
  53587.4478     0.41533E+03 
  53619.7099     0.41338E+03 
  53651.9721     0.41143E+03 
  53684.2342     0.40948E+03 
  53716.4964     0.40754E+03 
  53748.7586     0.40559E+03 
  53781.0207     0.40364E+03 
  53813.2829     0.40169E+03 
  53845.5450     0.39975E+03 
  53877.8072     0.39780E+03 
  53910.0694     0.39585E+03 
  53942.3315     0.39391E+03 
  53974.5937     0.39196E+03 
  54006.8558     0.39002E+03 
  54039.1180     0.38808E+03 
  54071.3802     0.38614E+03 
  54103.6423     0.38419E+03 
  54135.9045     0.38225E+03 
  54168.1666     0.38032E+03 
  54200.4288     0.37838E+03 
  54232.6910     0.37644E+03 
  54264.9531     0.37450E+03 
  54297.2153     0.37257E+03 
  54329.4774     0.37064E+03 
  54361.7396     0.36870E+03 
  54394.0018     0.36677E+03 
  54426.2639     0.36485E+03 
  54458.5261     0.36292E+03 
  54490.7882     0.36099E+03 
  54523.0504     0.35907E+03 
  54555.3126     0.35714E+03 
  54587.5747     0.35522E+03 
  54619.8369     0.35330E+03 
  54652.0990     0.35139E+03 
  54684.3612     0.34947E+03 
  54716.6234     0.34756E+03 
  54748.8855     0.34564E+03 
  54781.1477     0.34373E+03 
  54813.4098     0.34183E+03 
  54845.6720     0.33992E+03 
  54877.9342     0.33802E+03 
  54910.1963     0.33611E+03 
  54942.4585     0.33422E+03 
  54974.7206     0.33232E+03 
  55006.9828     0.33042E+03 
  55039.2450     0.32853E+03 
  55071.5071     0.32664E+03 
  55103.7693     0.32476E+03 
  55136.0314     0.32287E+03 
  55168.2936     0.32099E+03 
  55200.5558     0.31911E+03 
  55232.8179     0.31723E+03 
  55265.0801     0.31536E+03 
  55297.3422     0.31349E+03 
  55329.6044     0.31162E+03 
  55361.8666     0.30975E+03 
  55394.1287     0.30789E+03 
  55426.3909     0.30603E+03 
  55458.6530     0.30418E+03 
  55490.9152     0.30232E+03 
  55523.1774     0.30047E+03 
  55555.4395     0.29863E+03 
  55587.7017     0.29678E+03 
  55619.9638     0.29494E+03 
  55652.2260     0.29311E+03 
  55684.4882     0.29127E+03 
  55716.7503     0.28944E+03 
  55749.0125     0.28762E+03 
  55781.2746     0.28579E+03 
  55813.5368     0.28397E+03 
  55845.7990     0.28216E+03 
  55878.0611     0.28035E+03 
  55910.3233     0.27854E+03 
  55942.5854     0.27673E+03 
  55974.8476     0.27493E+03 
  56007.1098     0.27314E+03 
  56039.3719     0.27134E+03 
  56071.6341     0.26955E+03 
  56103.8962     0.26777E+03 
  56136.1584     0.26599E+03 
  56168.4206     0.26421E+03 
  56200.6827     0.26244E+03 
  56232.9449     0.26067E+03 
  56265.2070     0.25891E+03 
  56297.4692     0.25715E+03 
  56329.7314     0.25540E+03 
  56361.9935     0.25365E+03 
  56394.2557     0.25190E+03 
  56426.5178     0.25016E+03 
  56458.7800     0.24842E+03 
  56491.0422     0.24669E+03 
  56523.3043     0.24496E+03 
  56555.5665     0.24324E+03 
  56587.8286     0.24153E+03 
  56620.0908     0.23981E+03 
  56652.3530     0.23811E+03 
  56684.6151     0.23640E+03 
  56716.8773     0.23471E+03 
  56749.1394     0.23301E+03 
  56781.4016     0.23133E+03 
  56813.6638     0.22964E+03 
  56845.9259     0.22797E+03 
  56878.1881     0.22630E+03 
  56910.4502     0.22463E+03 
  56942.7124     0.22297E+03 
  56974.9746     0.22132E+03 
  57007.2367     0.21967E+03 
  57039.4989     0.21802E+03 
  57071.7610     0.21638E+03 
  57104.0232     0.21475E+03 
  57136.2854     0.21313E+03 
  57168.5475     0.21150E+03 
  57200.8097     0.20989E+03 
  57233.0718     0.20828E+03 
  57265.3340     0.20668E+03 
  57297.5962     0.20508E+03 
  57329.8583     0.20349E+03 
  57362.1205     0.20191E+03 
  57394.3826     0.20033E+03 
  57426.6448     0.19876E+03 
  57458.9070     0.19719E+03 
  57491.1691     0.19563E+03 
  57523.4313     0.19408E+03 
  57555.6934     0.19253E+03 
  57587.9556     0.19099E+03 
  57620.2178     0.18946E+03 
  57652.4799     0.18793E+03 
  57684.7421     0.18641E+03 
  57717.0042     0.18490E+03 
  57749.2664     0.18340E+03 
  57781.5286     0.18190E+03 
  57813.7907     0.18041E+03 
  57846.0529     0.17892E+03 
  57878.3150     0.17745E+03 
  57910.5772     0.17598E+03 
  57942.8394     0.17451E+03 
  57975.1015     0.17306E+03 
  58007.3637     0.17161E+03 
  58039.6258     0.17017E+03 
  58071.8880     0.16874E+03 
  58104.1502     0.16731E+03 
  58136.4123     0.16589E+03 
  58168.6745     0.16449E+03 
  58200.9366     0.16308E+03 
  58233.1988     0.16169E+03 
  58265.4610     0.16030E+03 
  58297.7231     0.15893E+03 
  58329.9853     0.15756E+03 
  58362.2474     0.15620E+03 
  58394.5096     0.15484E+03 
  58426.7718     0.15350E+03 
  58459.0339     0.15216E+03 
  58491.2961     0.15083E+03 
  58523.5582     0.14952E+03 
  58555.8204     0.14821E+03 
  58588.0826     0.14690E+03 
  58620.3447     0.14561E+03 
  58652.6069     0.14433E+03 
  58684.8690     0.14305E+03 
  58717.1312     0.14179E+03 
  58749.3934     0.14053E+03 
  58781.6555     0.13928E+03 
  58813.9177     0.13804E+03 
  58846.1798     0.13682E+03 
  58878.4420     0.13560E+03 
  58910.7042     0.13439E+03 
  58942.9663     0.13319E+03 
  58975.2285     0.13200E+03 
  59007.4906     0.13082E+03 
  59039.7528     0.12965E+03 
  59072.0150     0.12849E+03 
  59104.2771     0.12734E+03 
  59136.5393     0.12620E+03 
  59168.8014     0.12507E+03 
  59201.0636     0.12395E+03 
  59233.3258     0.12284E+03 
  59265.5879     0.12174E+03 
  59297.8501     0.12065E+03 
  59330.1122     0.11958E+03 
  59362.3744     0.11851E+03 
  59394.6366     0.11746E+03 
  59426.8987     0.11641E+03 
  59459.1609     0.11538E+03 
  59491.4230     0.11436E+03 
  59523.6852     0.11335E+03 
  59555.9474     0.11235E+03 
  59588.2095     0.11136E+03 
  59620.4717     0.11039E+03 
  59652.7338     0.10942E+03 
  59684.9960     0.10847E+03 
  59717.2582     0.10753E+03 
  59749.5203     0.10660E+03 
  59781.7825     0.10569E+03 
  59814.0446     0.10478E+03 
  59846.3068     0.10389E+03 
  59878.5690     0.10301E+03 
  59910.8311     0.10215E+03 
  59943.0933     0.10130E+03 
  59975.3554     0.10046E+03 
  60007.6176     0.99629E+02 
  60039.8798     0.98815E+02 
  60072.1419     0.98014E+02 
  60104.4041     0.97227E+02 
  60136.6662     0.96453E+02 
  60168.9284     0.95693E+02 
  60201.1906     0.94947E+02 
  60233.4527     0.94215E+02 
  60265.7149     0.93496E+02 
  60297.9770     0.92792E+02 
  60330.2392     0.92102E+02 
  60362.5014     0.91426E+02 
  60394.7635     0.90765E+02 
  60427.0257     0.90118E+02 
  60459.2878     0.89486E+02 
  60491.5500     0.88869E+02 
  60523.8122     0.88268E+02 
  60556.0743     0.87681E+02 
  60588.3365     0.87110E+02 
  60620.5986     0.86554E+02 
  60652.8608     0.86014E+02 
  60685.1230     0.85489E+02 
  60717.3851     0.84980E+02 
  60749.6473     0.84488E+02 
  60781.9094     0.84012E+02 
  60814.1716     0.83552E+02 
  60846.4338     0.83108E+02 
  60878.6959     0.82681E+02 
  60910.9581     0.82271E+02 
  60943.2202     0.81878E+02 
  60975.4824     0.81502E+02 
  61007.7446     0.81143E+02 
  61040.0067     0.80802E+02 
  61072.2689     0.80478E+02 
  61104.5310     0.80172E+02 
  61136.7932     0.79884E+02 
  61169.0554     0.79614E+02 
  61201.3175     0.79362E+02 
  61233.5797     0.79129E+02 
  61265.8418     0.78914E+02 
  61298.1040     0.78718E+02 
  61330.3662     0.78541E+02 
  61362.6283     0.78383E+02 
  61394.8905     0.78244E+02 
  61427.1526     0.78125E+02 
  61459.4148     0.78025E+02 
  61491.6770     0.77945E+02 
  61523.9391     0.77885E+02 
  61556.2013     0.77846E+02 
  61588.4634     0.77826E+02 
  61620.7256     0.77827E+02 
  61652.9878     0.77849E+02 
  61685.2499     0.77892E+02 
  61717.5121     0.77956E+02 
  61749.7742     0.78041E+02 
  61782.0364     0.78148E+02 
  61814.2986     0.78276E+02 
  61846.5607     0.78426E+02 
  61878.8229     0.78598E+02 
  61911.0850     0.78793E+02 
  61943.3472     0.79010E+02 
  61975.6094     0.79250E+02 
  62007.8715     0.79513E+02 
  62040.1337     0.79798E+02 
  62072.3958     0.80107E+02 
  62104.6580     0.80440E+02 
  62136.9202     0.80796E+02 
  62169.1823     0.81177E+02 
  62201.4445     0.81581E+02 
  62233.7066     0.82010E+02 
  62265.9688     0.82463E+02 
  62298.2310     0.82941E+02 
  62330.4931     0.83445E+02 
  62362.7553     0.83973E+02 
  62395.0174     0.84527E+02 
  62427.2796     0.85107E+02 
  62459.5418     0.85713E+02 
  62491.8039     0.86345E+02 
  62524.0661     0.87003E+02 
  62556.3282     0.87688E+02 
  62588.5904     0.88400E+02 
  62620.8526     0.89139E+02 
  62653.1147     0.89905E+02 
  62685.3769     0.90699E+02 
  62717.6390     0.91521E+02 
  62749.9012     0.92370E+02 
  62782.1634     0.93249E+02 
  62814.4255     0.94155E+02 
  62846.6877     0.95091E+02 
  62878.9498     0.96056E+02 
  62911.2120     0.97050E+02 
  62943.4742     0.98073E+02 
  62975.7363     0.99127E+02 
  63007.9985     0.10021E+03 
  63040.2606     0.10132E+03 
  63072.5228     0.10247E+03 
  63104.7850     0.10364E+03 
  63137.0471     0.10485E+03 
  63169.3093     0.10609E+03 
  63201.5714     0.10736E+03 
  63233.8336     0.10866E+03 
  63266.0958     0.11000E+03 
  63298.3579     0.11136E+03 
  63330.6201     0.11276E+03 
  63362.8822     0.11419E+03 
  63395.1444     0.11566E+03 
  63427.4066     0.11716E+03 
  63459.6687     0.11869E+03 
  63491.9309     0.12026E+03 
  63524.1930     0.12186E+03 
  63556.4552     0.12350E+03 
  63588.7174     0.12517E+03 
  63620.9795     0.12688E+03 
  63653.2417     0.12862E+03 
  63685.5038     0.13040E+03 
  63717.7660     0.13222E+03 
  63750.0282     0.13407E+03 
  63782.2903     0.13596E+03 
  63814.5525     0.13788E+03 
  63846.8146     0.13984E+03 
  63879.0768     0.14185E+03 
  63911.3390     0.14388E+03 
  63943.6011     0.14596E+03 
  63975.8633     0.14808E+03 
  64008.1254     0.15023E+03 
  64040.3876     0.15243E+03 
  64072.6498     0.15466E+03 
  64104.9119     0.15694E+03 
  64137.1741     0.15925E+03 
  64169.4362     0.16161E+03 
  64201.6984     0.16400E+03 
  64233.9606     0.16644E+03 
  64266.2227     0.16892E+03 
  64298.4849     0.17144E+03 
  64330.7470     0.17400E+03 
  64363.0092     0.17661E+03 
  64395.2714     0.17925E+03 
  64427.5335     0.18195E+03 
  64459.7957     0.18468E+03 
  64492.0578     0.18746E+03 
  64524.3200     0.19028E+03 
  64556.5822     0.19315E+03 
  64588.8443     0.19606E+03 
  64621.1065     0.19902E+03 
  64653.3686     0.20202E+03 
  64685.6308     0.20507E+03 
  64717.8930     0.20817E+03 
  64750.1551     0.21131E+03 
  64782.4173     0.21450E+03 
  64814.6794     0.21774E+03 
  64846.9416     0.22102E+03 
  64879.2038     0.22435E+03 
  64911.4659     0.22773E+03 
  64943.7281     0.23116E+03 
  64975.9902     0.23464E+03 
  65008.2524     0.23817E+03 
  65040.5146     0.24175E+03 
  65072.7767     0.24537E+03 
  65105.0389     0.24905E+03 
  65137.3010     0.25278E+03 
  65169.5632     0.25656E+03 
  65201.8254     0.26039E+03 
  65234.0875     0.26428E+03 
  65266.3497     0.26821E+03 
  65298.6118     0.27220E+03 
  65330.8740     0.27624E+03 
  65363.1362     0.28034E+03 
  65395.3983     0.28449E+03 
  65427.6605     0.28869E+03 
  65459.9226     0.29295E+03 
  65492.1848     0.29726E+03 
  65524.4470     0.30163E+03 
  65556.7091     0.30606E+03 
  65588.9713     0.31054E+03 
  65621.2334     0.31507E+03 
  65653.4956     0.31967E+03 
  65685.7578     0.32432E+03 
  65718.0199     0.32902E+03 
  65750.2821     0.33379E+03 
  65782.5442     0.33861E+03 
  65814.8064     0.34350E+03 
  65847.0686     0.34844E+03 
  65879.3307     0.35344E+03 
  65911.5929     0.35850E+03 
  65943.8550     0.36362E+03 
  65976.1172     0.36881E+03 
  66008.3794     0.37405E+03 
  66040.6415     0.37936E+03 
  66072.9037     0.38472E+03 
  66105.1658     0.39015E+03 
  66137.4280     0.39564E+03 
  66169.6902     0.40120E+03 
  66201.9523     0.40682E+03 
  66234.2145     0.41250E+03 
  66266.4766     0.41824E+03 
  66298.7388     0.42405E+03 
  66331.0010     0.42993E+03 
  66363.2631     0.43587E+03 
  66395.5253     0.44187E+03 
  66427.7874     0.44795E+03 
  66460.0496     0.45409E+03 
  66492.3118     0.46029E+03 
  66524.5739     0.46656E+03 
  66556.8361     0.47290E+03 
  66589.0982     0.47931E+03 
  66621.3604     0.48579E+03 
  66653.6226     0.49233E+03 
  66685.8847     0.49895E+03 
  66718.1469     0.50563E+03 
  66750.4090     0.51239E+03 
  66782.6712     0.51921E+03 
  66814.9334     0.52611E+03 
  66847.1955     0.53307E+03 
  66879.4577     0.54011E+03 
  66911.7198     0.54722E+03 
  66943.9820     0.55440E+03 
  66976.2442     0.56166E+03 
  67008.5063     0.56899E+03 
  67040.7685     0.57639E+03 
  67073.0306     0.58386E+03 
  67105.2928     0.59141E+03 
  67137.5550     0.59904E+03 
  67169.8171     0.60673E+03 
  67202.0793     0.61451E+03 
  67234.3414     0.62236E+03 
  67266.6036     0.63029E+03 
  67298.8658     0.63829E+03 
  67331.1279     0.64637E+03 
  67363.3901     0.65452E+03 
  67395.6522     0.66276E+03 
  67427.9144     0.67107E+03 
  67460.1766     0.67946E+03 
  67492.4387     0.68793E+03 
  67524.7009     0.69648E+03 
  67556.9630     0.70511E+03 
  67589.2252     0.71382E+03 
  67621.4874     0.72260E+03 
  67653.7495     0.73147E+03 
  67686.0117     0.74042E+03 
  67718.2738     0.74945E+03 
  67750.5360     0.75857E+03 
  67782.7982     0.76776E+03 
  67815.0603     0.77704E+03 
  67847.3225     0.78640E+03 
  67879.5846     0.79584E+03 
  67911.8468     0.80537E+03 
  67944.1090     0.81498E+03 
  67976.3711     0.82468E+03 
  68008.6333     0.83445E+03 
  68040.8954     0.84432E+03 
  68073.1576     0.85427E+03 
  68105.4198     0.86430E+03 
  68137.6819     0.87442E+03 
  68169.9441     0.88463E+03 
  68202.2062     0.89493E+03 
  68234.4684     0.90531E+03 
  68266.7306     0.91577E+03 
  68298.9927     0.92633E+03 
  68331.2549     0.93697E+03 
  68363.5170     0.94770E+03 
  68395.7792     0.95852E+03 
  68428.0414     0.96943E+03 
  68460.3035     0.98043E+03 
  68492.5657     0.99152E+03 
  68524.8278     0.10027E+04 
  68557.0900     0.10140E+04 
  68589.3522     0.10253E+04 
  68621.6143     0.10368E+04 
  68653.8765     0.10483E+04 
  68686.1386     0.10599E+04 
  68718.4008     0.10717E+04 
  68750.6630     0.10835E+04 
  68782.9251     0.10954E+04 
  68815.1873     0.11074E+04 
  68847.4494     0.11195E+04 
  68879.7116     0.11317E+04 
  68911.9738     0.11439E+04 
  68944.2359     0.11563E+04 
  68976.4981     0.11688E+04 
  69008.7602     0.11813E+04 
  69041.0224     0.11940E+04 
  69073.2846     0.12068E+04 
  69105.5467     0.12196E+04 
  69137.8089     0.12325E+04 
  69170.0710     0.12456E+04 
  69202.3332     0.12587E+04 
  69234.5954     0.12719E+04 
  69266.8575     0.12853E+04 
  69299.1197     0.12987E+04 
  69331.3818     0.13122E+04 
  69363.6440     0.13258E+04 
  69395.9062     0.13395E+04 
  69428.1683     0.13533E+04 
  69460.4305     0.13672E+04 
  69492.6926     0.13812E+04 
  69524.9548     0.13953E+04 
  69557.2170     0.14095E+04 
  69589.4791     0.14238E+04 
  69621.7413     0.14382E+04 
  69654.0034     0.14527E+04 
  69686.2656     0.14673E+04 
  69718.5278     0.14820E+04 
  69750.7899     0.14968E+04 
  69783.0521     0.15117E+04 
  69815.3142     0.15267E+04 
  69847.5764     0.15418E+04 
  69879.8386     0.15570E+04 
  69912.1007     0.15723E+04 
  69944.3629     0.15877E+04 
  69976.6250     0.16032E+04 
  70008.8872     0.16188E+04 
  70041.1494     0.16344E+04 
  70073.4115     0.16502E+04 
  70105.6737     0.16661E+04 
  70137.9358     0.16821E+04 
  70170.1980     0.16982E+04 
  70202.4602     0.17144E+04 
  70234.7223     0.17307E+04 
  70266.9845     0.17471E+04 
  70299.2466     0.17637E+04 
  70331.5088     0.17803E+04 
  70363.7710     0.17970E+04 
  70396.0331     0.18138E+04 
  70428.2953     0.18307E+04 
  70460.5574     0.18477E+04 
  70492.8196     0.18648E+04 
  70525.0818     0.18820E+04 
  70557.3439     0.18994E+04 
  70589.6061     0.19168E+04 
  70621.8682     0.19343E+04 
  70654.1304     0.19519E+04 
  70686.3926     0.19697E+04 
  70718.6547     0.19875E+04 
  70750.9169     0.20054E+04 
  70783.1790     0.20235E+04 
  70815.4412     0.20416E+04 
  70847.7034     0.20599E+04 
  70879.9655     0.20782E+04 
  70912.2277     0.20967E+04 
  70944.4898     0.21152E+04 
  70976.7520     0.21339E+04 
  71009.0142     0.21526E+04 
  71041.2763     0.21715E+04 
  71073.5385     0.21904E+04 
  71105.8006     0.22095E+04 
  71138.0628     0.22287E+04 
  71170.3250     0.22479E+04 
  71202.5871     0.22673E+04 
  71234.8493     0.22868E+04 
  71267.1114     0.23064E+04 
  71299.3736     0.23260E+04 
  71331.6358     0.23458E+04 
  71363.8979     0.23657E+04 
  71396.1601     0.23857E+04 
  71428.4222     0.24057E+04 
  71460.6844     0.24259E+04 
  71492.9466     0.24462E+04 
  71525.2087     0.24666E+04 
  71557.4709     0.24871E+04 
  71589.7330     0.25077E+04 
  71621.9952     0.25284E+04 
  71654.2574     0.25492E+04 
  71686.5195     0.25700E+04 
  71718.7817     0.25910E+04 
  71751.0438     0.26121E+04 
  71783.3060     0.26333E+04 
  71815.5682     0.26546E+04 
  71847.8303     0.26760E+04 
  71880.0925     0.26975E+04 
  71912.3546     0.27191E+04 
  71944.6168     0.27408E+04 
  71976.8790     0.27625E+04 
  72009.1411     0.27844E+04 
  72041.4033     0.28064E+04 
  72073.6654     0.28285E+04 
  72105.9276     0.28507E+04 
  72138.1898     0.28729E+04 
  72170.4519     0.28953E+04 
  72202.7141     0.29178E+04 
  72234.9762     0.29403E+04 
  72267.2384     0.29630E+04 
  72299.5006     0.29857E+04 
  72331.7627     0.30086E+04 
  72364.0249     0.30315E+04 
  72396.2870     0.30546E+04 
  72428.5492     0.30777E+04 
  72460.8114     0.31010E+04 
  72493.0735     0.31243E+04 
  72525.3357     0.31477E+04 
  72557.5978     0.31712E+04 
  72589.8600     0.31948E+04 
