  32262.1600     0.87025E-07 
  32294.4222     0.87377E-07 
  32326.6843     0.87730E-07 
  32358.9465     0.88084E-07 
  32391.2086     0.88438E-07 
  32423.4708     0.88794E-07 
  32455.7330     0.89151E-07 
  32487.9951     0.89510E-07 
  32520.2573     0.89869E-07 
  32552.5194     0.90229E-07 
  32584.7816     0.90590E-07 
  32617.0438     0.90953E-07 
  32649.3059     0.91316E-07 
  32681.5681     0.91681E-07 
  32713.8302     0.92046E-07 
  32746.0924     0.92413E-07 
  32778.3546     0.92781E-07 
  32810.6167     0.93150E-07 
  32842.8789     0.93520E-07 
  32875.1410     0.93891E-07 
  32907.4032     0.94264E-07 
  32939.6654     0.94637E-07 
  32971.9275     0.95011E-07 
  33004.1897     0.95387E-07 
  33036.4518     0.95764E-07 
  33068.7140     0.96142E-07 
  33100.9762     0.96520E-07 
  33133.2383     0.96901E-07 
  33165.5005     0.97282E-07 
  33197.7626     0.97664E-07 
  33230.0248     0.98047E-07 
  33262.2870     0.98432E-07 
  33294.5491     0.98818E-07 
  33326.8113     0.99205E-07 
  33359.0734     0.99592E-07 
  33391.3356     0.99982E-07 
  33423.5978     0.10037E-06 
  33455.8599     0.10076E-06 
  33488.1221     0.10116E-06 
  33520.3842     0.10155E-06 
  33552.6464     0.10194E-06 
  33584.9086     0.10234E-06 
  33617.1707     0.10274E-06 
  33649.4329     0.10314E-06 
  33681.6950     0.10353E-06 
  33713.9572     0.10394E-06 
  33746.2194     0.10434E-06 
  33778.4815     0.10474E-06 
  33810.7437     0.10514E-06 
  33843.0058     0.10555E-06 
  33875.2680     0.10596E-06 
  33907.5302     0.10636E-06 
  33939.7923     0.10677E-06 
  33972.0545     0.10718E-06 
  34004.3166     0.10759E-06 
  34036.5788     0.10801E-06 
  34068.8410     0.10842E-06 
  34101.1031     0.10883E-06 
  34133.3653     0.10925E-06 
  34165.6274     0.10967E-06 
  34197.8896     0.11008E-06 
  34230.1518     0.11050E-06 
  34262.4139     0.11092E-06 
  34294.6761     0.11135E-06 
  34326.9382     0.11177E-06 
  34359.2004     0.11219E-06 
  34391.4626     0.11262E-06 
  34423.7247     0.11305E-06 
  34455.9869     0.11347E-06 
  34488.2490     0.11390E-06 
  34520.5112     0.11433E-06 
  34552.7734     0.11476E-06 
  34585.0355     0.11520E-06 
  34617.2977     0.11563E-06 
  34649.5598     0.11607E-06 
  34681.8220     0.11650E-06 
  34714.0842     0.11694E-06 
  34746.3463     0.11738E-06 
  34778.6085     0.11782E-06 
  34810.8706     0.11826E-06 
  34843.1328     0.11870E-06 
  34875.3950     0.11915E-06 
  34907.6571     0.11959E-06 
  34939.9193     0.12004E-06 
  34972.1814     0.12049E-06 
  35004.4436     0.12094E-06 
  35036.7058     0.12139E-06 
  35068.9679     0.12184E-06 
  35101.2301     0.12229E-06 
  35133.4922     0.12274E-06 
  35165.7544     0.12320E-06 
  35198.0166     0.12365E-06 
  35230.2787     0.12411E-06 
  35262.5409     0.12457E-06 
  35294.8030     0.12503E-06 
  35327.0652     0.12549E-06 
  35359.3274     0.12596E-06 
  35391.5895     0.12642E-06 
  35423.8517     0.12688E-06 
  35456.1138     0.12735E-06 
  35488.3760     0.12782E-06 
  35520.6382     0.12829E-06 
  35552.9003     0.12876E-06 
  35585.1625     0.12923E-06 
  35617.4246     0.12970E-06 
  35649.6868     0.13018E-06 
  35681.9490     0.13065E-06 
  35714.2111     0.13113E-06 
  35746.4733     0.13161E-06 
  35778.7354     0.13209E-06 
  35810.9976     0.13257E-06 
  35843.2598     0.13305E-06 
  35875.5219     0.13353E-06 
  35907.7841     0.13402E-06 
  35940.0462     0.13450E-06 
  35972.3084     0.13499E-06 
  36004.5706     0.13548E-06 
  36036.8327     0.13597E-06 
  36069.0949     0.13646E-06 
  36101.3570     0.13696E-06 
  36133.6192     0.13745E-06 
  36165.8814     0.13794E-06 
  36198.1435     0.13844E-06 
  36230.4057     0.13894E-06 
  36262.6678     0.13944E-06 
  36294.9300     0.13994E-06 
  36327.1922     0.14044E-06 
  36359.4543     0.14094E-06 
  36391.7165     0.14145E-06 
  36423.9786     0.14196E-06 
  36456.2408     0.14246E-06 
  36488.5030     0.14297E-06 
  36520.7651     0.14348E-06 
  36553.0273     0.14399E-06 
  36585.2894     0.14451E-06 
  36617.5516     0.14502E-06 
  36649.8138     0.14554E-06 
  36682.0759     0.14605E-06 
  36714.3381     0.14657E-06 
  36746.6002     0.14709E-06 
  36778.8624     0.14761E-06 
  36811.1246     0.14814E-06 
  36843.3867     0.14866E-06 
  36875.6489     0.14919E-06 
  36907.9110     0.14971E-06 
  36940.1732     0.15024E-06 
  36972.4354     0.15077E-06 
  37004.6975     0.15130E-06 
  37036.9597     0.15183E-06 
  37069.2218     0.15237E-06 
  37101.4840     0.15290E-06 
  37133.7462     0.15344E-06 
  37166.0083     0.15398E-06 
  37198.2705     0.15452E-06 
  37230.5326     0.15506E-06 
  37262.7948     0.15560E-06 
  37295.0570     0.15614E-06 
  37327.3191     0.15669E-06 
  37359.5813     0.15723E-06 
  37391.8434     0.15778E-06 
  37424.1056     0.15833E-06 
  37456.3678     0.15888E-06 
  37488.6299     0.15943E-06 
  37520.8921     0.15999E-06 
  37553.1542     0.16054E-06 
  37585.4164     0.16110E-06 
  37617.6786     0.16166E-06 
  37649.9407     0.16222E-06 
  37682.2029     0.16278E-06 
  37714.4650     0.16334E-06 
  37746.7272     0.16390E-06 
  37778.9894     0.16447E-06 
  37811.2515     0.16504E-06 
  37843.5137     0.16560E-06 
  37875.7758     0.16617E-06 
  37908.0380     0.16675E-06 
  37940.3002     0.16732E-06 
  37972.5623     0.16789E-06 
  38004.8245     0.16847E-06 
  38037.0866     0.16904E-06 
  38069.3488     0.16962E-06 
  38101.6110     0.17020E-06 
  38133.8731     0.17078E-06 
  38166.1353     0.17137E-06 
  38198.3974     0.17195E-06 
  38230.6596     0.17254E-06 
  38262.9218     0.17313E-06 
  38295.1839     0.17371E-06 
  38327.4461     0.17430E-06 
  38359.7082     0.17490E-06 
  38391.9704     0.17549E-06 
  38424.2326     0.17609E-06 
  38456.4947     0.17668E-06 
  38488.7569     0.17728E-06 
  38521.0190     0.17788E-06 
  38553.2812     0.17848E-06 
  38585.5434     0.17908E-06 
  38617.8055     0.17969E-06 
  38650.0677     0.18029E-06 
  38682.3298     0.18090E-06 
  38714.5920     0.18151E-06 
  38746.8542     0.18212E-06 
  38779.1163     0.18273E-06 
  38811.3785     0.18334E-06 
  38843.6406     0.18396E-06 
  38875.9028     0.18457E-06 
  38908.1650     0.18519E-06 
  38940.4271     0.18581E-06 
  38972.6893     0.18643E-06 
  39004.9514     0.18706E-06 
  39037.2136     0.18768E-06 
  39069.4758     0.18831E-06 
  39101.7379     0.18893E-06 
  39134.0001     0.18956E-06 
  39166.2622     0.19019E-06 
  39198.5244     0.19082E-06 
  39230.7866     0.19146E-06 
  39263.0487     0.19209E-06 
  39295.3109     0.19273E-06 
  39327.5730     0.19337E-06 
  39359.8352     0.19401E-06 
  39392.0974     0.19465E-06 
  39424.3595     0.19529E-06 
  39456.6217     0.19594E-06 
  39488.8838     0.19658E-06 
  39521.1460     0.19723E-06 
  39553.4082     0.19788E-06 
  39585.6703     0.19853E-06 
  39617.9325     0.19918E-06 
  39650.1946     0.19984E-06 
  39682.4568     0.20049E-06 
  39714.7190     0.20115E-06 
  39746.9811     0.20181E-06 
  39779.2433     0.20247E-06 
  39811.5054     0.20313E-06 
  39843.7676     0.20380E-06 
  39876.0298     0.20446E-06 
  39908.2919     0.20513E-06 
  39940.5541     0.20580E-06 
  39972.8162     0.20647E-06 
  40005.0784     0.20714E-06 
  40037.3406     0.20781E-06 
  40069.6027     0.20849E-06 
  40101.8649     0.20917E-06 
  40134.1270     0.20985E-06 
  40166.3892     0.21053E-06 
  40198.6514     0.21121E-06 
  40230.9135     0.21189E-06 
  40263.1757     0.21258E-06 
  40295.4378     0.21326E-06 
  40327.7000     0.21395E-06 
  40359.9622     0.21464E-06 
  40392.2243     0.21533E-06 
  40424.4865     0.21603E-06 
  40456.7486     0.21672E-06 
  40489.0108     0.21742E-06 
  40521.2730     0.21812E-06 
  40553.5351     0.21882E-06 
  40585.7973     0.21952E-06 
  40618.0594     0.22022E-06 
  40650.3216     0.22093E-06 
  40682.5838     0.22164E-06 
  40714.8459     0.22235E-06 
  40747.1081     0.22306E-06 
  40779.3702     0.22377E-06 
  40811.6324     0.22448E-06 
  40843.8946     0.22520E-06 
  40876.1567     0.22591E-06 
  40908.4189     0.22663E-06 
  40940.6810     0.22735E-06 
  40972.9432     0.22808E-06 
  41005.2054     0.22880E-06 
  41037.4675     0.22953E-06 
  41069.7297     0.23025E-06 
  41101.9918     0.23098E-06 
  41134.2540     0.23172E-06 
  41166.5162     0.23245E-06 
  41198.7783     0.23318E-06 
  41231.0405     0.23392E-06 
  41263.3026     0.23466E-06 
  41295.5648     0.23540E-06 
  41327.8270     0.23614E-06 
  41360.0891     0.23688E-06 
  41392.3513     0.23763E-06 
  41424.6134     0.23837E-06 
  41456.8756     0.23912E-06 
  41489.1378     0.23987E-06 
  41521.3999     0.24062E-06 
  41553.6621     0.24138E-06 
  41585.9242     0.24213E-06 
  41618.1864     0.24289E-06 
  41650.4486     0.24365E-06 
  41682.7107     0.24441E-06 
  41714.9729     0.24517E-06 
  41747.2350     0.24594E-06 
  41779.4972     0.24670E-06 
  41811.7594     0.24747E-06 
  41844.0215     0.24824E-06 
  41876.2837     0.24901E-06 
  41908.5458     0.24979E-06 
  41940.8080     0.25056E-06 
  41973.0702     0.25134E-06 
  42005.3323     0.25212E-06 
  42037.5945     0.25290E-06 
  42069.8566     0.25368E-06 
  42102.1188     0.25447E-06 
  42134.3810     0.25525E-06 
  42166.6431     0.25604E-06 
  42198.9053     0.25683E-06 
  42231.1674     0.25762E-06 
  42263.4296     0.25841E-06 
  42295.6918     0.25921E-06 
  42327.9539     0.26001E-06 
  42360.2161     0.26081E-06 
  42392.4782     0.26161E-06 
  42424.7404     0.26241E-06 
  42457.0026     0.26321E-06 
  42489.2647     0.26402E-06 
  42521.5269     0.26483E-06 
  42553.7890     0.26564E-06 
  42586.0512     0.26645E-06 
  42618.3134     0.26726E-06 
  42650.5755     0.26808E-06 
  42682.8377     0.26890E-06 
  42715.0998     0.26971E-06 
  42747.3620     0.27054E-06 
  42779.6242     0.27136E-06 
  42811.8863     0.27218E-06 
  42844.1485     0.27301E-06 
  42876.4106     0.27384E-06 
  42908.6728     0.27467E-06 
  42940.9350     0.27550E-06 
  42973.1971     0.27634E-06 
  43005.4593     0.27717E-06 
  43037.7214     0.27801E-06 
  43069.9836     0.27885E-06 
  43102.2458     0.27969E-06 
  43134.5079     0.28054E-06 
  43166.7701     0.28138E-06 
  43199.0322     0.28223E-06 
  43231.2944     0.28308E-06 
  43263.5566     0.28393E-06 
  43295.8187     0.28478E-06 
  43328.0809     0.28564E-06 
  43360.3430     0.28650E-06 
  43392.6052     0.28736E-06 
  43424.8674     0.28822E-06 
  43457.1295     0.28908E-06 
  43489.3917     0.28995E-06 
  43521.6538     0.29081E-06 
  43553.9160     0.29168E-06 
  43586.1782     0.29255E-06 
  43618.4403     0.29342E-06 
  43650.7025     0.29430E-06 
  43682.9646     0.29518E-06 
  43715.2268     0.29605E-06 
  43747.4890     0.29693E-06 
  43779.7511     0.29782E-06 
  43812.0133     0.29870E-06 
  43844.2754     0.29959E-06 
  43876.5376     0.30048E-06 
  43908.7998     0.30137E-06 
  43941.0619     0.30226E-06 
  43973.3241     0.30315E-06 
  44005.5862     0.30405E-06 
  44037.8484     0.30495E-06 
  44070.1106     0.30585E-06 
  44102.3727     0.30675E-06 
  44134.6349     0.30766E-06 
  44166.8970     0.30856E-06 
  44199.1592     0.30947E-06 
  44231.4214     0.31038E-06 
  44263.6835     0.31129E-06 
  44295.9457     0.31221E-06 
  44328.2078     0.31312E-06 
  44360.4700     0.31404E-06 
  44392.7322     0.31496E-06 
  44424.9943     0.31588E-06 
  44457.2565     0.31681E-06 
  44489.5186     0.31774E-06 
  44521.7808     0.31866E-06 
  44554.0430     0.31959E-06 
  44586.3051     0.32053E-06 
  44618.5673     0.32146E-06 
  44650.8294     0.32240E-06 
  44683.0916     0.32334E-06 
  44715.3538     0.32428E-06 
  44747.6159     0.32522E-06 
  44779.8781     0.32617E-06 
  44812.1402     0.32711E-06 
  44844.4024     0.32806E-06 
  44876.6646     0.32901E-06 
  44908.9267     0.32997E-06 
  44941.1889     0.33092E-06 
  44973.4510     0.33188E-06 
  45005.7132     0.33284E-06 
  45037.9754     0.33380E-06 
  45070.2375     0.33476E-06 
  45102.4997     0.33573E-06 
  45134.7618     0.33669E-06 
  45167.0240     0.33766E-06 
  45199.2862     0.33864E-06 
  45231.5483     0.33961E-06 
  45263.8105     0.34059E-06 
  45296.0726     0.34156E-06 
  45328.3348     0.34254E-06 
  45360.5970     0.34353E-06 
  45392.8591     0.34451E-06 
  45425.1213     0.34550E-06 
  45457.3834     0.34649E-06 
  45489.6456     0.34748E-06 
  45521.9078     0.34847E-06 
  45554.1699     0.34947E-06 
  45586.4321     0.35046E-06 
  45618.6942     0.35146E-06 
  45650.9564     0.35246E-06 
  45683.2186     0.35347E-06 
  45715.4807     0.35447E-06 
  45747.7429     0.35548E-06 
  45780.0050     0.35649E-06 
  45812.2672     0.35750E-06 
  45844.5294     0.35852E-06 
  45876.7915     0.35953E-06 
  45909.0537     0.36055E-06 
  45941.3158     0.36157E-06 
  45973.5780     0.36260E-06 
  46005.8402     0.36362E-06 
  46038.1023     0.36465E-06 
  46070.3645     0.36568E-06 
  46102.6266     0.36671E-06 
  46134.8888     0.36774E-06 
  46167.1510     0.36878E-06 
  46199.4131     0.36982E-06 
  46231.6753     0.37086E-06 
  46263.9374     0.37190E-06 
  46296.1996     0.37294E-06 
  46328.4618     0.37399E-06 
  46360.7239     0.37504E-06 
  46392.9861     0.37609E-06 
  46425.2482     0.37715E-06 
  46457.5104     0.37820E-06 
  46489.7726     0.37926E-06 
  46522.0347     0.38032E-06 
  46554.2969     0.38138E-06 
  46586.5590     0.38245E-06 
  46618.8212     0.38351E-06 
  46651.0834     0.38458E-06 
  46683.3455     0.38565E-06 
  46715.6077     0.38673E-06 
  46747.8698     0.38780E-06 
  46780.1320     0.38888E-06 
  46812.3942     0.38996E-06 
  46844.6563     0.39104E-06 
  46876.9185     0.39213E-06 
  46909.1806     0.39322E-06 
  46941.4428     0.39431E-06 
  46973.7050     0.39540E-06 
  47005.9671     0.39649E-06 
  47038.2293     0.39759E-06 
  47070.4914     0.39869E-06 
  47102.7536     0.39979E-06 
  47135.0158     0.40089E-06 
  47167.2779     0.40200E-06 
  47199.5401     0.40310E-06 
  47231.8022     0.40421E-06 
  47264.0644     0.40532E-06 
  47296.3266     0.40644E-06 
  47328.5887     0.40756E-06 
  47360.8509     0.40867E-06 
  47393.1130     0.40980E-06 
  47425.3752     0.41092E-06 
  47457.6374     0.41205E-06 
  47489.8995     0.41317E-06 
  47522.1617     0.41430E-06 
  47554.4238     0.41544E-06 
  47586.6860     0.41657E-06 
  47618.9482     0.41771E-06 
  47651.2103     0.41885E-06 
  47683.4725     0.41999E-06 
  47715.7346     0.42114E-06 
  47747.9968     0.42228E-06 
  47780.2590     0.42343E-06 
  47812.5211     0.42458E-06 
  47844.7833     0.42574E-06 
  47877.0454     0.42689E-06 
  47909.3076     0.42805E-06 
  47941.5698     0.42921E-06 
  47973.8319     0.43038E-06 
  48006.0941     0.43154E-06 
  48038.3562     0.43271E-06 
  48070.6184     0.43388E-06 
  48102.8806     0.43505E-06 
  48135.1427     0.43623E-06 
  48167.4049     0.43741E-06 
  48199.6670     0.43859E-06 
  48231.9292     0.43977E-06 
  48264.1914     0.44095E-06 
  48296.4535     0.44214E-06 
  48328.7157     0.44333E-06 
  48360.9778     0.44452E-06 
  48393.2400     0.44572E-06 
  48425.5022     0.44691E-06 
  48457.7643     0.44811E-06 
  48490.0265     0.44931E-06 
  48522.2886     0.45052E-06 
  48554.5508     0.45172E-06 
  48586.8130     0.45293E-06 
  48619.0751     0.45414E-06 
  48651.3373     0.45536E-06 
  48683.5994     0.45657E-06 
  48715.8616     0.45779E-06 
  48748.1238     0.45901E-06 
  48780.3859     0.46024E-06 
  48812.6481     0.46146E-06 
  48844.9102     0.46269E-06 
  48877.1724     0.46392E-06 
  48909.4346     0.46515E-06 
  48941.6967     0.46639E-06 
  48973.9589     0.46763E-06 
  49006.2210     0.46887E-06 
  49038.4832     0.47011E-06 
  49070.7454     0.47136E-06 
  49103.0075     0.47260E-06 
  49135.2697     0.47385E-06 
  49167.5318     0.47511E-06 
  49199.7940     0.47636E-06 
  49232.0562     0.47762E-06 
  49264.3183     0.47888E-06 
  49296.5805     0.48014E-06 
  49328.8426     0.48141E-06 
  49361.1048     0.48268E-06 
  49393.3670     0.48395E-06 
  49425.6291     0.48522E-06 
  49457.8913     0.48650E-06 
  49490.1534     0.48777E-06 
  49522.4156     0.48905E-06 
  49554.6778     0.49034E-06 
  49586.9399     0.49162E-06 
  49619.2021     0.49291E-06 
  49651.4642     0.49420E-06 
  49683.7264     0.49549E-06 
  49715.9886     0.49679E-06 
  49748.2507     0.49809E-06 
  49780.5129     0.49939E-06 
  49812.7750     0.50069E-06 
  49845.0372     0.50200E-06 
  49877.2994     0.50330E-06 
  49909.5615     0.50462E-06 
  49941.8237     0.50593E-06 
  49974.0858     0.50725E-06 
  50006.3480     0.50856E-06 
  50038.6102     0.50988E-06 
  50070.8723     0.51121E-06 
  50103.1345     0.51253E-06 
  50135.3966     0.51386E-06 
  50167.6588     0.51519E-06 
  50199.9210     0.51653E-06 
  50232.1831     0.51787E-06 
  50264.4453     0.51920E-06 
  50296.7074     0.52055E-06 
  50328.9696     0.52189E-06 
  50361.2318     0.52324E-06 
  50393.4939     0.52459E-06 
  50425.7561     0.52594E-06 
  50458.0182     0.52729E-06 
  50490.2804     0.52865E-06 
  50522.5426     0.53001E-06 
  50554.8047     0.53137E-06 
  50587.0669     0.53274E-06 
  50619.3290     0.53411E-06 
  50651.5912     0.53548E-06 
  50683.8534     0.53685E-06 
  50716.1155     0.53823E-06 
  50748.3777     0.53960E-06 
  50780.6398     0.54099E-06 
  50812.9020     0.54237E-06 
  50845.1642     0.54376E-06 
  50877.4263     0.54515E-06 
  50909.6885     0.54654E-06 
  50941.9506     0.54793E-06 
  50974.2128     0.54933E-06 
  51006.4750     0.55073E-06 
  51038.7371     0.55213E-06 
  51070.9993     0.55354E-06 
  51103.2614     0.55494E-06 
  51135.5236     0.55635E-06 
  51167.7858     0.55777E-06 
  51200.0479     0.55918E-06 
  51232.3101     0.56060E-06 
  51264.5722     0.56202E-06 
  51296.8344     0.56345E-06 
  51329.0966     0.56487E-06 
  51361.3587     0.56630E-06 
  51393.6209     0.56773E-06 
  51425.8830     0.56917E-06 
  51458.1452     0.57061E-06 
  51490.4074     0.57205E-06 
  51522.6695     0.57349E-06 
  51554.9317     0.57493E-06 
  51587.1938     0.57638E-06 
  51619.4560     0.57783E-06 
  51651.7182     0.57929E-06 
  51683.9803     0.58074E-06 
  51716.2425     0.58220E-06 
  51748.5046     0.58367E-06 
  51780.7668     0.58513E-06 
  51813.0290     0.58660E-06 
  51845.2911     0.58807E-06 
  51877.5533     0.58954E-06 
  51909.8154     0.59102E-06 
  51942.0776     0.59250E-06 
  51974.3398     0.59398E-06 
  52006.6019     0.59546E-06 
  52038.8641     0.59695E-06 
  52071.1262     0.59844E-06 
  52103.3884     0.59993E-06 
  52135.6506     0.60143E-06 
  52167.9127     0.60292E-06 
  52200.1749     0.60442E-06 
  52232.4370     0.60593E-06 
  52264.6992     0.60744E-06 
  52296.9614     0.60894E-06 
  52329.2235     0.61046E-06 
  52361.4857     0.61197E-06 
  52393.7478     0.61349E-06 
  52426.0100     0.61501E-06 
  52458.2722     0.61653E-06 
  52490.5343     0.61806E-06 
  52522.7965     0.61959E-06 
  52555.0586     0.62112E-06 
  52587.3208     0.62265E-06 
  52619.5830     0.62419E-06 
  52651.8451     0.62573E-06 
  52684.1073     0.62728E-06 
  52716.3694     0.62882E-06 
  52748.6316     0.63037E-06 
  52780.8938     0.63192E-06 
  52813.1559     0.63348E-06 
  52845.4181     0.63504E-06 
  52877.6802     0.63660E-06 
  52909.9424     0.63816E-06 
  52942.2046     0.63973E-06 
  52974.4667     0.64129E-06 
  53006.7289     0.64287E-06 
  53038.9910     0.64444E-06 
  53071.2532     0.64602E-06 
  53103.5154     0.64760E-06 
  53135.7775     0.64918E-06 
  53168.0397     0.65077E-06 
  53200.3018     0.65236E-06 
  53232.5640     0.65395E-06 
  53264.8262     0.65555E-06 
  53297.0883     0.65714E-06 
  53329.3505     0.65875E-06 
  53361.6126     0.66035E-06 
  53393.8748     0.66196E-06 
  53426.1370     0.66357E-06 
  53458.3991     0.66518E-06 
  53490.6613     0.66679E-06 
  53522.9234     0.66841E-06 
  53555.1856     0.67003E-06 
  53587.4478     0.67166E-06 
  53619.7099     0.67329E-06 
  53651.9721     0.67492E-06 
  53684.2342     0.67655E-06 
  53716.4964     0.67819E-06 
  53748.7586     0.67983E-06 
  53781.0207     0.68147E-06 
  53813.2829     0.68311E-06 
  53845.5450     0.68476E-06 
  53877.8072     0.68641E-06 
  53910.0694     0.68807E-06 
  53942.3315     0.68972E-06 
  53974.5937     0.69138E-06 
  54006.8558     0.69305E-06 
  54039.1180     0.69471E-06 
  54071.3802     0.69638E-06 
  54103.6423     0.69805E-06 
  54135.9045     0.69973E-06 
  54168.1666     0.70141E-06 
  54200.4288     0.70309E-06 
  54232.6910     0.70477E-06 
  54264.9531     0.70646E-06 
  54297.2153     0.70815E-06 
  54329.4774     0.70984E-06 
  54361.7396     0.71154E-06 
  54394.0018     0.71324E-06 
  54426.2639     0.71494E-06 
  54458.5261     0.71665E-06 
  54490.7882     0.71836E-06 
  54523.0504     0.72007E-06 
  54555.3126     0.72178E-06 
  54587.5747     0.72350E-06 
  54619.8369     0.72522E-06 
  54652.0990     0.72694E-06 
  54684.3612     0.72867E-06 
  54716.6234     0.73040E-06 
  54748.8855     0.73213E-06 
  54781.1477     0.73387E-06 
  54813.4098     0.73561E-06 
  54845.6720     0.73735E-06 
  54877.9342     0.73910E-06 
  54910.1963     0.74085E-06 
  54942.4585     0.74260E-06 
  54974.7206     0.74435E-06 
  55006.9828     0.74611E-06 
  55039.2450     0.74787E-06 
  55071.5071     0.74963E-06 
  55103.7693     0.75140E-06 
  55136.0314     0.75317E-06 
  55168.2936     0.75494E-06 
  55200.5558     0.75672E-06 
  55232.8179     0.75850E-06 
  55265.0801     0.76028E-06 
  55297.3422     0.76207E-06 
  55329.6044     0.76386E-06 
  55361.8666     0.76565E-06 
  55394.1287     0.76745E-06 
  55426.3909     0.76924E-06 
  55458.6530     0.77105E-06 
  55490.9152     0.77285E-06 
  55523.1774     0.77466E-06 
  55555.4395     0.77647E-06 
  55587.7017     0.77828E-06 
  55619.9638     0.78010E-06 
  55652.2260     0.78192E-06 
  55684.4882     0.78375E-06 
  55716.7503     0.78557E-06 
  55749.0125     0.78740E-06 
  55781.2746     0.78924E-06 
  55813.5368     0.79107E-06 
  55845.7990     0.79291E-06 
  55878.0611     0.79476E-06 
  55910.3233     0.79660E-06 
  55942.5854     0.79845E-06 
  55974.8476     0.80031E-06 
  56007.1098     0.80216E-06 
  56039.3719     0.80402E-06 
  56071.6341     0.80588E-06 
  56103.8962     0.80775E-06 
  56136.1584     0.80962E-06 
  56168.4206     0.81149E-06 
  56200.6827     0.81337E-06 
  56232.9449     0.81524E-06 
  56265.2070     0.81713E-06 
  56297.4692     0.81901E-06 
  56329.7314     0.82090E-06 
  56361.9935     0.82279E-06 
  56394.2557     0.82469E-06 
  56426.5178     0.82658E-06 
  56458.7800     0.82849E-06 
  56491.0422     0.83039E-06 
  56523.3043     0.83230E-06 
  56555.5665     0.83421E-06 
  56587.8286     0.83612E-06 
  56620.0908     0.83804E-06 
  56652.3530     0.83996E-06 
  56684.6151     0.84189E-06 
  56716.8773     0.84382E-06 
  56749.1394     0.84575E-06 
  56781.4016     0.84768E-06 
  56813.6638     0.84962E-06 
  56845.9259     0.85156E-06 
  56878.1881     0.85350E-06 
  56910.4502     0.85545E-06 
  56942.7124     0.85740E-06 
  56974.9746     0.85936E-06 
  57007.2367     0.86131E-06 
  57039.4989     0.86328E-06 
  57071.7610     0.86524E-06 
  57104.0232     0.86721E-06 
  57136.2854     0.86918E-06 
  57168.5475     0.87115E-06 
  57200.8097     0.87313E-06 
  57233.0718     0.87511E-06 
  57265.3340     0.87710E-06 
  57297.5962     0.87909E-06 
  57329.8583     0.88108E-06 
  57362.1205     0.88307E-06 
  57394.3826     0.88507E-06 
  57426.6448     0.88707E-06 
  57458.9070     0.88908E-06 
  57491.1691     0.89108E-06 
  57523.4313     0.89310E-06 
  57555.6934     0.89511E-06 
  57587.9556     0.89713E-06 
  57620.2178     0.89915E-06 
  57652.4799     0.90118E-06 
  57684.7421     0.90320E-06 
  57717.0042     0.90524E-06 
  57749.2664     0.90727E-06 
  57781.5286     0.90931E-06 
  57813.7907     0.91135E-06 
  57846.0529     0.91340E-06 
  57878.3150     0.91545E-06 
  57910.5772     0.91750E-06 
  57942.8394     0.91956E-06 
  57975.1015     0.92162E-06 
  58007.3637     0.92368E-06 
  58039.6258     0.92575E-06 
  58071.8880     0.92782E-06 
  58104.1502     0.92989E-06 
  58136.4123     0.93197E-06 
  58168.6745     0.93405E-06 
  58200.9366     0.93613E-06 
  58233.1988     0.93822E-06 
  58265.4610     0.94031E-06 
  58297.7231     0.94241E-06 
  58329.9853     0.94450E-06 
  58362.2474     0.94660E-06 
  58394.5096     0.94871E-06 
  58426.7718     0.95082E-06 
  58459.0339     0.95293E-06 
  58491.2961     0.95505E-06 
  58523.5582     0.95716E-06 
  58555.8204     0.95929E-06 
  58588.0826     0.96141E-06 
  58620.3447     0.96354E-06 
  58652.6069     0.96568E-06 
  58684.8690     0.96781E-06 
  58717.1312     0.96995E-06 
  58749.3934     0.97210E-06 
  58781.6555     0.97424E-06 
  58813.9177     0.97639E-06 
  58846.1798     0.97855E-06 
  58878.4420     0.98071E-06 
  58910.7042     0.98287E-06 
  58942.9663     0.98503E-06 
  58975.2285     0.98720E-06 
  59007.4906     0.98937E-06 
  59039.7528     0.99155E-06 
  59072.0150     0.99373E-06 
  59104.2771     0.99591E-06 
  59136.5393     0.99810E-06 
  59168.8014     0.10003E-05 
  59201.0636     0.10025E-05 
  59233.3258     0.10047E-05 
  59265.5879     0.10069E-05 
  59297.8501     0.10091E-05 
  59330.1122     0.10113E-05 
  59362.3744     0.10135E-05 
  59394.6366     0.10157E-05 
  59426.8987     0.10179E-05 
  59459.1609     0.10202E-05 
  59491.4230     0.10224E-05 
  59523.6852     0.10246E-05 
  59555.9474     0.10269E-05 
  59588.2095     0.10291E-05 
  59620.4717     0.10313E-05 
  59652.7338     0.10336E-05 
  59684.9960     0.10358E-05 
  59717.2582     0.10381E-05 
  59749.5203     0.10403E-05 
  59781.7825     0.10426E-05 
  59814.0446     0.10449E-05 
  59846.3068     0.10471E-05 
  59878.5690     0.10494E-05 
  59910.8311     0.10517E-05 
  59943.0933     0.10539E-05 
  59975.3554     0.10562E-05 
  60007.6176     0.10585E-05 
  60039.8798     0.10608E-05 
  60072.1419     0.10631E-05 
  60104.4041     0.10654E-05 
  60136.6662     0.10677E-05 
  60168.9284     0.10700E-05 
  60201.1906     0.10723E-05 
  60233.4527     0.10746E-05 
  60265.7149     0.10769E-05 
  60297.9770     0.10792E-05 
  60330.2392     0.10816E-05 
  60362.5014     0.10839E-05 
  60394.7635     0.10862E-05 
  60427.0257     0.10886E-05 
  60459.2878     0.10909E-05 
  60491.5500     0.10932E-05 
  60523.8122     0.10956E-05 
  60556.0743     0.10979E-05 
  60588.3365     0.11003E-05 
  60620.5986     0.11026E-05 
  60652.8608     0.11050E-05 
  60685.1230     0.11074E-05 
  60717.3851     0.11097E-05 
  60749.6473     0.11121E-05 
  60781.9094     0.11145E-05 
  60814.1716     0.11169E-05 
  60846.4338     0.11192E-05 
  60878.6959     0.11216E-05 
  60910.9581     0.11240E-05 
  60943.2202     0.11264E-05 
  60975.4824     0.11288E-05 
  61007.7446     0.11312E-05 
  61040.0067     0.11336E-05 
  61072.2689     0.11360E-05 
  61104.5310     0.11384E-05 
  61136.7932     0.11409E-05 
  61169.0554     0.11433E-05 
  61201.3175     0.11457E-05 
  61233.5797     0.11481E-05 
  61265.8418     0.11506E-05 
  61298.1040     0.11530E-05 
  61330.3662     0.11554E-05 
  61362.6283     0.11579E-05 
  61394.8905     0.11603E-05 
  61427.1526     0.11628E-05 
  61459.4148     0.11652E-05 
  61491.6770     0.11677E-05 
  61523.9391     0.11702E-05 
  61556.2013     0.11726E-05 
  61588.4634     0.11751E-05 
  61620.7256     0.11776E-05 
  61652.9878     0.11801E-05 
  61685.2499     0.11825E-05 
  61717.5121     0.11850E-05 
  61749.7742     0.11875E-05 
  61782.0364     0.11900E-05 
  61814.2986     0.11925E-05 
  61846.5607     0.11950E-05 
  61878.8229     0.11975E-05 
  61911.0850     0.12000E-05 
  61943.3472     0.12025E-05 
  61975.6094     0.12051E-05 
  62007.8715     0.12076E-05 
  62040.1337     0.12101E-05 
  62072.3958     0.12126E-05 
  62104.6580     0.12152E-05 
  62136.9202     0.12177E-05 
  62169.1823     0.12203E-05 
  62201.4445     0.12228E-05 
  62233.7066     0.12254E-05 
  62265.9688     0.12279E-05 
  62298.2310     0.12305E-05 
  62330.4931     0.12330E-05 
  62362.7553     0.12356E-05 
  62395.0174     0.12382E-05 
  62427.2796     0.12407E-05 
  62459.5418     0.12433E-05 
  62491.8039     0.12459E-05 
  62524.0661     0.12485E-05 
  62556.3282     0.12511E-05 
  62588.5904     0.12537E-05 
  62620.8526     0.12563E-05 
  62653.1147     0.12589E-05 
  62685.3769     0.12615E-05 
  62717.6390     0.12641E-05 
  62749.9012     0.12667E-05 
  62782.1634     0.12693E-05 
  62814.4255     0.12719E-05 
  62846.6877     0.12746E-05 
  62878.9498     0.12772E-05 
  62911.2120     0.12798E-05 
  62943.4742     0.12825E-05 
  62975.7363     0.12851E-05 
  63007.9985     0.12878E-05 
  63040.2606     0.12904E-05 
  63072.5228     0.12931E-05 
  63104.7850     0.12957E-05 
  63137.0471     0.12984E-05 
  63169.3093     0.13011E-05 
  63201.5714     0.13037E-05 
  63233.8336     0.13064E-05 
  63266.0958     0.13091E-05 
  63298.3579     0.13118E-05 
  63330.6201     0.13145E-05 
  63362.8822     0.13172E-05 
  63395.1444     0.13199E-05 
  63427.4066     0.13226E-05 
  63459.6687     0.13253E-05 
  63491.9309     0.13280E-05 
  63524.1930     0.13307E-05 
  63556.4552     0.13334E-05 
  63588.7174     0.13361E-05 
  63620.9795     0.13389E-05 
  63653.2417     0.13416E-05 
  63685.5038     0.13443E-05 
  63717.7660     0.13471E-05 
  63750.0282     0.13498E-05 
  63782.2903     0.13525E-05 
  63814.5525     0.13553E-05 
  63846.8146     0.13580E-05 
  63879.0768     0.13608E-05 
  63911.3390     0.13636E-05 
  63943.6011     0.13663E-05 
  63975.8633     0.13691E-05 
  64008.1254     0.13719E-05 
  64040.3876     0.13747E-05 
  64072.6498     0.13774E-05 
  64104.9119     0.13802E-05 
  64137.1741     0.13830E-05 
  64169.4362     0.13858E-05 
  64201.6984     0.13886E-05 
  64233.9606     0.13914E-05 
  64266.2227     0.13942E-05 
  64298.4849     0.13971E-05 
  64330.7470     0.13999E-05 
  64363.0092     0.14027E-05 
  64395.2714     0.14055E-05 
  64427.5335     0.14084E-05 
  64459.7957     0.14112E-05 
  64492.0578     0.14140E-05 
  64524.3200     0.14169E-05 
  64556.5822     0.14197E-05 
  64588.8443     0.14226E-05 
  64621.1065     0.14254E-05 
  64653.3686     0.14283E-05 
  64685.6308     0.14312E-05 
  64717.8930     0.14340E-05 
  64750.1551     0.14369E-05 
  64782.4173     0.14398E-05 
  64814.6794     0.14427E-05 
  64846.9416     0.14456E-05 
  64879.2038     0.14484E-05 
  64911.4659     0.14513E-05 
  64943.7281     0.14542E-05 
  64975.9902     0.14571E-05 
  65008.2524     0.14601E-05 
  65040.5146     0.14630E-05 
  65072.7767     0.14659E-05 
  65105.0389     0.14688E-05 
  65137.3010     0.14717E-05 
  65169.5632     0.14747E-05 
  65201.8254     0.14776E-05 
  65234.0875     0.14805E-05 
  65266.3497     0.14835E-05 
  65298.6118     0.14864E-05 
  65330.8740     0.14894E-05 
  65363.1362     0.14923E-05 
  65395.3983     0.14953E-05 
  65427.6605     0.14983E-05 
  65459.9226     0.15012E-05 
  65492.1848     0.15042E-05 
  65524.4470     0.15072E-05 
  65556.7091     0.15102E-05 
  65588.9713     0.15132E-05 
  65621.2334     0.15161E-05 
  65653.4956     0.15191E-05 
  65685.7578     0.15221E-05 
  65718.0199     0.15252E-05 
  65750.2821     0.15282E-05 
  65782.5442     0.15312E-05 
  65814.8064     0.15342E-05 
  65847.0686     0.15372E-05 
  65879.3307     0.15402E-05 
  65911.5929     0.15433E-05 
  65943.8550     0.15463E-05 
  65976.1172     0.15494E-05 
  66008.3794     0.15524E-05 
  66040.6415     0.15555E-05 
  66072.9037     0.15585E-05 
  66105.1658     0.15616E-05 
  66137.4280     0.15646E-05 
  66169.6902     0.15677E-05 
  66201.9523     0.15708E-05 
  66234.2145     0.15738E-05 
  66266.4766     0.15769E-05 
  66298.7388     0.15800E-05 
  66331.0010     0.15831E-05 
  66363.2631     0.15862E-05 
  66395.5253     0.15893E-05 
  66427.7874     0.15924E-05 
  66460.0496     0.15955E-05 
  66492.3118     0.15986E-05 
  66524.5739     0.16017E-05 
  66556.8361     0.16049E-05 
  66589.0982     0.16080E-05 
  66621.3604     0.16111E-05 
  66653.6226     0.16143E-05 
  66685.8847     0.16174E-05 
  66718.1469     0.16205E-05 
  66750.4090     0.16237E-05 
  66782.6712     0.16269E-05 
  66814.9334     0.16300E-05 
  66847.1955     0.16332E-05 
  66879.4577     0.16363E-05 
  66911.7198     0.16395E-05 
  66943.9820     0.16427E-05 
  66976.2442     0.16459E-05 
  67008.5063     0.16491E-05 
  67040.7685     0.16523E-05 
  67073.0306     0.16555E-05 
  67105.2928     0.16587E-05 
  67137.5550     0.16619E-05 
  67169.8171     0.16651E-05 
  67202.0793     0.16683E-05 
  67234.3414     0.16715E-05 
  67266.6036     0.16747E-05 
  67298.8658     0.16780E-05 
  67331.1279     0.16812E-05 
  67363.3901     0.16844E-05 
  67395.6522     0.16877E-05 
  67427.9144     0.16909E-05 
  67460.1766     0.16942E-05 
  67492.4387     0.16974E-05 
  67524.7009     0.17007E-05 
  67556.9630     0.17040E-05 
  67589.2252     0.17072E-05 
  67621.4874     0.17105E-05 
  67653.7495     0.17138E-05 
  67686.0117     0.17171E-05 
  67718.2738     0.17204E-05 
  67750.5360     0.17236E-05 
  67782.7982     0.17269E-05 
  67815.0603     0.17302E-05 
  67847.3225     0.17336E-05 
  67879.5846     0.17369E-05 
  67911.8468     0.17402E-05 
  67944.1090     0.17435E-05 
  67976.3711     0.17468E-05 
  68008.6333     0.17502E-05 
  68040.8954     0.17535E-05 
  68073.1576     0.17569E-05 
  68105.4198     0.17602E-05 
  68137.6819     0.17635E-05 
  68169.9441     0.17669E-05 
  68202.2062     0.17703E-05 
  68234.4684     0.17736E-05 
  68266.7306     0.17770E-05 
  68298.9927     0.17804E-05 
  68331.2549     0.17838E-05 
  68363.5170     0.17871E-05 
  68395.7792     0.17905E-05 
  68428.0414     0.17939E-05 
  68460.3035     0.17973E-05 
  68492.5657     0.18007E-05 
  68524.8278     0.18041E-05 
  68557.0900     0.18076E-05 
  68589.3522     0.18110E-05 
  68621.6143     0.18144E-05 
  68653.8765     0.18178E-05 
  68686.1386     0.18213E-05 
  68718.4008     0.18247E-05 
  68750.6630     0.18281E-05 
  68782.9251     0.18316E-05 
  68815.1873     0.18350E-05 
  68847.4494     0.18385E-05 
  68879.7116     0.18420E-05 
  68911.9738     0.18454E-05 
  68944.2359     0.18489E-05 
  68976.4981     0.18524E-05 
  69008.7602     0.18559E-05 
  69041.0224     0.18593E-05 
  69073.2846     0.18628E-05 
  69105.5467     0.18663E-05 
  69137.8089     0.18698E-05 
  69170.0710     0.18733E-05 
  69202.3332     0.18769E-05 
  69234.5954     0.18804E-05 
  69266.8575     0.18839E-05 
  69299.1197     0.18874E-05 
  69331.3818     0.18910E-05 
  69363.6440     0.18945E-05 
  69395.9062     0.18980E-05 
  69428.1683     0.19016E-05 
  69460.4305     0.19051E-05 
  69492.6926     0.19087E-05 
  69524.9548     0.19122E-05 
  69557.2170     0.19158E-05 
  69589.4791     0.19194E-05 
  69621.7413     0.19230E-05 
  69654.0034     0.19265E-05 
  69686.2656     0.19301E-05 
  69718.5278     0.19337E-05 
  69750.7899     0.19373E-05 
  69783.0521     0.19409E-05 
  69815.3142     0.19445E-05 
  69847.5764     0.19481E-05 
  69879.8386     0.19517E-05 
  69912.1007     0.19554E-05 
  69944.3629     0.19590E-05 
  69976.6250     0.19626E-05 
  70008.8872     0.19663E-05 
  70041.1494     0.19699E-05 
  70073.4115     0.19736E-05 
  70105.6737     0.19772E-05 
  70137.9358     0.19809E-05 
  70170.1980     0.19845E-05 
  70202.4602     0.19882E-05 
  70234.7223     0.19919E-05 
  70266.9845     0.19955E-05 
  70299.2466     0.19992E-05 
  70331.5088     0.20029E-05 
  70363.7710     0.20066E-05 
  70396.0331     0.20103E-05 
  70428.2953     0.20140E-05 
  70460.5574     0.20177E-05 
  70492.8196     0.20214E-05 
  70525.0818     0.20251E-05 
  70557.3439     0.20289E-05 
  70589.6061     0.20326E-05 
  70621.8682     0.20363E-05 
  70654.1304     0.20401E-05 
  70686.3926     0.20438E-05 
  70718.6547     0.20476E-05 
  70750.9169     0.20513E-05 
  70783.1790     0.20551E-05 
  70815.4412     0.20588E-05 
  70847.7034     0.20626E-05 
  70879.9655     0.20664E-05 
  70912.2277     0.20702E-05 
  70944.4898     0.20739E-05 
  70976.7520     0.20777E-05 
  71009.0142     0.20815E-05 
  71041.2763     0.20853E-05 
  71073.5385     0.20891E-05 
  71105.8006     0.20929E-05 
  71138.0628     0.20968E-05 
  71170.3250     0.21006E-05 
  71202.5871     0.21044E-05 
  71234.8493     0.21082E-05 
  71267.1114     0.21121E-05 
  71299.3736     0.21159E-05 
  71331.6358     0.21198E-05 
  71363.8979     0.21236E-05 
  71396.1601     0.21275E-05 
  71428.4222     0.21313E-05 
  71460.6844     0.21352E-05 
  71492.9466     0.21391E-05 
  71525.2087     0.21430E-05 
  71557.4709     0.21468E-05 
  71589.7330     0.21507E-05 
  71621.9952     0.21546E-05 
  71654.2574     0.21585E-05 
  71686.5195     0.21624E-05 
  71718.7817     0.21663E-05 
  71751.0438     0.21703E-05 
  71783.3060     0.21742E-05 
  71815.5682     0.21781E-05 
  71847.8303     0.21820E-05 
  71880.0925     0.21860E-05 
  71912.3546     0.21899E-05 
  71944.6168     0.21939E-05 
  71976.8790     0.21978E-05 
  72009.1411     0.22018E-05 
  72041.4033     0.22057E-05 
  72073.6654     0.22097E-05 
  72105.9276     0.22137E-05 
  72138.1898     0.22177E-05 
  72170.4519     0.22216E-05 
  72202.7141     0.22256E-05 
  72234.9762     0.22296E-05 
  72267.2384     0.22336E-05 
  72299.5006     0.22376E-05 
  72331.7627     0.22417E-05 
  72364.0249     0.22457E-05 
  72396.2870     0.22497E-05 
  72428.5492     0.22537E-05 
  72460.8114     0.22578E-05 
  72493.0735     0.22618E-05 
  72525.3357     0.22658E-05 
  72557.5978     0.22699E-05 
  72589.8600     0.22739E-05 
