  32262.1600     0.94669E-02 
  32294.4222     0.95659E-02 
  32326.6843     0.96656E-02 
  32358.9465     0.97660E-02 
  32391.2086     0.98671E-02 
  32423.4708     0.99689E-02 
  32455.7330     0.10071E-01 
  32487.9951     0.10174E-01 
  32520.2573     0.10278E-01 
  32552.5194     0.10383E-01 
  32584.7816     0.10488E-01 
  32617.0438     0.10594E-01 
  32649.3059     0.10700E-01 
  32681.5681     0.10808E-01 
  32713.8302     0.10916E-01 
  32746.0924     0.11024E-01 
  32778.3546     0.11134E-01 
  32810.6167     0.11244E-01 
  32842.8789     0.11354E-01 
  32875.1410     0.11466E-01 
  32907.4032     0.11578E-01 
  32939.6654     0.11690E-01 
  32971.9275     0.11804E-01 
  33004.1897     0.11918E-01 
  33036.4518     0.12032E-01 
  33068.7140     0.12148E-01 
  33100.9762     0.12264E-01 
  33133.2383     0.12381E-01 
  33165.5005     0.12498E-01 
  33197.7626     0.12616E-01 
  33230.0248     0.12735E-01 
  33262.2870     0.12854E-01 
  33294.5491     0.12975E-01 
  33326.8113     0.13095E-01 
  33359.0734     0.13217E-01 
  33391.3356     0.13339E-01 
  33423.5978     0.13462E-01 
  33455.8599     0.13585E-01 
  33488.1221     0.13709E-01 
  33520.3842     0.13834E-01 
  33552.6464     0.13959E-01 
  33584.9086     0.14085E-01 
  33617.1707     0.14212E-01 
  33649.4329     0.14339E-01 
  33681.6950     0.14467E-01 
  33713.9572     0.14596E-01 
  33746.2194     0.14725E-01 
  33778.4815     0.14855E-01 
  33810.7437     0.14985E-01 
  33843.0058     0.15116E-01 
  33875.2680     0.15248E-01 
  33907.5302     0.15381E-01 
  33939.7923     0.15514E-01 
  33972.0545     0.15647E-01 
  34004.3166     0.15781E-01 
  34036.5788     0.15916E-01 
  34068.8410     0.16052E-01 
  34101.1031     0.16188E-01 
  34133.3653     0.16324E-01 
  34165.6274     0.16462E-01 
  34197.8896     0.16599E-01 
  34230.1518     0.16738E-01 
  34262.4139     0.16877E-01 
  34294.6761     0.17016E-01 
  34326.9382     0.17157E-01 
  34359.2004     0.17297E-01 
  34391.4626     0.17439E-01 
  34423.7247     0.17581E-01 
  34455.9869     0.17723E-01 
  34488.2490     0.17866E-01 
  34520.5112     0.18010E-01 
  34552.7734     0.18154E-01 
  34585.0355     0.18298E-01 
  34617.2977     0.18443E-01 
  34649.5598     0.18589E-01 
  34681.8220     0.18735E-01 
  34714.0842     0.18882E-01 
  34746.3463     0.19029E-01 
  34778.6085     0.19177E-01 
  34810.8706     0.19326E-01 
  34843.1328     0.19474E-01 
  34875.3950     0.19624E-01 
  34907.6571     0.19774E-01 
  34939.9193     0.19924E-01 
  34972.1814     0.20075E-01 
  35004.4436     0.20226E-01 
  35036.7058     0.20378E-01 
  35068.9679     0.20530E-01 
  35101.2301     0.20683E-01 
  35133.4922     0.20836E-01 
  35165.7544     0.20989E-01 
  35198.0166     0.21143E-01 
  35230.2787     0.21298E-01 
  35262.5409     0.21453E-01 
  35294.8030     0.21608E-01 
  35327.0652     0.21764E-01 
  35359.3274     0.21920E-01 
  35391.5895     0.22076E-01 
  35423.8517     0.22233E-01 
  35456.1138     0.22391E-01 
  35488.3760     0.22548E-01 
  35520.6382     0.22707E-01 
  35552.9003     0.22865E-01 
  35585.1625     0.23024E-01 
  35617.4246     0.23183E-01 
  35649.6868     0.23343E-01 
  35681.9490     0.23503E-01 
  35714.2111     0.23663E-01 
  35746.4733     0.23824E-01 
  35778.7354     0.23984E-01 
  35810.9976     0.24146E-01 
  35843.2598     0.24307E-01 
  35875.5219     0.24469E-01 
  35907.7841     0.24631E-01 
  35940.0462     0.24794E-01 
  35972.3084     0.24957E-01 
  36004.5706     0.25120E-01 
  36036.8327     0.25283E-01 
  36069.0949     0.25446E-01 
  36101.3570     0.25610E-01 
  36133.6192     0.25774E-01 
  36165.8814     0.25939E-01 
  36198.1435     0.26103E-01 
  36230.4057     0.26268E-01 
  36262.6678     0.26433E-01 
  36294.9300     0.26598E-01 
  36327.1922     0.26763E-01 
  36359.4543     0.26929E-01 
  36391.7165     0.27095E-01 
  36423.9786     0.27260E-01 
  36456.2408     0.27427E-01 
  36488.5030     0.27593E-01 
  36520.7651     0.27759E-01 
  36553.0273     0.27926E-01 
  36585.2894     0.28092E-01 
  36617.5516     0.28259E-01 
  36649.8138     0.28426E-01 
  36682.0759     0.28593E-01 
  36714.3381     0.28760E-01 
  36746.6002     0.28927E-01 
  36778.8624     0.29094E-01 
  36811.1246     0.29262E-01 
  36843.3867     0.29429E-01 
  36875.6489     0.29597E-01 
  36907.9110     0.29764E-01 
  36940.1732     0.29932E-01 
  36972.4354     0.30099E-01 
  37004.6975     0.30267E-01 
  37036.9597     0.30434E-01 
  37069.2218     0.30602E-01 
  37101.4840     0.30770E-01 
  37133.7462     0.30937E-01 
  37166.0083     0.31105E-01 
  37198.2705     0.31272E-01 
  37230.5326     0.31440E-01 
  37262.7948     0.31607E-01 
  37295.0570     0.31774E-01 
  37327.3191     0.31942E-01 
  37359.5813     0.32109E-01 
  37391.8434     0.32276E-01 
  37424.1056     0.32443E-01 
  37456.3678     0.32610E-01 
  37488.6299     0.32776E-01 
  37520.8921     0.32943E-01 
  37553.1542     0.33110E-01 
  37585.4164     0.33276E-01 
  37617.6786     0.33442E-01 
  37649.9407     0.33608E-01 
  37682.2029     0.33774E-01 
  37714.4650     0.33940E-01 
  37746.7272     0.34105E-01 
  37778.9894     0.34270E-01 
  37811.2515     0.34435E-01 
  37843.5137     0.34600E-01 
  37875.7758     0.34765E-01 
  37908.0380     0.34929E-01 
  37940.3002     0.35093E-01 
  37972.5623     0.35257E-01 
  38004.8245     0.35421E-01 
  38037.0866     0.35584E-01 
  38069.3488     0.35747E-01 
  38101.6110     0.35910E-01 
  38133.8731     0.36072E-01 
  38166.1353     0.36234E-01 
  38198.3974     0.36396E-01 
  38230.6596     0.36557E-01 
  38262.9218     0.36718E-01 
  38295.1839     0.36879E-01 
  38327.4461     0.37039E-01 
  38359.7082     0.37199E-01 
  38391.9704     0.37359E-01 
  38424.2326     0.37518E-01 
  38456.4947     0.37677E-01 
  38488.7569     0.37835E-01 
  38521.0190     0.37993E-01 
  38553.2812     0.38151E-01 
  38585.5434     0.38308E-01 
  38617.8055     0.38464E-01 
  38650.0677     0.38620E-01 
  38682.3298     0.38776E-01 
  38714.5920     0.38931E-01 
  38746.8542     0.39086E-01 
  38779.1163     0.39240E-01 
  38811.3785     0.39394E-01 
  38843.6406     0.39547E-01 
  38875.9028     0.39700E-01 
  38908.1650     0.39852E-01 
  38940.4271     0.40003E-01 
  38972.6893     0.40154E-01 
  39004.9514     0.40305E-01 
  39037.2136     0.40455E-01 
  39069.4758     0.40604E-01 
  39101.7379     0.40753E-01 
  39134.0001     0.40901E-01 
  39166.2622     0.41048E-01 
  39198.5244     0.41195E-01 
  39230.7866     0.41342E-01 
  39263.0487     0.41487E-01 
  39295.3109     0.41632E-01 
  39327.5730     0.41776E-01 
  39359.8352     0.41920E-01 
  39392.0974     0.42063E-01 
  39424.3595     0.42205E-01 
  39456.6217     0.42347E-01 
  39488.8838     0.42488E-01 
  39521.1460     0.42628E-01 
  39553.4082     0.42767E-01 
  39585.6703     0.42906E-01 
  39617.9325     0.43044E-01 
  39650.1946     0.43181E-01 
  39682.4568     0.43318E-01 
  39714.7190     0.43454E-01 
  39746.9811     0.43589E-01 
  39779.2433     0.43723E-01 
  39811.5054     0.43856E-01 
  39843.7676     0.43989E-01 
  39876.0298     0.44121E-01 
  39908.2919     0.44252E-01 
  39940.5541     0.44382E-01 
  39972.8162     0.44512E-01 
  40005.0784     0.44640E-01 
  40037.3406     0.44768E-01 
  40069.6027     0.44895E-01 
  40101.8649     0.45021E-01 
  40134.1270     0.45146E-01 
  40166.3892     0.45270E-01 
  40198.6514     0.45394E-01 
  40230.9135     0.45516E-01 
  40263.1757     0.45638E-01 
  40295.4378     0.45759E-01 
  40327.7000     0.45878E-01 
  40359.9622     0.45997E-01 
  40392.2243     0.46115E-01 
  40424.4865     0.46232E-01 
  40456.7486     0.46348E-01 
  40489.0108     0.46464E-01 
  40521.2730     0.46578E-01 
  40553.5351     0.46691E-01 
  40585.7973     0.46803E-01 
  40618.0594     0.46915E-01 
  40650.3216     0.47025E-01 
  40682.5838     0.47134E-01 
  40714.8459     0.47243E-01 
  40747.1081     0.47350E-01 
  40779.3702     0.47457E-01 
  40811.6324     0.47562E-01 
  40843.8946     0.47666E-01 
  40876.1567     0.47770E-01 
  40908.4189     0.47872E-01 
  40940.6810     0.47973E-01 
  40972.9432     0.48073E-01 
  41005.2054     0.48172E-01 
  41037.4675     0.48271E-01 
  41069.7297     0.48368E-01 
  41101.9918     0.48464E-01 
  41134.2540     0.48559E-01 
  41166.5162     0.48652E-01 
  41198.7783     0.48745E-01 
  41231.0405     0.48837E-01 
  41263.3026     0.48927E-01 
  41295.5648     0.49017E-01 
  41327.8270     0.49105E-01 
  41360.0891     0.49193E-01 
  41392.3513     0.49279E-01 
  41424.6134     0.49364E-01 
  41456.8756     0.49448E-01 
  41489.1378     0.49531E-01 
  41521.3999     0.49612E-01 
  41553.6621     0.49693E-01 
  41585.9242     0.49772E-01 
  41618.1864     0.49850E-01 
  41650.4486     0.49928E-01 
  41682.7107     0.50004E-01 
  41714.9729     0.50078E-01 
  41747.2350     0.50152E-01 
  41779.4972     0.50224E-01 
  41811.7594     0.50296E-01 
  41844.0215     0.50366E-01 
  41876.2837     0.50435E-01 
  41908.5458     0.50503E-01 
  41940.8080     0.50569E-01 
  41973.0702     0.50635E-01 
  42005.3323     0.50699E-01 
  42037.5945     0.50762E-01 
  42069.8566     0.50824E-01 
  42102.1188     0.50884E-01 
  42134.3810     0.50944E-01 
  42166.6431     0.51002E-01 
  42198.9053     0.51059E-01 
  42231.1674     0.51115E-01 
  42263.4296     0.51170E-01 
  42295.6918     0.51223E-01 
  42327.9539     0.51275E-01 
  42360.2161     0.51326E-01 
  42392.4782     0.51376E-01 
  42424.7404     0.51424E-01 
  42457.0026     0.51472E-01 
  42489.2647     0.51518E-01 
  42521.5269     0.51563E-01 
  42553.7890     0.51606E-01 
  42586.0512     0.51649E-01 
  42618.3134     0.51690E-01 
  42650.5755     0.51730E-01 
  42682.8377     0.51768E-01 
  42715.0998     0.51806E-01 
  42747.3620     0.51842E-01 
  42779.6242     0.51877E-01 
  42811.8863     0.51911E-01 
  42844.1485     0.51943E-01 
  42876.4106     0.51974E-01 
  42908.6728     0.52004E-01 
  42940.9350     0.52033E-01 
  42973.1971     0.52060E-01 
  43005.4593     0.52087E-01 
  43037.7214     0.52112E-01 
  43069.9836     0.52135E-01 
  43102.2458     0.52158E-01 
  43134.5079     0.52179E-01 
  43166.7701     0.52199E-01 
  43199.0322     0.52218E-01 
  43231.2944     0.52235E-01 
  43263.5566     0.52252E-01 
  43295.8187     0.52267E-01 
  43328.0809     0.52280E-01 
  43360.3430     0.52293E-01 
  43392.6052     0.52304E-01 
  43424.8674     0.52314E-01 
  43457.1295     0.52323E-01 
  43489.3917     0.52331E-01 
  43521.6538     0.52337E-01 
  43553.9160     0.52342E-01 
  43586.1782     0.52346E-01 
  43618.4403     0.52348E-01 
  43650.7025     0.52350E-01 
  43682.9646     0.52350E-01 
  43715.2268     0.52349E-01 
  43747.4890     0.52346E-01 
  43779.7511     0.52343E-01 
  43812.0133     0.52338E-01 
  43844.2754     0.52332E-01 
  43876.5376     0.52324E-01 
  43908.7998     0.52316E-01 
  43941.0619     0.52306E-01 
  43973.3241     0.52295E-01 
  44005.5862     0.52283E-01 
  44037.8484     0.52270E-01 
  44070.1106     0.52255E-01 
  44102.3727     0.52239E-01 
  44134.6349     0.52222E-01 
  44166.8970     0.52204E-01 
  44199.1592     0.52184E-01 
  44231.4214     0.52164E-01 
  44263.6835     0.52142E-01 
  44295.9457     0.52119E-01 
  44328.2078     0.52095E-01 
  44360.4700     0.52069E-01 
  44392.7322     0.52043E-01 
  44424.9943     0.52015E-01 
  44457.2565     0.51986E-01 
  44489.5186     0.51956E-01 
  44521.7808     0.51924E-01 
  44554.0430     0.51892E-01 
  44586.3051     0.51858E-01 
  44618.5673     0.51823E-01 
  44650.8294     0.51787E-01 
  44683.0916     0.51750E-01 
  44715.3538     0.51712E-01 
  44747.6159     0.51672E-01 
  44779.8781     0.51632E-01 
  44812.1402     0.51590E-01 
  44844.4024     0.51547E-01 
  44876.6646     0.51503E-01 
  44908.9267     0.51458E-01 
  44941.1889     0.51412E-01 
  44973.4510     0.51364E-01 
  45005.7132     0.51316E-01 
  45037.9754     0.51266E-01 
  45070.2375     0.51215E-01 
  45102.4997     0.51164E-01 
  45134.7618     0.51111E-01 
  45167.0240     0.51057E-01 
  45199.2862     0.51001E-01 
  45231.5483     0.50945E-01 
  45263.8105     0.50888E-01 
  45296.0726     0.50830E-01 
  45328.3348     0.50770E-01 
  45360.5970     0.50710E-01 
  45392.8591     0.50648E-01 
  45425.1213     0.50586E-01 
  45457.3834     0.50522E-01 
  45489.6456     0.50457E-01 
  45521.9078     0.50392E-01 
  45554.1699     0.50325E-01 
  45586.4321     0.50257E-01 
  45618.6942     0.50188E-01 
  45650.9564     0.50119E-01 
  45683.2186     0.50048E-01 
  45715.4807     0.49976E-01 
  45747.7429     0.49903E-01 
  45780.0050     0.49829E-01 
  45812.2672     0.49754E-01 
  45844.5294     0.49679E-01 
  45876.7915     0.49602E-01 
  45909.0537     0.49524E-01 
  45941.3158     0.49445E-01 
  45973.5780     0.49366E-01 
  46005.8402     0.49285E-01 
  46038.1023     0.49204E-01 
  46070.3645     0.49121E-01 
  46102.6266     0.49038E-01 
  46134.8888     0.48953E-01 
  46167.1510     0.48868E-01 
  46199.4131     0.48782E-01 
  46231.6753     0.48695E-01 
  46263.9374     0.48607E-01 
  46296.1996     0.48518E-01 
  46328.4618     0.48428E-01 
  46360.7239     0.48337E-01 
  46392.9861     0.48246E-01 
  46425.2482     0.48153E-01 
  46457.5104     0.48060E-01 
  46489.7726     0.47966E-01 
  46522.0347     0.47871E-01 
  46554.2969     0.47775E-01 
  46586.5590     0.47679E-01 
  46618.8212     0.47581E-01 
  46651.0834     0.47483E-01 
  46683.3455     0.47384E-01 
  46715.6077     0.47284E-01 
  46747.8698     0.47183E-01 
  46780.1320     0.47081E-01 
  46812.3942     0.46979E-01 
  46844.6563     0.46876E-01 
  46876.9185     0.46772E-01 
  46909.1806     0.46667E-01 
  46941.4428     0.46562E-01 
  46973.7050     0.46456E-01 
  47005.9671     0.46349E-01 
  47038.2293     0.46241E-01 
  47070.4914     0.46133E-01 
  47102.7536     0.46024E-01 
  47135.0158     0.45914E-01 
  47167.2779     0.45803E-01 
  47199.5401     0.45692E-01 
  47231.8022     0.45580E-01 
  47264.0644     0.45467E-01 
  47296.3266     0.45354E-01 
  47328.5887     0.45240E-01 
  47360.8509     0.45125E-01 
  47393.1130     0.45010E-01 
  47425.3752     0.44894E-01 
  47457.6374     0.44777E-01 
  47489.8995     0.44660E-01 
  47522.1617     0.44542E-01 
  47554.4238     0.44424E-01 
  47586.6860     0.44305E-01 
  47618.9482     0.44185E-01 
  47651.2103     0.44064E-01 
  47683.4725     0.43943E-01 
  47715.7346     0.43822E-01 
  47747.9968     0.43700E-01 
  47780.2590     0.43577E-01 
  47812.5211     0.43454E-01 
  47844.7833     0.43330E-01 
  47877.0454     0.43205E-01 
  47909.3076     0.43080E-01 
  47941.5698     0.42955E-01 
  47973.8319     0.42829E-01 
  48006.0941     0.42702E-01 
  48038.3562     0.42575E-01 
  48070.6184     0.42448E-01 
  48102.8806     0.42320E-01 
  48135.1427     0.42191E-01 
  48167.4049     0.42062E-01 
  48199.6670     0.41933E-01 
  48231.9292     0.41803E-01 
  48264.1914     0.41672E-01 
  48296.4535     0.41541E-01 
  48328.7157     0.41410E-01 
  48360.9778     0.41278E-01 
  48393.2400     0.41146E-01 
  48425.5022     0.41013E-01 
  48457.7643     0.40880E-01 
  48490.0265     0.40746E-01 
  48522.2886     0.40612E-01 
  48554.5508     0.40478E-01 
  48586.8130     0.40343E-01 
  48619.0751     0.40208E-01 
  48651.3373     0.40073E-01 
  48683.5994     0.39937E-01 
  48715.8616     0.39801E-01 
  48748.1238     0.39664E-01 
  48780.3859     0.39527E-01 
  48812.6481     0.39390E-01 
  48844.9102     0.39252E-01 
  48877.1724     0.39114E-01 
  48909.4346     0.38976E-01 
  48941.6967     0.38837E-01 
  48973.9589     0.38699E-01 
  49006.2210     0.38559E-01 
  49038.4832     0.38420E-01 
  49070.7454     0.38280E-01 
  49103.0075     0.38140E-01 
  49135.2697     0.38000E-01 
  49167.5318     0.37859E-01 
  49199.7940     0.37718E-01 
  49232.0562     0.37577E-01 
  49264.3183     0.37436E-01 
  49296.5805     0.37294E-01 
  49328.8426     0.37152E-01 
  49361.1048     0.37010E-01 
  49393.3670     0.36868E-01 
  49425.6291     0.36726E-01 
  49457.8913     0.36583E-01 
  49490.1534     0.36440E-01 
  49522.4156     0.36297E-01 
  49554.6778     0.36154E-01 
  49586.9399     0.36010E-01 
  49619.2021     0.35867E-01 
  49651.4642     0.35723E-01 
  49683.7264     0.35579E-01 
  49715.9886     0.35435E-01 
  49748.2507     0.35290E-01 
  49780.5129     0.35146E-01 
  49812.7750     0.35002E-01 
  49845.0372     0.34857E-01 
  49877.2994     0.34712E-01 
  49909.5615     0.34567E-01 
  49941.8237     0.34422E-01 
  49974.0858     0.34277E-01 
  50006.3480     0.34132E-01 
  50038.6102     0.33987E-01 
  50070.8723     0.33841E-01 
  50103.1345     0.33696E-01 
  50135.3966     0.33550E-01 
  50167.6588     0.33405E-01 
  50199.9210     0.33259E-01 
  50232.1831     0.33114E-01 
  50264.4453     0.32968E-01 
  50296.7074     0.32822E-01 
  50328.9696     0.32676E-01 
  50361.2318     0.32530E-01 
  50393.4939     0.32385E-01 
  50425.7561     0.32239E-01 
  50458.0182     0.32093E-01 
  50490.2804     0.31947E-01 
  50522.5426     0.31801E-01 
  50554.8047     0.31655E-01 
  50587.0669     0.31509E-01 
  50619.3290     0.31363E-01 
  50651.5912     0.31218E-01 
  50683.8534     0.31072E-01 
  50716.1155     0.30926E-01 
  50748.3777     0.30780E-01 
  50780.6398     0.30635E-01 
  50812.9020     0.30489E-01 
  50845.1642     0.30343E-01 
  50877.4263     0.30198E-01 
  50909.6885     0.30052E-01 
  50941.9506     0.29907E-01 
  50974.2128     0.29762E-01 
  51006.4750     0.29616E-01 
  51038.7371     0.29471E-01 
  51070.9993     0.29326E-01 
  51103.2614     0.29181E-01 
  51135.5236     0.29036E-01 
  51167.7858     0.28892E-01 
  51200.0479     0.28747E-01 
  51232.3101     0.28603E-01 
  51264.5722     0.28458E-01 
  51296.8344     0.28314E-01 
  51329.0966     0.28170E-01 
  51361.3587     0.28026E-01 
  51393.6209     0.27882E-01 
  51425.8830     0.27738E-01 
  51458.1452     0.27595E-01 
  51490.4074     0.27451E-01 
  51522.6695     0.27308E-01 
  51554.9317     0.27165E-01 
  51587.1938     0.27022E-01 
  51619.4560     0.26879E-01 
  51651.7182     0.26737E-01 
  51683.9803     0.26594E-01 
  51716.2425     0.26452E-01 
  51748.5046     0.26310E-01 
  51780.7668     0.26168E-01 
  51813.0290     0.26026E-01 
  51845.2911     0.25885E-01 
  51877.5533     0.25744E-01 
  51909.8154     0.25603E-01 
  51942.0776     0.25462E-01 
  51974.3398     0.25321E-01 
  52006.6019     0.25181E-01 
  52038.8641     0.25041E-01 
  52071.1262     0.24901E-01 
  52103.3884     0.24761E-01 
  52135.6506     0.24622E-01 
  52167.9127     0.24483E-01 
  52200.1749     0.24344E-01 
  52232.4370     0.24205E-01 
  52264.6992     0.24067E-01 
  52296.9614     0.23928E-01 
  52329.2235     0.23790E-01 
  52361.4857     0.23653E-01 
  52393.7478     0.23515E-01 
  52426.0100     0.23378E-01 
  52458.2722     0.23241E-01 
  52490.5343     0.23105E-01 
  52522.7965     0.22969E-01 
  52555.0586     0.22832E-01 
  52587.3208     0.22697E-01 
  52619.5830     0.22561E-01 
  52651.8451     0.22426E-01 
  52684.1073     0.22291E-01 
  52716.3694     0.22157E-01 
  52748.6316     0.22023E-01 
  52780.8938     0.21889E-01 
  52813.1559     0.21755E-01 
  52845.4181     0.21622E-01 
  52877.6802     0.21489E-01 
  52909.9424     0.21356E-01 
  52942.2046     0.21224E-01 
  52974.4667     0.21092E-01 
  53006.7289     0.20960E-01 
  53038.9910     0.20828E-01 
  53071.2532     0.20697E-01 
  53103.5154     0.20567E-01 
  53135.7775     0.20436E-01 
  53168.0397     0.20306E-01 
  53200.3018     0.20177E-01 
  53232.5640     0.20047E-01 
  53264.8262     0.19918E-01 
  53297.0883     0.19789E-01 
  53329.3505     0.19661E-01 
  53361.6126     0.19533E-01 
  53393.8748     0.19406E-01 
  53426.1370     0.19278E-01 
  53458.3991     0.19151E-01 
  53490.6613     0.19025E-01 
  53522.9234     0.18899E-01 
  53555.1856     0.18773E-01 
  53587.4478     0.18648E-01 
  53619.7099     0.18522E-01 
  53651.9721     0.18398E-01 
  53684.2342     0.18273E-01 
  53716.4964     0.18150E-01 
  53748.7586     0.18026E-01 
  53781.0207     0.17903E-01 
  53813.2829     0.17780E-01 
  53845.5450     0.17658E-01 
  53877.8072     0.17536E-01 
  53910.0694     0.17414E-01 
  53942.3315     0.17293E-01 
  53974.5937     0.17172E-01 
  54006.8558     0.17051E-01 
  54039.1180     0.16931E-01 
  54071.3802     0.16812E-01 
  54103.6423     0.16692E-01 
  54135.9045     0.16574E-01 
  54168.1666     0.16455E-01 
  54200.4288     0.16337E-01 
  54232.6910     0.16219E-01 
  54264.9531     0.16102E-01 
  54297.2153     0.15985E-01 
  54329.4774     0.15869E-01 
  54361.7396     0.15753E-01 
  54394.0018     0.15637E-01 
  54426.2639     0.15522E-01 
  54458.5261     0.15407E-01 
  54490.7882     0.15293E-01 
  54523.0504     0.15179E-01 
  54555.3126     0.15065E-01 
  54587.5747     0.14952E-01 
  54619.8369     0.14839E-01 
  54652.0990     0.14727E-01 
  54684.3612     0.14615E-01 
  54716.6234     0.14504E-01 
  54748.8855     0.14393E-01 
  54781.1477     0.14282E-01 
  54813.4098     0.14172E-01 
  54845.6720     0.14062E-01 
  54877.9342     0.13953E-01 
  54910.1963     0.13844E-01 
  54942.4585     0.13735E-01 
  54974.7206     0.13627E-01 
  55006.9828     0.13520E-01 
  55039.2450     0.13412E-01 
  55071.5071     0.13306E-01 
  55103.7693     0.13199E-01 
  55136.0314     0.13094E-01 
  55168.2936     0.12988E-01 
  55200.5558     0.12883E-01 
  55232.8179     0.12778E-01 
  55265.0801     0.12674E-01 
  55297.3422     0.12571E-01 
  55329.6044     0.12467E-01 
  55361.8666     0.12364E-01 
  55394.1287     0.12262E-01 
  55426.3909     0.12160E-01 
  55458.6530     0.12058E-01 
  55490.9152     0.11957E-01 
  55523.1774     0.11857E-01 
  55555.4395     0.11756E-01 
  55587.7017     0.11657E-01 
  55619.9638     0.11557E-01 
  55652.2260     0.11458E-01 
  55684.4882     0.11360E-01 
  55716.7503     0.11262E-01 
  55749.0125     0.11164E-01 
  55781.2746     0.11067E-01 
  55813.5368     0.10970E-01 
  55845.7990     0.10874E-01 
  55878.0611     0.10778E-01 
  55910.3233     0.10683E-01 
  55942.5854     0.10588E-01 
  55974.8476     0.10493E-01 
  56007.1098     0.10399E-01 
  56039.3719     0.10306E-01 
  56071.6341     0.10212E-01 
  56103.8962     0.10120E-01 
  56136.1584     0.10027E-01 
  56168.4206     0.99354E-02 
  56200.6827     0.98440E-02 
  56232.9449     0.97530E-02 
  56265.2070     0.96625E-02 
  56297.4692     0.95723E-02 
  56329.7314     0.94827E-02 
  56361.9935     0.93935E-02 
  56394.2557     0.93047E-02 
  56426.5178     0.92163E-02 
  56458.7800     0.91284E-02 
  56491.0422     0.90410E-02 
  56523.3043     0.89539E-02 
  56555.5665     0.88674E-02 
  56587.8286     0.87812E-02 
  56620.0908     0.86955E-02 
  56652.3530     0.86103E-02 
  56684.6151     0.85254E-02 
  56716.8773     0.84411E-02 
  56749.1394     0.83571E-02 
  56781.4016     0.82736E-02 
  56813.6638     0.81906E-02 
  56845.9259     0.81079E-02 
  56878.1881     0.80257E-02 
  56910.4502     0.79440E-02 
  56942.7124     0.78627E-02 
  56974.9746     0.77818E-02 
  57007.2367     0.77014E-02 
  57039.4989     0.76214E-02 
  57071.7610     0.75418E-02 
  57104.0232     0.74627E-02 
  57136.2854     0.73840E-02 
  57168.5475     0.73057E-02 
  57200.8097     0.72279E-02 
  57233.0718     0.71505E-02 
  57265.3340     0.70736E-02 
  57297.5962     0.69971E-02 
  57329.8583     0.69210E-02 
  57362.1205     0.68454E-02 
  57394.3826     0.67702E-02 
  57426.6448     0.66954E-02 
  57458.9070     0.66210E-02 
  57491.1691     0.65471E-02 
  57523.4313     0.64736E-02 
  57555.6934     0.64006E-02 
  57587.9556     0.63280E-02 
  57620.2178     0.62558E-02 
  57652.4799     0.61841E-02 
  57684.7421     0.61127E-02 
  57717.0042     0.60419E-02 
  57749.2664     0.59714E-02 
  57781.5286     0.59014E-02 
  57813.7907     0.58318E-02 
  57846.0529     0.57626E-02 
  57878.3150     0.56939E-02 
  57910.5772     0.56256E-02 
  57942.8394     0.55577E-02 
  57975.1015     0.54902E-02 
  58007.3637     0.54232E-02 
  58039.6258     0.53566E-02 
  58071.8880     0.52904E-02 
  58104.1502     0.52247E-02 
  58136.4123     0.51594E-02 
  58168.6745     0.50945E-02 
  58200.9366     0.50301E-02 
  58233.1988     0.49660E-02 
  58265.4610     0.49024E-02 
  58297.7231     0.48392E-02 
  58329.9853     0.47765E-02 
  58362.2474     0.47142E-02 
  58394.5096     0.46523E-02 
  58426.7718     0.45908E-02 
  58459.0339     0.45298E-02 
  58491.2961     0.44691E-02 
  58523.5582     0.44089E-02 
  58555.8204     0.43492E-02 
  58588.0826     0.42898E-02 
  58620.3447     0.42309E-02 
  58652.6069     0.41724E-02 
  58684.8690     0.41144E-02 
  58717.1312     0.40567E-02 
  58749.3934     0.39995E-02 
  58781.6555     0.39427E-02 
  58813.9177     0.38864E-02 
  58846.1798     0.38304E-02 
  58878.4420     0.37749E-02 
  58910.7042     0.37198E-02 
  58942.9663     0.36652E-02 
  58975.2285     0.36109E-02 
  59007.4906     0.35571E-02 
  59039.7528     0.35038E-02 
  59072.0150     0.34508E-02 
  59104.2771     0.33983E-02 
  59136.5393     0.33462E-02 
  59168.8014     0.32945E-02 
  59201.0636     0.32433E-02 
  59233.3258     0.31925E-02 
  59265.5879     0.31421E-02 
  59297.8501     0.30922E-02 
  59330.1122     0.30427E-02 
  59362.3744     0.29936E-02 
  59394.6366     0.29449E-02 
  59426.8987     0.28967E-02 
  59459.1609     0.28489E-02 
  59491.4230     0.28016E-02 
  59523.6852     0.27547E-02 
  59555.9474     0.27082E-02 
  59588.2095     0.26622E-02 
  59620.4717     0.26165E-02 
  59652.7338     0.25714E-02 
  59684.9960     0.25266E-02 
  59717.2582     0.24823E-02 
  59749.5203     0.24385E-02 
  59781.7825     0.23951E-02 
  59814.0446     0.23521E-02 
  59846.3068     0.23096E-02 
  59878.5690     0.22675E-02 
  59910.8311     0.22259E-02 
  59943.0933     0.21847E-02 
  59975.3554     0.21440E-02 
  60007.6176     0.21037E-02 
  60039.8798     0.20638E-02 
  60072.1419     0.20244E-02 
  60104.4041     0.19855E-02 
  60136.6662     0.19470E-02 
  60168.9284     0.19090E-02 
  60201.1906     0.18715E-02 
  60233.4527     0.18344E-02 
  60265.7149     0.17977E-02 
  60297.9770     0.17616E-02 
  60330.2392     0.17259E-02 
  60362.5014     0.16906E-02 
  60394.7635     0.16558E-02 
  60427.0257     0.16215E-02 
  60459.2878     0.15877E-02 
  60491.5500     0.15544E-02 
  60523.8122     0.15215E-02 
  60556.0743     0.14891E-02 
  60588.3365     0.14572E-02 
  60620.5986     0.14258E-02 
  60652.8608     0.13948E-02 
  60685.1230     0.13644E-02 
  60717.3851     0.13344E-02 
  60749.6473     0.13050E-02 
  60781.9094     0.12760E-02 
  60814.1716     0.12476E-02 
  60846.4338     0.12196E-02 
  60878.6959     0.11922E-02 
  60910.9581     0.11652E-02 
  60943.2202     0.11388E-02 
  60975.4824     0.11129E-02 
  61007.7446     0.10875E-02 
  61040.0067     0.10626E-02 
  61072.2689     0.10383E-02 
  61104.5310     0.10144E-02 
  61136.7932     0.99116E-03 
  61169.0554     0.96841E-03 
  61201.3175     0.94620E-03 
  61233.5797     0.92454E-03 
  61265.8418     0.90342E-03 
  61298.1040     0.88286E-03 
  61330.3662     0.86285E-03 
  61362.6283     0.84340E-03 
  61394.8905     0.82452E-03 
  61427.1526     0.80620E-03 
  61459.4148     0.78846E-03 
  61491.6770     0.77129E-03 
  61523.9391     0.75471E-03 
  61556.2013     0.73871E-03 
  61588.4634     0.72331E-03 
  61620.7256     0.70850E-03 
  61652.9878     0.69429E-03 
  61685.2499     0.68070E-03 
  61717.5121     0.66771E-03 
  61749.7742     0.65534E-03 
  61782.0364     0.64359E-03 
  61814.2986     0.63248E-03 
  61846.5607     0.62199E-03 
  61878.8229     0.61215E-03 
  61911.0850     0.60295E-03 
  61943.3472     0.59441E-03 
  61975.6094     0.58652E-03 
  62007.8715     0.57930E-03 
  62040.1337     0.57274E-03 
  62072.3958     0.56687E-03 
  62104.6580     0.56168E-03 
  62136.9202     0.55718E-03 
  62169.1823     0.55338E-03 
  62201.4445     0.55028E-03 
  62233.7066     0.54789E-03 
  62265.9688     0.54623E-03 
  62298.2310     0.54528E-03 
  62330.4931     0.54508E-03 
  62362.7553     0.54561E-03 
  62395.0174     0.54690E-03 
  62427.2796     0.54894E-03 
  62459.5418     0.55174E-03 
  62491.8039     0.55532E-03 
  62524.0661     0.55968E-03 
  62556.3282     0.56484E-03 
  62588.5904     0.57079E-03 
  62620.8526     0.57754E-03 
  62653.1147     0.58512E-03 
  62685.3769     0.59352E-03 
  62717.6390     0.60276E-03 
  62749.9012     0.61284E-03 
  62782.1634     0.62377E-03 
  62814.4255     0.63557E-03 
  62846.6877     0.64824E-03 
  62878.9498     0.66179E-03 
  62911.2120     0.67624E-03 
  62943.4742     0.69159E-03 
  62975.7363     0.70786E-03 
  63007.9985     0.72505E-03 
  63040.2606     0.74318E-03 
  63072.5228     0.76226E-03 
  63104.7850     0.78229E-03 
  63137.0471     0.80329E-03 
  63169.3093     0.82527E-03 
  63201.5714     0.84825E-03 
  63233.8336     0.87223E-03 
  63266.0958     0.89723E-03 
  63298.3579     0.92325E-03 
  63330.6201     0.95032E-03 
  63362.8822     0.97844E-03 
  63395.1444     0.10076E-02 
  63427.4066     0.10379E-02 
  63459.6687     0.10693E-02 
  63491.9309     0.11017E-02 
  63524.1930     0.11353E-02 
  63556.4552     0.11700E-02 
  63588.7174     0.12059E-02 
  63620.9795     0.12429E-02 
  63653.2417     0.12811E-02 
  63685.5038     0.13205E-02 
  63717.7660     0.13611E-02 
  63750.0282     0.14029E-02 
  63782.2903     0.14460E-02 
  63814.5525     0.14903E-02 
  63846.8146     0.15359E-02 
  63879.0768     0.15827E-02 
  63911.3390     0.16309E-02 
  63943.6011     0.16803E-02 
  63975.8633     0.17311E-02 
  64008.1254     0.17833E-02 
  64040.3876     0.18368E-02 
  64072.6498     0.18917E-02 
  64104.9119     0.19480E-02 
  64137.1741     0.20057E-02 
  64169.4362     0.20648E-02 
  64201.6984     0.21254E-02 
  64233.9606     0.21874E-02 
  64266.2227     0.22510E-02 
  64298.4849     0.23160E-02 
  64330.7470     0.23826E-02 
  64363.0092     0.24507E-02 
  64395.2714     0.25204E-02 
  64427.5335     0.25917E-02 
  64459.7957     0.26646E-02 
  64492.0578     0.27391E-02 
  64524.3200     0.28152E-02 
  64556.5822     0.28930E-02 
  64588.8443     0.29725E-02 
  64621.1065     0.30537E-02 
  64653.3686     0.31366E-02 
  64685.6308     0.32213E-02 
  64717.8930     0.33078E-02 
  64750.1551     0.33960E-02 
  64782.4173     0.34861E-02 
  64814.6794     0.35780E-02 
  64846.9416     0.36717E-02 
  64879.2038     0.37674E-02 
  64911.4659     0.38649E-02 
  64943.7281     0.39644E-02 
  64975.9902     0.40658E-02 
  65008.2524     0.41692E-02 
  65040.5146     0.42746E-02 
  65072.7767     0.43821E-02 
  65105.0389     0.44916E-02 
  65137.3010     0.46031E-02 
  65169.5632     0.47168E-02 
  65201.8254     0.48326E-02 
  65234.0875     0.49506E-02 
  65266.3497     0.50707E-02 
  65298.6118     0.51931E-02 
  65330.8740     0.53176E-02 
  65363.1362     0.54445E-02 
  65395.3983     0.55736E-02 
  65427.6605     0.57050E-02 
  65459.9226     0.58388E-02 
  65492.1848     0.59750E-02 
  65524.4470     0.61136E-02 
  65556.7091     0.62545E-02 
  65588.9713     0.63980E-02 
  65621.2334     0.65439E-02 
  65653.4956     0.66924E-02 
  65685.7578     0.68434E-02 
  65718.0199     0.69970E-02 
  65750.2821     0.71531E-02 
  65782.5442     0.73120E-02 
  65814.8064     0.74735E-02 
  65847.0686     0.76376E-02 
  65879.3307     0.78046E-02 
  65911.5929     0.79742E-02 
  65943.8550     0.81467E-02 
  65976.1172     0.83220E-02 
  66008.3794     0.85002E-02 
  66040.6415     0.86812E-02 
  66072.9037     0.88652E-02 
  66105.1658     0.90522E-02 
  66137.4280     0.92421E-02 
  66169.6902     0.94351E-02 
  66201.9523     0.96311E-02 
  66234.2145     0.98302E-02 
  66266.4766     0.10032E-01 
  66298.7388     0.10238E-01 
  66331.0010     0.10446E-01 
  66363.2631     0.10658E-01 
  66395.5253     0.10873E-01 
  66427.7874     0.11092E-01 
  66460.0496     0.11314E-01 
  66492.3118     0.11539E-01 
  66524.5739     0.11767E-01 
  66556.8361     0.11999E-01 
  66589.0982     0.12235E-01 
  66621.3604     0.12474E-01 
  66653.6226     0.12717E-01 
  66685.8847     0.12963E-01 
  66718.1469     0.13213E-01 
  66750.4090     0.13466E-01 
  66782.6712     0.13723E-01 
  66814.9334     0.13985E-01 
  66847.1955     0.14249E-01 
  66879.4577     0.14518E-01 
  66911.7198     0.14791E-01 
  66943.9820     0.15067E-01 
  66976.2442     0.15348E-01 
  67008.5063     0.15632E-01 
  67040.7685     0.15921E-01 
  67073.0306     0.16213E-01 
  67105.2928     0.16510E-01 
  67137.5550     0.16811E-01 
  67169.8171     0.17116E-01 
  67202.0793     0.17425E-01 
  67234.3414     0.17739E-01 
  67266.6036     0.18057E-01 
  67298.8658     0.18379E-01 
  67331.1279     0.18706E-01 
  67363.3901     0.19037E-01 
  67395.6522     0.19373E-01 
  67427.9144     0.19714E-01 
  67460.1766     0.20059E-01 
  67492.4387     0.20408E-01 
  67524.7009     0.20763E-01 
  67556.9630     0.21122E-01 
  67589.2252     0.21485E-01 
  67621.4874     0.21854E-01 
  67653.7495     0.22228E-01 
  67686.0117     0.22606E-01 
  67718.2738     0.22989E-01 
  67750.5360     0.23378E-01 
  67782.7982     0.23771E-01 
  67815.0603     0.24170E-01 
  67847.3225     0.24574E-01 
  67879.5846     0.24983E-01 
  67911.8468     0.25397E-01 
  67944.1090     0.25816E-01 
  67976.3711     0.26241E-01 
  68008.6333     0.26671E-01 
  68040.8954     0.27107E-01 
  68073.1576     0.27548E-01 
  68105.4198     0.27995E-01 
  68137.6819     0.28447E-01 
  68169.9441     0.28905E-01 
  68202.2062     0.29369E-01 
  68234.4684     0.29838E-01 
  68266.7306     0.30313E-01 
  68298.9927     0.30794E-01 
  68331.2549     0.31280E-01 
  68363.5170     0.31773E-01 
  68395.7792     0.32272E-01 
  68428.0414     0.32776E-01 
  68460.3035     0.33287E-01 
  68492.5657     0.33804E-01 
  68524.8278     0.34327E-01 
  68557.0900     0.34856E-01 
  68589.3522     0.35392E-01 
  68621.6143     0.35933E-01 
  68653.8765     0.36482E-01 
  68686.1386     0.37036E-01 
  68718.4008     0.37597E-01 
  68750.6630     0.38165E-01 
  68782.9251     0.38739E-01 
  68815.1873     0.39320E-01 
  68847.4494     0.39907E-01 
  68879.7116     0.40501E-01 
  68911.9738     0.41102E-01 
  68944.2359     0.41710E-01 
  68976.4981     0.42325E-01 
  69008.7602     0.42946E-01 
  69041.0224     0.43575E-01 
  69073.2846     0.44210E-01 
  69105.5467     0.44853E-01 
  69137.8089     0.45502E-01 
  69170.0710     0.46159E-01 
  69202.3332     0.46823E-01 
  69234.5954     0.47495E-01 
  69266.8575     0.48173E-01 
  69299.1197     0.48860E-01 
  69331.3818     0.49553E-01 
  69363.6440     0.50254E-01 
  69395.9062     0.50962E-01 
  69428.1683     0.51678E-01 
  69460.4305     0.52402E-01 
  69492.6926     0.53133E-01 
  69524.9548     0.53872E-01 
  69557.2170     0.54619E-01 
  69589.4791     0.55374E-01 
  69621.7413     0.56136E-01 
  69654.0034     0.56907E-01 
  69686.2656     0.57685E-01 
  69718.5278     0.58472E-01 
  69750.7899     0.59266E-01 
  69783.0521     0.60069E-01 
  69815.3142     0.60879E-01 
  69847.5764     0.61698E-01 
  69879.8386     0.62525E-01 
  69912.1007     0.63361E-01 
  69944.3629     0.64205E-01 
  69976.6250     0.65057E-01 
  70008.8872     0.65918E-01 
  70041.1494     0.66787E-01 
  70073.4115     0.67664E-01 
  70105.6737     0.68551E-01 
  70137.9358     0.69445E-01 
  70170.1980     0.70349E-01 
  70202.4602     0.71261E-01 
  70234.7223     0.72182E-01 
  70266.9845     0.73112E-01 
  70299.2466     0.74051E-01 
  70331.5088     0.74998E-01 
  70363.7710     0.75955E-01 
  70396.0331     0.76920E-01 
  70428.2953     0.77895E-01 
  70460.5574     0.78878E-01 
  70492.8196     0.79871E-01 
  70525.0818     0.80873E-01 
  70557.3439     0.81884E-01 
  70589.6061     0.82904E-01 
  70621.8682     0.83934E-01 
  70654.1304     0.84973E-01 
  70686.3926     0.86021E-01 
  70718.6547     0.87078E-01 
  70750.9169     0.88146E-01 
  70783.1790     0.89222E-01 
  70815.4412     0.90308E-01 
  70847.7034     0.91404E-01 
  70879.9655     0.92509E-01 
  70912.2277     0.93623E-01 
  70944.4898     0.94748E-01 
  70976.7520     0.95882E-01 
  71009.0142     0.97026E-01 
  71041.2763     0.98179E-01 
  71073.5385     0.99343E-01 
  71105.8006     0.10052E+00 
  71138.0628     0.10170E+00 
  71170.3250     0.10289E+00 
  71202.5871     0.10410E+00 
  71234.8493     0.10531E+00 
  71267.1114     0.10653E+00 
  71299.3736     0.10776E+00 
  71331.6358     0.10901E+00 
  71363.8979     0.11026E+00 
  71396.1601     0.11152E+00 
  71428.4222     0.11280E+00 
  71460.6844     0.11408E+00 
  71492.9466     0.11537E+00 
  71525.2087     0.11668E+00 
  71557.4709     0.11799E+00 
  71589.7330     0.11932E+00 
  71621.9952     0.12065E+00 
  71654.2574     0.12199E+00 
  71686.5195     0.12335E+00 
  71718.7817     0.12472E+00 
  71751.0438     0.12609E+00 
  71783.3060     0.12748E+00 
  71815.5682     0.12887E+00 
  71847.8303     0.13028E+00 
  71880.0925     0.13170E+00 
  71912.3546     0.13313E+00 
  71944.6168     0.13457E+00 
  71976.8790     0.13602E+00 
  72009.1411     0.13748E+00 
  72041.4033     0.13895E+00 
  72073.6654     0.14043E+00 
  72105.9276     0.14192E+00 
  72138.1898     0.14342E+00 
  72170.4519     0.14493E+00 
  72202.7141     0.14645E+00 
  72234.9762     0.14799E+00 
  72267.2384     0.14953E+00 
  72299.5006     0.15109E+00 
  72331.7627     0.15265E+00 
  72364.0249     0.15423E+00 
  72396.2870     0.15582E+00 
  72428.5492     0.15741E+00 
  72460.8114     0.15902E+00 
  72493.0735     0.16064E+00 
  72525.3357     0.16227E+00 
  72557.5978     0.16391E+00 
  72589.8600     0.16556E+00 
