  32262.1600     0.37587E+00 
  32294.4222     0.37928E+00 
  32326.6843     0.38270E+00 
  32358.9465     0.38614E+00 
  32391.2086     0.38960E+00 
  32423.4708     0.39308E+00 
  32455.7330     0.39658E+00 
  32487.9951     0.40010E+00 
  32520.2573     0.40364E+00 
  32552.5194     0.40720E+00 
  32584.7816     0.41077E+00 
  32617.0438     0.41437E+00 
  32649.3059     0.41798E+00 
  32681.5681     0.42162E+00 
  32713.8302     0.42527E+00 
  32746.0924     0.42894E+00 
  32778.3546     0.43263E+00 
  32810.6167     0.43634E+00 
  32842.8789     0.44006E+00 
  32875.1410     0.44381E+00 
  32907.4032     0.44757E+00 
  32939.6654     0.45136E+00 
  32971.9275     0.45516E+00 
  33004.1897     0.45898E+00 
  33036.4518     0.46282E+00 
  33068.7140     0.46667E+00 
  33100.9762     0.47055E+00 
  33133.2383     0.47444E+00 
  33165.5005     0.47835E+00 
  33197.7626     0.48228E+00 
  33230.0248     0.48623E+00 
  33262.2870     0.49020E+00 
  33294.5491     0.49418E+00 
  33326.8113     0.49818E+00 
  33359.0734     0.50220E+00 
  33391.3356     0.50624E+00 
  33423.5978     0.51029E+00 
  33455.8599     0.51437E+00 
  33488.1221     0.51846E+00 
  33520.3842     0.52257E+00 
  33552.6464     0.52669E+00 
  33584.9086     0.53084E+00 
  33617.1707     0.53500E+00 
  33649.4329     0.53917E+00 
  33681.6950     0.54337E+00 
  33713.9572     0.54758E+00 
  33746.2194     0.55181E+00 
  33778.4815     0.55605E+00 
  33810.7437     0.56032E+00 
  33843.0058     0.56459E+00 
  33875.2680     0.56889E+00 
  33907.5302     0.57320E+00 
  33939.7923     0.57753E+00 
  33972.0545     0.58187E+00 
  34004.3166     0.58624E+00 
  34036.5788     0.59061E+00 
  34068.8410     0.59501E+00 
  34101.1031     0.59942E+00 
  34133.3653     0.60384E+00 
  34165.6274     0.60828E+00 
  34197.8896     0.61274E+00 
  34230.1518     0.61721E+00 
  34262.4139     0.62170E+00 
  34294.6761     0.62620E+00 
  34326.9382     0.63071E+00 
  34359.2004     0.63525E+00 
  34391.4626     0.63979E+00 
  34423.7247     0.64436E+00 
  34455.9869     0.64893E+00 
  34488.2490     0.65352E+00 
  34520.5112     0.65813E+00 
  34552.7734     0.66275E+00 
  34585.0355     0.66738E+00 
  34617.2977     0.67203E+00 
  34649.5598     0.67669E+00 
  34681.8220     0.68137E+00 
  34714.0842     0.68606E+00 
  34746.3463     0.69076E+00 
  34778.6085     0.69548E+00 
  34810.8706     0.70021E+00 
  34843.1328     0.70495E+00 
  34875.3950     0.70971E+00 
  34907.6571     0.71448E+00 
  34939.9193     0.71926E+00 
  34972.1814     0.72405E+00 
  35004.4436     0.72886E+00 
  35036.7058     0.73367E+00 
  35068.9679     0.73850E+00 
  35101.2301     0.74335E+00 
  35133.4922     0.74820E+00 
  35165.7544     0.75306E+00 
  35198.0166     0.75794E+00 
  35230.2787     0.76283E+00 
  35262.5409     0.76773E+00 
  35294.8030     0.77264E+00 
  35327.0652     0.77756E+00 
  35359.3274     0.78249E+00 
  35391.5895     0.78743E+00 
  35423.8517     0.79238E+00 
  35456.1138     0.79735E+00 
  35488.3760     0.80232E+00 
  35520.6382     0.80730E+00 
  35552.9003     0.81229E+00 
  35585.1625     0.81729E+00 
  35617.4246     0.82230E+00 
  35649.6868     0.82732E+00 
  35681.9490     0.83235E+00 
  35714.2111     0.83739E+00 
  35746.4733     0.84243E+00 
  35778.7354     0.84749E+00 
  35810.9976     0.85255E+00 
  35843.2598     0.85762E+00 
  35875.5219     0.86270E+00 
  35907.7841     0.86778E+00 
  35940.0462     0.87287E+00 
  35972.3084     0.87797E+00 
  36004.5706     0.88308E+00 
  36036.8327     0.88820E+00 
  36069.0949     0.89332E+00 
  36101.3570     0.89844E+00 
  36133.6192     0.90358E+00 
  36165.8814     0.90871E+00 
  36198.1435     0.91386E+00 
  36230.4057     0.91901E+00 
  36262.6678     0.92417E+00 
  36294.9300     0.92933E+00 
  36327.1922     0.93449E+00 
  36359.4543     0.93966E+00 
  36391.7165     0.94484E+00 
  36423.9786     0.95002E+00 
  36456.2408     0.95520E+00 
  36488.5030     0.96039E+00 
  36520.7651     0.96559E+00 
  36553.0273     0.97078E+00 
  36585.2894     0.97598E+00 
  36617.5516     0.98118E+00 
  36649.8138     0.98639E+00 
  36682.0759     0.99160E+00 
  36714.3381     0.99681E+00 
  36746.6002     0.10020E+01 
  36778.8624     0.10072E+01 
  36811.1246     0.10124E+01 
  36843.3867     0.10177E+01 
  36875.6489     0.10229E+01 
  36907.9110     0.10281E+01 
  36940.1732     0.10333E+01 
  36972.4354     0.10386E+01 
  37004.6975     0.10438E+01 
  37036.9597     0.10490E+01 
  37069.2218     0.10542E+01 
  37101.4840     0.10594E+01 
  37133.7462     0.10647E+01 
  37166.0083     0.10699E+01 
  37198.2705     0.10751E+01 
  37230.5326     0.10803E+01 
  37262.7948     0.10856E+01 
  37295.0570     0.10908E+01 
  37327.3191     0.10960E+01 
  37359.5813     0.11012E+01 
  37391.8434     0.11064E+01 
  37424.1056     0.11116E+01 
  37456.3678     0.11168E+01 
  37488.6299     0.11220E+01 
  37520.8921     0.11272E+01 
  37553.1542     0.11324E+01 
  37585.4164     0.11376E+01 
  37617.6786     0.11428E+01 
  37649.9407     0.11480E+01 
  37682.2029     0.11532E+01 
  37714.4650     0.11584E+01 
  37746.7272     0.11635E+01 
  37778.9894     0.11687E+01 
  37811.2515     0.11739E+01 
  37843.5137     0.11790E+01 
  37875.7758     0.11842E+01 
  37908.0380     0.11893E+01 
  37940.3002     0.11944E+01 
  37972.5623     0.11996E+01 
  38004.8245     0.12047E+01 
  38037.0866     0.12098E+01 
  38069.3488     0.12149E+01 
  38101.6110     0.12200E+01 
  38133.8731     0.12251E+01 
  38166.1353     0.12302E+01 
  38198.3974     0.12353E+01 
  38230.6596     0.12404E+01 
  38262.9218     0.12454E+01 
  38295.1839     0.12505E+01 
  38327.4461     0.12555E+01 
  38359.7082     0.12606E+01 
  38391.9704     0.12656E+01 
  38424.2326     0.12706E+01 
  38456.4947     0.12756E+01 
  38488.7569     0.12806E+01 
  38521.0190     0.12856E+01 
  38553.2812     0.12906E+01 
  38585.5434     0.12955E+01 
  38617.8055     0.13005E+01 
  38650.0677     0.13054E+01 
  38682.3298     0.13104E+01 
  38714.5920     0.13153E+01 
  38746.8542     0.13202E+01 
  38779.1163     0.13251E+01 
  38811.3785     0.13300E+01 
  38843.6406     0.13348E+01 
  38875.9028     0.13397E+01 
  38908.1650     0.13445E+01 
  38940.4271     0.13494E+01 
  38972.6893     0.13542E+01 
  39004.9514     0.13590E+01 
  39037.2136     0.13638E+01 
  39069.4758     0.13685E+01 
  39101.7379     0.13733E+01 
  39134.0001     0.13780E+01 
  39166.2622     0.13828E+01 
  39198.5244     0.13875E+01 
  39230.7866     0.13922E+01 
  39263.0487     0.13968E+01 
  39295.3109     0.14015E+01 
  39327.5730     0.14061E+01 
  39359.8352     0.14108E+01 
  39392.0974     0.14154E+01 
  39424.3595     0.14200E+01 
  39456.6217     0.14246E+01 
  39488.8838     0.14291E+01 
  39521.1460     0.14337E+01 
  39553.4082     0.14382E+01 
  39585.6703     0.14427E+01 
  39617.9325     0.14472E+01 
  39650.1946     0.14517E+01 
  39682.4568     0.14561E+01 
  39714.7190     0.14605E+01 
  39746.9811     0.14650E+01 
  39779.2433     0.14694E+01 
  39811.5054     0.14737E+01 
  39843.7676     0.14781E+01 
  39876.0298     0.14824E+01 
  39908.2919     0.14867E+01 
  39940.5541     0.14910E+01 
  39972.8162     0.14953E+01 
  40005.0784     0.14995E+01 
  40037.3406     0.15038E+01 
  40069.6027     0.15080E+01 
  40101.8649     0.15122E+01 
  40134.1270     0.15163E+01 
  40166.3892     0.15205E+01 
  40198.6514     0.15246E+01 
  40230.9135     0.15287E+01 
  40263.1757     0.15328E+01 
  40295.4378     0.15368E+01 
  40327.7000     0.15409E+01 
  40359.9622     0.15449E+01 
  40392.2243     0.15488E+01 
  40424.4865     0.15528E+01 
  40456.7486     0.15567E+01 
  40489.0108     0.15607E+01 
  40521.2730     0.15645E+01 
  40553.5351     0.15684E+01 
  40585.7973     0.15722E+01 
  40618.0594     0.15761E+01 
  40650.3216     0.15798E+01 
  40682.5838     0.15836E+01 
  40714.8459     0.15873E+01 
  40747.1081     0.15911E+01 
  40779.3702     0.15947E+01 
  40811.6324     0.15984E+01 
  40843.8946     0.16020E+01 
  40876.1567     0.16056E+01 
  40908.4189     0.16092E+01 
  40940.6810     0.16128E+01 
  40972.9432     0.16163E+01 
  41005.2054     0.16198E+01 
  41037.4675     0.16233E+01 
  41069.7297     0.16267E+01 
  41101.9918     0.16302E+01 
  41134.2540     0.16335E+01 
  41166.5162     0.16369E+01 
  41198.7783     0.16402E+01 
  41231.0405     0.16436E+01 
  41263.3026     0.16468E+01 
  41295.5648     0.16501E+01 
  41327.8270     0.16533E+01 
  41360.0891     0.16565E+01 
  41392.3513     0.16597E+01 
  41424.6134     0.16628E+01 
  41456.8756     0.16659E+01 
  41489.1378     0.16690E+01 
  41521.3999     0.16720E+01 
  41553.6621     0.16751E+01 
  41585.9242     0.16780E+01 
  41618.1864     0.16810E+01 
  41650.4486     0.16839E+01 
  41682.7107     0.16868E+01 
  41714.9729     0.16897E+01 
  41747.2350     0.16925E+01 
  41779.4972     0.16953E+01 
  41811.7594     0.16981E+01 
  41844.0215     0.17009E+01 
  41876.2837     0.17036E+01 
  41908.5458     0.17063E+01 
  41940.8080     0.17089E+01 
  41973.0702     0.17115E+01 
  42005.3323     0.17141E+01 
  42037.5945     0.17167E+01 
  42069.8566     0.17192E+01 
  42102.1188     0.17217E+01 
  42134.3810     0.17241E+01 
  42166.6431     0.17266E+01 
  42198.9053     0.17290E+01 
  42231.1674     0.17313E+01 
  42263.4296     0.17337E+01 
  42295.6918     0.17360E+01 
  42327.9539     0.17382E+01 
  42360.2161     0.17405E+01 
  42392.4782     0.17427E+01 
  42424.7404     0.17448E+01 
  42457.0026     0.17470E+01 
  42489.2647     0.17491E+01 
  42521.5269     0.17512E+01 
  42553.7890     0.17532E+01 
  42586.0512     0.17552E+01 
  42618.3134     0.17572E+01 
  42650.5755     0.17591E+01 
  42682.8377     0.17610E+01 
  42715.0998     0.17629E+01 
  42747.3620     0.17647E+01 
  42779.6242     0.17665E+01 
  42811.8863     0.17683E+01 
  42844.1485     0.17700E+01 
  42876.4106     0.17717E+01 
  42908.6728     0.17734E+01 
  42940.9350     0.17750E+01 
  42973.1971     0.17766E+01 
  43005.4593     0.17782E+01 
  43037.7214     0.17797E+01 
  43069.9836     0.17812E+01 
  43102.2458     0.17826E+01 
  43134.5079     0.17841E+01 
  43166.7701     0.17855E+01 
  43199.0322     0.17868E+01 
  43231.2944     0.17881E+01 
  43263.5566     0.17894E+01 
  43295.8187     0.17907E+01 
  43328.0809     0.17919E+01 
  43360.3430     0.17931E+01 
  43392.6052     0.17942E+01 
  43424.8674     0.17953E+01 
  43457.1295     0.17964E+01 
  43489.3917     0.17975E+01 
  43521.6538     0.17985E+01 
  43553.9160     0.17994E+01 
  43586.1782     0.18004E+01 
  43618.4403     0.18013E+01 
  43650.7025     0.18021E+01 
  43682.9646     0.18030E+01 
  43715.2268     0.18038E+01 
  43747.4890     0.18045E+01 
  43779.7511     0.18053E+01 
  43812.0133     0.18059E+01 
  43844.2754     0.18066E+01 
  43876.5376     0.18072E+01 
  43908.7998     0.18078E+01 
  43941.0619     0.18084E+01 
  43973.3241     0.18089E+01 
  44005.5862     0.18094E+01 
  44037.8484     0.18098E+01 
  44070.1106     0.18102E+01 
  44102.3727     0.18106E+01 
  44134.6349     0.18109E+01 
  44166.8970     0.18112E+01 
  44199.1592     0.18115E+01 
  44231.4214     0.18117E+01 
  44263.6835     0.18119E+01 
  44295.9457     0.18121E+01 
  44328.2078     0.18122E+01 
  44360.4700     0.18123E+01 
  44392.7322     0.18124E+01 
  44424.9943     0.18124E+01 
  44457.2565     0.18124E+01 
  44489.5186     0.18123E+01 
  44521.7808     0.18123E+01 
  44554.0430     0.18122E+01 
  44586.3051     0.18120E+01 
  44618.5673     0.18118E+01 
  44650.8294     0.18116E+01 
  44683.0916     0.18113E+01 
  44715.3538     0.18111E+01 
  44747.6159     0.18107E+01 
  44779.8781     0.18104E+01 
  44812.1402     0.18100E+01 
  44844.4024     0.18095E+01 
  44876.6646     0.18091E+01 
  44908.9267     0.18086E+01 
  44941.1889     0.18081E+01 
  44973.4510     0.18075E+01 
  45005.7132     0.18069E+01 
  45037.9754     0.18063E+01 
  45070.2375     0.18056E+01 
  45102.4997     0.18049E+01 
  45134.7618     0.18042E+01 
  45167.0240     0.18034E+01 
  45199.2862     0.18026E+01 
  45231.5483     0.18017E+01 
  45263.8105     0.18009E+01 
  45296.0726     0.18000E+01 
  45328.3348     0.17990E+01 
  45360.5970     0.17981E+01 
  45392.8591     0.17971E+01 
  45425.1213     0.17960E+01 
  45457.3834     0.17949E+01 
  45489.6456     0.17938E+01 
  45521.9078     0.17927E+01 
  45554.1699     0.17915E+01 
  45586.4321     0.17903E+01 
  45618.6942     0.17891E+01 
  45650.9564     0.17878E+01 
  45683.2186     0.17865E+01 
  45715.4807     0.17852E+01 
  45747.7429     0.17838E+01 
  45780.0050     0.17824E+01 
  45812.2672     0.17810E+01 
  45844.5294     0.17795E+01 
  45876.7915     0.17780E+01 
  45909.0537     0.17765E+01 
  45941.3158     0.17749E+01 
  45973.5780     0.17733E+01 
  46005.8402     0.17717E+01 
  46038.1023     0.17701E+01 
  46070.3645     0.17684E+01 
  46102.6266     0.17667E+01 
  46134.8888     0.17649E+01 
  46167.1510     0.17631E+01 
  46199.4131     0.17613E+01 
  46231.6753     0.17595E+01 
  46263.9374     0.17576E+01 
  46296.1996     0.17557E+01 
  46328.4618     0.17538E+01 
  46360.7239     0.17518E+01 
  46392.9861     0.17498E+01 
  46425.2482     0.17478E+01 
  46457.5104     0.17458E+01 
  46489.7726     0.17437E+01 
  46522.0347     0.17416E+01 
  46554.2969     0.17394E+01 
  46586.5590     0.17372E+01 
  46618.8212     0.17350E+01 
  46651.0834     0.17328E+01 
  46683.3455     0.17306E+01 
  46715.6077     0.17283E+01 
  46747.8698     0.17260E+01 
  46780.1320     0.17236E+01 
  46812.3942     0.17212E+01 
  46844.6563     0.17188E+01 
  46876.9185     0.17164E+01 
  46909.1806     0.17139E+01 
  46941.4428     0.17115E+01 
  46973.7050     0.17089E+01 
  47005.9671     0.17064E+01 
  47038.2293     0.17038E+01 
  47070.4914     0.17012E+01 
  47102.7536     0.16986E+01 
  47135.0158     0.16960E+01 
  47167.2779     0.16933E+01 
  47199.5401     0.16906E+01 
  47231.8022     0.16878E+01 
  47264.0644     0.16851E+01 
  47296.3266     0.16823E+01 
  47328.5887     0.16795E+01 
  47360.8509     0.16767E+01 
  47393.1130     0.16738E+01 
  47425.3752     0.16709E+01 
  47457.6374     0.16680E+01 
  47489.8995     0.16651E+01 
  47522.1617     0.16621E+01 
  47554.4238     0.16591E+01 
  47586.6860     0.16561E+01 
  47618.9482     0.16531E+01 
  47651.2103     0.16500E+01 
  47683.4725     0.16469E+01 
  47715.7346     0.16438E+01 
  47747.9968     0.16407E+01 
  47780.2590     0.16375E+01 
  47812.5211     0.16343E+01 
  47844.7833     0.16311E+01 
  47877.0454     0.16279E+01 
  47909.3076     0.16246E+01 
  47941.5698     0.16214E+01 
  47973.8319     0.16181E+01 
  48006.0941     0.16147E+01 
  48038.3562     0.16114E+01 
  48070.6184     0.16080E+01 
  48102.8806     0.16046E+01 
  48135.1427     0.16012E+01 
  48167.4049     0.15978E+01 
  48199.6670     0.15943E+01 
  48231.9292     0.15909E+01 
  48264.1914     0.15874E+01 
  48296.4535     0.15838E+01 
  48328.7157     0.15803E+01 
  48360.9778     0.15767E+01 
  48393.2400     0.15732E+01 
  48425.5022     0.15696E+01 
  48457.7643     0.15659E+01 
  48490.0265     0.15623E+01 
  48522.2886     0.15586E+01 
  48554.5508     0.15550E+01 
  48586.8130     0.15513E+01 
  48619.0751     0.15475E+01 
  48651.3373     0.15438E+01 
  48683.5994     0.15400E+01 
  48715.8616     0.15363E+01 
  48748.1238     0.15325E+01 
  48780.3859     0.15287E+01 
  48812.6481     0.15248E+01 
  48844.9102     0.15210E+01 
  48877.1724     0.15171E+01 
  48909.4346     0.15132E+01 
  48941.6967     0.15093E+01 
  48973.9589     0.15054E+01 
  49006.2210     0.15015E+01 
  49038.4832     0.14975E+01 
  49070.7454     0.14935E+01 
  49103.0075     0.14895E+01 
  49135.2697     0.14855E+01 
  49167.5318     0.14815E+01 
  49199.7940     0.14775E+01 
  49232.0562     0.14734E+01 
  49264.3183     0.14694E+01 
  49296.5805     0.14653E+01 
  49328.8426     0.14612E+01 
  49361.1048     0.14571E+01 
  49393.3670     0.14529E+01 
  49425.6291     0.14488E+01 
  49457.8913     0.14446E+01 
  49490.1534     0.14404E+01 
  49522.4156     0.14362E+01 
  49554.6778     0.14320E+01 
  49586.9399     0.14278E+01 
  49619.2021     0.14236E+01 
  49651.4642     0.14194E+01 
  49683.7264     0.14151E+01 
  49715.9886     0.14108E+01 
  49748.2507     0.14065E+01 
  49780.5129     0.14022E+01 
  49812.7750     0.13979E+01 
  49845.0372     0.13936E+01 
  49877.2994     0.13893E+01 
  49909.5615     0.13849E+01 
  49941.8237     0.13806E+01 
  49974.0858     0.13762E+01 
  50006.3480     0.13718E+01 
  50038.6102     0.13674E+01 
  50070.8723     0.13630E+01 
  50103.1345     0.13586E+01 
  50135.3966     0.13542E+01 
  50167.6588     0.13497E+01 
  50199.9210     0.13453E+01 
  50232.1831     0.13408E+01 
  50264.4453     0.13364E+01 
  50296.7074     0.13319E+01 
  50328.9696     0.13274E+01 
  50361.2318     0.13229E+01 
  50393.4939     0.13184E+01 
  50425.7561     0.13139E+01 
  50458.0182     0.13093E+01 
  50490.2804     0.13048E+01 
  50522.5426     0.13003E+01 
  50554.8047     0.12957E+01 
  50587.0669     0.12912E+01 
  50619.3290     0.12866E+01 
  50651.5912     0.12820E+01 
  50683.8534     0.12774E+01 
  50716.1155     0.12728E+01 
  50748.3777     0.12682E+01 
  50780.6398     0.12636E+01 
  50812.9020     0.12590E+01 
  50845.1642     0.12544E+01 
  50877.4263     0.12498E+01 
  50909.6885     0.12451E+01 
  50941.9506     0.12405E+01 
  50974.2128     0.12358E+01 
  51006.4750     0.12312E+01 
  51038.7371     0.12265E+01 
  51070.9993     0.12219E+01 
  51103.2614     0.12172E+01 
  51135.5236     0.12125E+01 
  51167.7858     0.12078E+01 
  51200.0479     0.12031E+01 
  51232.3101     0.11984E+01 
  51264.5722     0.11937E+01 
  51296.8344     0.11890E+01 
  51329.0966     0.11843E+01 
  51361.3587     0.11796E+01 
  51393.6209     0.11749E+01 
  51425.8830     0.11702E+01 
  51458.1452     0.11655E+01 
  51490.4074     0.11607E+01 
  51522.6695     0.11560E+01 
  51554.9317     0.11513E+01 
  51587.1938     0.11465E+01 
  51619.4560     0.11418E+01 
  51651.7182     0.11371E+01 
  51683.9803     0.11323E+01 
  51716.2425     0.11276E+01 
  51748.5046     0.11228E+01 
  51780.7668     0.11181E+01 
  51813.0290     0.11133E+01 
  51845.2911     0.11085E+01 
  51877.5533     0.11038E+01 
  51909.8154     0.10990E+01 
  51942.0776     0.10943E+01 
  51974.3398     0.10895E+01 
  52006.6019     0.10847E+01 
  52038.8641     0.10800E+01 
  52071.1262     0.10752E+01 
  52103.3884     0.10704E+01 
  52135.6506     0.10657E+01 
  52167.9127     0.10609E+01 
  52200.1749     0.10561E+01 
  52232.4370     0.10513E+01 
  52264.6992     0.10466E+01 
  52296.9614     0.10418E+01 
  52329.2235     0.10370E+01 
  52361.4857     0.10323E+01 
  52393.7478     0.10275E+01 
  52426.0100     0.10227E+01 
  52458.2722     0.10180E+01 
  52490.5343     0.10132E+01 
  52522.7965     0.10084E+01 
  52555.0586     0.10037E+01 
  52587.3208     0.99890E+00 
  52619.5830     0.99414E+00 
  52651.8451     0.98938E+00 
  52684.1073     0.98462E+00 
  52716.3694     0.97987E+00 
  52748.6316     0.97511E+00 
  52780.8938     0.97036E+00 
  52813.1559     0.96561E+00 
  52845.4181     0.96087E+00 
  52877.6802     0.95612E+00 
  52909.9424     0.95138E+00 
  52942.2046     0.94664E+00 
  52974.4667     0.94190E+00 
  53006.7289     0.93717E+00 
  53038.9910     0.93244E+00 
  53071.2532     0.92771E+00 
  53103.5154     0.92299E+00 
  53135.7775     0.91827E+00 
  53168.0397     0.91355E+00 
  53200.3018     0.90884E+00 
  53232.5640     0.90413E+00 
  53264.8262     0.89943E+00 
  53297.0883     0.89473E+00 
  53329.3505     0.89003E+00 
  53361.6126     0.88534E+00 
  53393.8748     0.88065E+00 
  53426.1370     0.87597E+00 
  53458.3991     0.87129E+00 
  53490.6613     0.86662E+00 
  53522.9234     0.86195E+00 
  53555.1856     0.85729E+00 
  53587.4478     0.85263E+00 
  53619.7099     0.84798E+00 
  53651.9721     0.84333E+00 
  53684.2342     0.83869E+00 
  53716.4964     0.83406E+00 
  53748.7586     0.82943E+00 
  53781.0207     0.82480E+00 
  53813.2829     0.82018E+00 
  53845.5450     0.81557E+00 
  53877.8072     0.81097E+00 
  53910.0694     0.80637E+00 
  53942.3315     0.80177E+00 
  53974.5937     0.79719E+00 
  54006.8558     0.79261E+00 
  54039.1180     0.78803E+00 
  54071.3802     0.78347E+00 
  54103.6423     0.77891E+00 
  54135.9045     0.77436E+00 
  54168.1666     0.76981E+00 
  54200.4288     0.76527E+00 
  54232.6910     0.76074E+00 
  54264.9531     0.75622E+00 
  54297.2153     0.75170E+00 
  54329.4774     0.74719E+00 
  54361.7396     0.74269E+00 
  54394.0018     0.73820E+00 
  54426.2639     0.73372E+00 
  54458.5261     0.72924E+00 
  54490.7882     0.72477E+00 
  54523.0504     0.72031E+00 
  54555.3126     0.71586E+00 
  54587.5747     0.71141E+00 
  54619.8369     0.70698E+00 
  54652.0990     0.70255E+00 
  54684.3612     0.69813E+00 
  54716.6234     0.69372E+00 
  54748.8855     0.68932E+00 
  54781.1477     0.68493E+00 
  54813.4098     0.68055E+00 
  54845.6720     0.67617E+00 
  54877.9342     0.67181E+00 
  54910.1963     0.66745E+00 
  54942.4585     0.66311E+00 
  54974.7206     0.65877E+00 
  55006.9828     0.65445E+00 
  55039.2450     0.65013E+00 
  55071.5071     0.64582E+00 
  55103.7693     0.64152E+00 
  55136.0314     0.63723E+00 
  55168.2936     0.63295E+00 
  55200.5558     0.62869E+00 
  55232.8179     0.62443E+00 
  55265.0801     0.62018E+00 
  55297.3422     0.61594E+00 
  55329.6044     0.61171E+00 
  55361.8666     0.60750E+00 
  55394.1287     0.60329E+00 
  55426.3909     0.59909E+00 
  55458.6530     0.59491E+00 
  55490.9152     0.59073E+00 
  55523.1774     0.58657E+00 
  55555.4395     0.58241E+00 
  55587.7017     0.57827E+00 
  55619.9638     0.57414E+00 
  55652.2260     0.57002E+00 
  55684.4882     0.56591E+00 
  55716.7503     0.56181E+00 
  55749.0125     0.55773E+00 
  55781.2746     0.55365E+00 
  55813.5368     0.54959E+00 
  55845.7990     0.54553E+00 
  55878.0611     0.54149E+00 
  55910.3233     0.53746E+00 
  55942.5854     0.53344E+00 
  55974.8476     0.52944E+00 
  56007.1098     0.52544E+00 
  56039.3719     0.52146E+00 
  56071.6341     0.51749E+00 
  56103.8962     0.51353E+00 
  56136.1584     0.50959E+00 
  56168.4206     0.50565E+00 
  56200.6827     0.50173E+00 
  56232.9449     0.49782E+00 
  56265.2070     0.49393E+00 
  56297.4692     0.49004E+00 
  56329.7314     0.48617E+00 
  56361.9935     0.48231E+00 
  56394.2557     0.47846E+00 
  56426.5178     0.47463E+00 
  56458.7800     0.47081E+00 
  56491.0422     0.46700E+00 
  56523.3043     0.46321E+00 
  56555.5665     0.45942E+00 
  56587.8286     0.45565E+00 
  56620.0908     0.45190E+00 
  56652.3530     0.44816E+00 
  56684.6151     0.44443E+00 
  56716.8773     0.44071E+00 
  56749.1394     0.43701E+00 
  56781.4016     0.43332E+00 
  56813.6638     0.42964E+00 
  56845.9259     0.42598E+00 
  56878.1881     0.42233E+00 
  56910.4502     0.41870E+00 
  56942.7124     0.41508E+00 
  56974.9746     0.41147E+00 
  57007.2367     0.40788E+00 
  57039.4989     0.40430E+00 
  57071.7610     0.40073E+00 
  57104.0232     0.39718E+00 
  57136.2854     0.39364E+00 
  57168.5475     0.39012E+00 
  57200.8097     0.38661E+00 
  57233.0718     0.38312E+00 
  57265.3340     0.37964E+00 
  57297.5962     0.37618E+00 
  57329.8583     0.37273E+00 
  57362.1205     0.36929E+00 
  57394.3826     0.36587E+00 
  57426.6448     0.36247E+00 
  57458.9070     0.35908E+00 
  57491.1691     0.35570E+00 
  57523.4313     0.35234E+00 
  57555.6934     0.34899E+00 
  57587.9556     0.34566E+00 
  57620.2178     0.34235E+00 
  57652.4799     0.33905E+00 
  57684.7421     0.33577E+00 
  57717.0042     0.33250E+00 
  57749.2664     0.32925E+00 
  57781.5286     0.32601E+00 
  57813.7907     0.32279E+00 
  57846.0529     0.31958E+00 
  57878.3150     0.31639E+00 
  57910.5772     0.31322E+00 
  57942.8394     0.31006E+00 
  57975.1015     0.30692E+00 
  58007.3637     0.30380E+00 
  58039.6258     0.30069E+00 
  58071.8880     0.29760E+00 
  58104.1502     0.29452E+00 
  58136.4123     0.29146E+00 
  58168.6745     0.28842E+00 
  58200.9366     0.28539E+00 
  58233.1988     0.28238E+00 
  58265.4610     0.27939E+00 
  58297.7231     0.27642E+00 
  58329.9853     0.27346E+00 
  58362.2474     0.27052E+00 
  58394.5096     0.26760E+00 
  58426.7718     0.26469E+00 
  58459.0339     0.26180E+00 
  58491.2961     0.25893E+00 
  58523.5582     0.25608E+00 
  58555.8204     0.25324E+00 
  58588.0826     0.25043E+00 
  58620.3447     0.24763E+00 
  58652.6069     0.24484E+00 
  58684.8690     0.24208E+00 
  58717.1312     0.23934E+00 
  58749.3934     0.23661E+00 
  58781.6555     0.23390E+00 
  58813.9177     0.23121E+00 
  58846.1798     0.22854E+00 
  58878.4420     0.22589E+00 
  58910.7042     0.22326E+00 
  58942.9663     0.22065E+00 
  58975.2285     0.21805E+00 
  59007.4906     0.21548E+00 
  59039.7528     0.21292E+00 
  59072.0150     0.21039E+00 
  59104.2771     0.20787E+00 
  59136.5393     0.20537E+00 
  59168.8014     0.20290E+00 
  59201.0636     0.20044E+00 
  59233.3258     0.19801E+00 
  59265.5879     0.19559E+00 
  59297.8501     0.19320E+00 
  59330.1122     0.19082E+00 
  59362.3744     0.18847E+00 
  59394.6366     0.18613E+00 
  59426.8987     0.18382E+00 
  59459.1609     0.18153E+00 
  59491.4230     0.17926E+00 
  59523.6852     0.17702E+00 
  59555.9474     0.17479E+00 
  59588.2095     0.17258E+00 
  59620.4717     0.17040E+00 
  59652.7338     0.16824E+00 
  59684.9960     0.16610E+00 
  59717.2582     0.16399E+00 
  59749.5203     0.16190E+00 
  59781.7825     0.15983E+00 
  59814.0446     0.15778E+00 
  59846.3068     0.15575E+00 
  59878.5690     0.15375E+00 
  59910.8311     0.15178E+00 
  59943.0933     0.14982E+00 
  59975.3554     0.14789E+00 
  60007.6176     0.14599E+00 
  60039.8798     0.14410E+00 
  60072.1419     0.14225E+00 
  60104.4041     0.14041E+00 
  60136.6662     0.13860E+00 
  60168.9284     0.13682E+00 
  60201.1906     0.13506E+00 
  60233.4527     0.13333E+00 
  60265.7149     0.13162E+00 
  60297.9770     0.12994E+00 
  60330.2392     0.12829E+00 
  60362.5014     0.12666E+00 
  60394.7635     0.12505E+00 
  60427.0257     0.12348E+00 
  60459.2878     0.12193E+00 
  60491.5500     0.12041E+00 
  60523.8122     0.11891E+00 
  60556.0743     0.11744E+00 
  60588.3365     0.11600E+00 
  60620.5986     0.11459E+00 
  60652.8608     0.11321E+00 
  60685.1230     0.11185E+00 
  60717.3851     0.11053E+00 
  60749.6473     0.10923E+00 
  60781.9094     0.10796E+00 
  60814.1716     0.10672E+00 
  60846.4338     0.10551E+00 
  60878.6959     0.10433E+00 
  60910.9581     0.10319E+00 
  60943.2202     0.10207E+00 
  60975.4824     0.10098E+00 
  61007.7446     0.99925E-01 
  61040.0067     0.98901E-01 
  61072.2689     0.97908E-01 
  61104.5310     0.96948E-01 
  61136.7932     0.96019E-01 
  61169.0554     0.95123E-01 
  61201.3175     0.94261E-01 
  61233.5797     0.93431E-01 
  61265.8418     0.92635E-01 
  61298.1040     0.91872E-01 
  61330.3662     0.91144E-01 
  61362.6283     0.90451E-01 
  61394.8905     0.89792E-01 
  61427.1526     0.89168E-01 
  61459.4148     0.88580E-01 
  61491.6770     0.88027E-01 
  61523.9391     0.87511E-01 
  61556.2013     0.87031E-01 
  61588.4634     0.86588E-01 
  61620.7256     0.86183E-01 
  61652.9878     0.85815E-01 
  61685.2499     0.85485E-01 
  61717.5121     0.85193E-01 
  61749.7742     0.84940E-01 
  61782.0364     0.84725E-01 
  61814.2986     0.84551E-01 
  61846.5607     0.84416E-01 
  61878.8229     0.84321E-01 
  61911.0850     0.84268E-01 
  61943.3472     0.84255E-01 
  61975.6094     0.84283E-01 
  62007.8715     0.84354E-01 
  62040.1337     0.84466E-01 
  62072.3958     0.84622E-01 
  62104.6580     0.84820E-01 
  62136.9202     0.85062E-01 
  62169.1823     0.85348E-01 
  62201.4445     0.85679E-01 
  62233.7066     0.86054E-01 
  62265.9688     0.86475E-01 
  62298.2310     0.86941E-01 
  62330.4931     0.87454E-01 
  62362.7553     0.88013E-01 
  62395.0174     0.88620E-01 
  62427.2796     0.89274E-01 
  62459.5418     0.89977E-01 
  62491.8039     0.90728E-01 
  62524.0661     0.91528E-01 
  62556.3282     0.92378E-01 
  62588.5904     0.93278E-01 
  62620.8526     0.94228E-01 
  62653.1147     0.95230E-01 
  62685.3769     0.96283E-01 
  62717.6390     0.97389E-01 
  62749.9012     0.98547E-01 
  62782.1634     0.99759E-01 
  62814.4255     0.10102E+00 
  62846.6877     0.10234E+00 
  62878.9498     0.10372E+00 
  62911.2120     0.10515E+00 
  62943.4742     0.10663E+00 
  62975.7363     0.10818E+00 
  63007.9985     0.10978E+00 
  63040.2606     0.11143E+00 
  63072.5228     0.11315E+00 
  63104.7850     0.11493E+00 
  63137.0471     0.11676E+00 
  63169.3093     0.11865E+00 
  63201.5714     0.12061E+00 
  63233.8336     0.12263E+00 
  63266.0958     0.12471E+00 
  63298.3579     0.12685E+00 
  63330.6201     0.12905E+00 
  63362.8822     0.13132E+00 
  63395.1444     0.13365E+00 
  63427.4066     0.13605E+00 
  63459.6687     0.13851E+00 
  63491.9309     0.14105E+00 
  63524.1930     0.14364E+00 
  63556.4552     0.14631E+00 
  63588.7174     0.14904E+00 
  63620.9795     0.15185E+00 
  63653.2417     0.15472E+00 
  63685.5038     0.15766E+00 
  63717.7660     0.16068E+00 
  63750.0282     0.16376E+00 
  63782.2903     0.16692E+00 
  63814.5525     0.17016E+00 
  63846.8146     0.17347E+00 
  63879.0768     0.17685E+00 
  63911.3390     0.18031E+00 
  63943.6011     0.18384E+00 
  63975.8633     0.18745E+00 
  64008.1254     0.19114E+00 
  64040.3876     0.19491E+00 
  64072.6498     0.19876E+00 
  64104.9119     0.20269E+00 
  64137.1741     0.20670E+00 
  64169.4362     0.21079E+00 
  64201.6984     0.21496E+00 
  64233.9606     0.21922E+00 
  64266.2227     0.22356E+00 
  64298.4849     0.22798E+00 
  64330.7470     0.23250E+00 
  64363.0092     0.23710E+00 
  64395.2714     0.24178E+00 
  64427.5335     0.24656E+00 
  64459.7957     0.25142E+00 
  64492.0578     0.25638E+00 
  64524.3200     0.26142E+00 
  64556.5822     0.26656E+00 
  64588.8443     0.27179E+00 
  64621.1065     0.27711E+00 
  64653.3686     0.28253E+00 
  64685.6308     0.28804E+00 
  64717.8930     0.29365E+00 
  64750.1551     0.29936E+00 
  64782.4173     0.30516E+00 
  64814.6794     0.31106E+00 
  64846.9416     0.31707E+00 
  64879.2038     0.32317E+00 
  64911.4659     0.32938E+00 
  64943.7281     0.33569E+00 
  64975.9902     0.34210E+00 
  65008.2524     0.34861E+00 
  65040.5146     0.35524E+00 
  65072.7767     0.36197E+00 
  65105.0389     0.36880E+00 
  65137.3010     0.37575E+00 
  65169.5632     0.38280E+00 
  65201.8254     0.38996E+00 
  65234.0875     0.39724E+00 
  65266.3497     0.40463E+00 
  65298.6118     0.41213E+00 
  65330.8740     0.41974E+00 
  65363.1362     0.42747E+00 
  65395.3983     0.43532E+00 
  65427.6605     0.44329E+00 
  65459.9226     0.45137E+00 
  65492.1848     0.45957E+00 
  65524.4470     0.46789E+00 
  65556.7091     0.47634E+00 
  65588.9713     0.48491E+00 
  65621.2334     0.49360E+00 
  65653.4956     0.50241E+00 
  65685.7578     0.51135E+00 
  65718.0199     0.52042E+00 
  65750.2821     0.52962E+00 
  65782.5442     0.53894E+00 
  65814.8064     0.54840E+00 
  65847.0686     0.55798E+00 
  65879.3307     0.56770E+00 
  65911.5929     0.57755E+00 
  65943.8550     0.58754E+00 
  65976.1172     0.59766E+00 
  66008.3794     0.60792E+00 
  66040.6415     0.61831E+00 
  66072.9037     0.62885E+00 
  66105.1658     0.63952E+00 
  66137.4280     0.65034E+00 
  66169.6902     0.66130E+00 
  66201.9523     0.67240E+00 
  66234.2145     0.68365E+00 
  66266.4766     0.69504E+00 
  66298.7388     0.70658E+00 
  66331.0010     0.71826E+00 
  66363.2631     0.73010E+00 
  66395.5253     0.74208E+00 
  66427.7874     0.75422E+00 
  66460.0496     0.76651E+00 
  66492.3118     0.77895E+00 
  66524.5739     0.79155E+00 
  66556.8361     0.80431E+00 
  66589.0982     0.81722E+00 
  66621.3604     0.83029E+00 
  66653.6226     0.84352E+00 
  66685.8847     0.85691E+00 
  66718.1469     0.87046E+00 
  66750.4090     0.88418E+00 
  66782.6712     0.89806E+00 
  66814.9334     0.91210E+00 
  66847.1955     0.92632E+00 
  66879.4577     0.94070E+00 
  66911.7198     0.95525E+00 
  66943.9820     0.96997E+00 
  66976.2442     0.98486E+00 
  67008.5063     0.99992E+00 
  67040.7685     0.10152E+01 
  67073.0306     0.10306E+01 
  67105.2928     0.10462E+01 
  67137.5550     0.10619E+01 
  67169.8171     0.10779E+01 
  67202.0793     0.10940E+01 
  67234.3414     0.11103E+01 
  67266.6036     0.11268E+01 
  67298.8658     0.11435E+01 
  67331.1279     0.11603E+01 
  67363.3901     0.11774E+01 
  67395.6522     0.11946E+01 
  67427.9144     0.12120E+01 
  67460.1766     0.12297E+01 
  67492.4387     0.12475E+01 
  67524.7009     0.12654E+01 
  67556.9630     0.12836E+01 
  67589.2252     0.13020E+01 
  67621.4874     0.13206E+01 
  67653.7495     0.13394E+01 
  67686.0117     0.13583E+01 
  67718.2738     0.13775E+01 
  67750.5360     0.13969E+01 
  67782.7982     0.14165E+01 
  67815.0603     0.14363E+01 
  67847.3225     0.14562E+01 
  67879.5846     0.14764E+01 
  67911.8468     0.14968E+01 
  67944.1090     0.15174E+01 
  67976.3711     0.15382E+01 
  68008.6333     0.15593E+01 
  68040.8954     0.15805E+01 
  68073.1576     0.16019E+01 
  68105.4198     0.16236E+01 
  68137.6819     0.16455E+01 
  68169.9441     0.16676E+01 
  68202.2062     0.16899E+01 
  68234.4684     0.17124E+01 
  68266.7306     0.17352E+01 
  68298.9927     0.17581E+01 
  68331.2549     0.17813E+01 
  68363.5170     0.18048E+01 
  68395.7792     0.18284E+01 
  68428.0414     0.18523E+01 
  68460.3035     0.18764E+01 
  68492.5657     0.19007E+01 
  68524.8278     0.19252E+01 
  68557.0900     0.19500E+01 
  68589.3522     0.19750E+01 
  68621.6143     0.20003E+01 
  68653.8765     0.20258E+01 
  68686.1386     0.20515E+01 
  68718.4008     0.20774E+01 
  68750.6630     0.21036E+01 
  68782.9251     0.21300E+01 
  68815.1873     0.21567E+01 
  68847.4494     0.21836E+01 
  68879.7116     0.22107E+01 
  68911.9738     0.22381E+01 
  68944.2359     0.22658E+01 
  68976.4981     0.22936E+01 
  69008.7602     0.23218E+01 
  69041.0224     0.23501E+01 
  69073.2846     0.23788E+01 
  69105.5467     0.24076E+01 
  69137.8089     0.24367E+01 
  69170.0710     0.24661E+01 
  69202.3332     0.24957E+01 
  69234.5954     0.25256E+01 
  69266.8575     0.25557E+01 
  69299.1197     0.25861E+01 
  69331.3818     0.26167E+01 
  69363.6440     0.26476E+01 
  69395.9062     0.26788E+01 
  69428.1683     0.27102E+01 
  69460.4305     0.27419E+01 
  69492.6926     0.27738E+01 
  69524.9548     0.28060E+01 
  69557.2170     0.28384E+01 
  69589.4791     0.28712E+01 
  69621.7413     0.29041E+01 
  69654.0034     0.29374E+01 
  69686.2656     0.29709E+01 
  69718.5278     0.30047E+01 
  69750.7899     0.30387E+01 
  69783.0521     0.30730E+01 
  69815.3142     0.31076E+01 
  69847.5764     0.31425E+01 
  69879.8386     0.31776E+01 
  69912.1007     0.32130E+01 
  69944.3629     0.32487E+01 
  69976.6250     0.32846E+01 
  70008.8872     0.33208E+01 
  70041.1494     0.33573E+01 
  70073.4115     0.33941E+01 
  70105.6737     0.34311E+01 
  70137.9358     0.34684E+01 
  70170.1980     0.35060E+01 
  70202.4602     0.35439E+01 
  70234.7223     0.35821E+01 
  70266.9845     0.36205E+01 
  70299.2466     0.36592E+01 
  70331.5088     0.36982E+01 
  70363.7710     0.37375E+01 
  70396.0331     0.37770E+01 
  70428.2953     0.38169E+01 
  70460.5574     0.38570E+01 
  70492.8196     0.38974E+01 
  70525.0818     0.39381E+01 
  70557.3439     0.39791E+01 
  70589.6061     0.40203E+01 
  70621.8682     0.40619E+01 
  70654.1304     0.41037E+01 
  70686.3926     0.41458E+01 
  70718.6547     0.41882E+01 
  70750.9169     0.42309E+01 
  70783.1790     0.42739E+01 
  70815.4412     0.43171E+01 
  70847.7034     0.43607E+01 
  70879.9655     0.44045E+01 
  70912.2277     0.44486E+01 
  70944.4898     0.44931E+01 
  70976.7520     0.45378E+01 
  71009.0142     0.45828E+01 
  71041.2763     0.46280E+01 
  71073.5385     0.46736E+01 
  71105.8006     0.47195E+01 
  71138.0628     0.47656E+01 
  71170.3250     0.48121E+01 
  71202.5871     0.48588E+01 
  71234.8493     0.49059E+01 
  71267.1114     0.49532E+01 
  71299.3736     0.50008E+01 
  71331.6358     0.50487E+01 
  71363.8979     0.50969E+01 
  71396.1601     0.51454E+01 
  71428.4222     0.51942E+01 
  71460.6844     0.52432E+01 
  71492.9466     0.52926E+01 
  71525.2087     0.53422E+01 
  71557.4709     0.53922E+01 
  71589.7330     0.54424E+01 
  71621.9952     0.54929E+01 
  71654.2574     0.55437E+01 
  71686.5195     0.55949E+01 
  71718.7817     0.56462E+01 
  71751.0438     0.56979E+01 
  71783.3060     0.57499E+01 
  71815.5682     0.58022E+01 
  71847.8303     0.58547E+01 
  71880.0925     0.59076E+01 
  71912.3546     0.59607E+01 
  71944.6168     0.60141E+01 
  71976.8790     0.60679E+01 
  72009.1411     0.61218E+01 
  72041.4033     0.61761E+01 
  72073.6654     0.62307E+01 
  72105.9276     0.62856E+01 
  72138.1898     0.63407E+01 
  72170.4519     0.63962E+01 
  72202.7141     0.64519E+01 
  72234.9762     0.65079E+01 
  72267.2384     0.65642E+01 
  72299.5006     0.66207E+01 
  72331.7627     0.66776E+01 
  72364.0249     0.67347E+01 
  72396.2870     0.67921E+01 
  72428.5492     0.68498E+01 
  72460.8114     0.69078E+01 
  72493.0735     0.69661E+01 
  72525.3357     0.70246E+01 
  72557.5978     0.70834E+01 
  72589.8600     0.71425E+01 
