  32262.1600     0.80948E-03 
  32294.4222     0.81469E-03 
  32326.6843     0.81992E-03 
  32358.9465     0.82517E-03 
  32391.2086     0.83044E-03 
  32423.4708     0.83573E-03 
  32455.7330     0.84104E-03 
  32487.9951     0.84637E-03 
  32520.2573     0.85172E-03 
  32552.5194     0.85710E-03 
  32584.7816     0.86249E-03 
  32617.0438     0.86790E-03 
  32649.3059     0.87334E-03 
  32681.5681     0.87879E-03 
  32713.8302     0.88427E-03 
  32746.0924     0.88976E-03 
  32778.3546     0.89528E-03 
  32810.6167     0.90081E-03 
  32842.8789     0.90637E-03 
  32875.1410     0.91194E-03 
  32907.4032     0.91754E-03 
  32939.6654     0.92315E-03 
  32971.9275     0.92879E-03 
  33004.1897     0.93445E-03 
  33036.4518     0.94012E-03 
  33068.7140     0.94582E-03 
  33100.9762     0.95153E-03 
  33133.2383     0.95727E-03 
  33165.5005     0.96302E-03 
  33197.7626     0.96880E-03 
  33230.0248     0.97459E-03 
  33262.2870     0.98040E-03 
  33294.5491     0.98624E-03 
  33326.8113     0.99209E-03 
  33359.0734     0.99796E-03 
  33391.3356     0.10039E-02 
  33423.5978     0.10098E-02 
  33455.8599     0.10157E-02 
  33488.1221     0.10216E-02 
  33520.3842     0.10276E-02 
  33552.6464     0.10336E-02 
  33584.9086     0.10396E-02 
  33617.1707     0.10456E-02 
  33649.4329     0.10517E-02 
  33681.6950     0.10577E-02 
  33713.9572     0.10638E-02 
  33746.2194     0.10699E-02 
  33778.4815     0.10760E-02 
  33810.7437     0.10822E-02 
  33843.0058     0.10883E-02 
  33875.2680     0.10945E-02 
  33907.5302     0.11007E-02 
  33939.7923     0.11069E-02 
  33972.0545     0.11131E-02 
  34004.3166     0.11194E-02 
  34036.5788     0.11257E-02 
  34068.8410     0.11319E-02 
  34101.1031     0.11382E-02 
  34133.3653     0.11446E-02 
  34165.6274     0.11509E-02 
  34197.8896     0.11573E-02 
  34230.1518     0.11636E-02 
  34262.4139     0.11700E-02 
  34294.6761     0.11764E-02 
  34326.9382     0.11829E-02 
  34359.2004     0.11893E-02 
  34391.4626     0.11958E-02 
  34423.7247     0.12022E-02 
  34455.9869     0.12087E-02 
  34488.2490     0.12152E-02 
  34520.5112     0.12218E-02 
  34552.7734     0.12283E-02 
  34585.0355     0.12349E-02 
  34617.2977     0.12414E-02 
  34649.5598     0.12480E-02 
  34681.8220     0.12546E-02 
  34714.0842     0.12613E-02 
  34746.3463     0.12679E-02 
  34778.6085     0.12746E-02 
  34810.8706     0.12813E-02 
  34843.1328     0.12879E-02 
  34875.3950     0.12946E-02 
  34907.6571     0.13014E-02 
  34939.9193     0.13081E-02 
  34972.1814     0.13149E-02 
  35004.4436     0.13216E-02 
  35036.7058     0.13284E-02 
  35068.9679     0.13352E-02 
  35101.2301     0.13420E-02 
  35133.4922     0.13489E-02 
  35165.7544     0.13557E-02 
  35198.0166     0.13626E-02 
  35230.2787     0.13694E-02 
  35262.5409     0.13763E-02 
  35294.8030     0.13832E-02 
  35327.0652     0.13901E-02 
  35359.3274     0.13971E-02 
  35391.5895     0.14040E-02 
  35423.8517     0.14110E-02 
  35456.1138     0.14179E-02 
  35488.3760     0.14249E-02 
  35520.6382     0.14319E-02 
  35552.9003     0.14389E-02 
  35585.1625     0.14460E-02 
  35617.4246     0.14530E-02 
  35649.6868     0.14601E-02 
  35681.9490     0.14671E-02 
  35714.2111     0.14742E-02 
  35746.4733     0.14813E-02 
  35778.7354     0.14884E-02 
  35810.9976     0.14955E-02 
  35843.2598     0.15026E-02 
  35875.5219     0.15098E-02 
  35907.7841     0.15169E-02 
  35940.0462     0.15241E-02 
  35972.3084     0.15313E-02 
  36004.5706     0.15385E-02 
  36036.8327     0.15457E-02 
  36069.0949     0.15529E-02 
  36101.3570     0.15601E-02 
  36133.6192     0.15673E-02 
  36165.8814     0.15746E-02 
  36198.1435     0.15818E-02 
  36230.4057     0.15891E-02 
  36262.6678     0.15964E-02 
  36294.9300     0.16037E-02 
  36327.1922     0.16110E-02 
  36359.4543     0.16183E-02 
  36391.7165     0.16256E-02 
  36423.9786     0.16329E-02 
  36456.2408     0.16403E-02 
  36488.5030     0.16476E-02 
  36520.7651     0.16550E-02 
  36553.0273     0.16623E-02 
  36585.2894     0.16697E-02 
  36617.5516     0.16771E-02 
  36649.8138     0.16845E-02 
  36682.0759     0.16919E-02 
  36714.3381     0.16993E-02 
  36746.6002     0.17067E-02 
  36778.8624     0.17141E-02 
  36811.1246     0.17216E-02 
  36843.3867     0.17290E-02 
  36875.6489     0.17365E-02 
  36907.9110     0.17439E-02 
  36940.1732     0.17514E-02 
  36972.4354     0.17589E-02 
  37004.6975     0.17664E-02 
  37036.9597     0.17738E-02 
  37069.2218     0.17813E-02 
  37101.4840     0.17888E-02 
  37133.7462     0.17963E-02 
  37166.0083     0.18039E-02 
  37198.2705     0.18114E-02 
  37230.5326     0.18189E-02 
  37262.7948     0.18264E-02 
  37295.0570     0.18340E-02 
  37327.3191     0.18415E-02 
  37359.5813     0.18491E-02 
  37391.8434     0.18566E-02 
  37424.1056     0.18642E-02 
  37456.3678     0.18717E-02 
  37488.6299     0.18793E-02 
  37520.8921     0.18869E-02 
  37553.1542     0.18945E-02 
  37585.4164     0.19020E-02 
  37617.6786     0.19096E-02 
  37649.9407     0.19172E-02 
  37682.2029     0.19248E-02 
  37714.4650     0.19324E-02 
  37746.7272     0.19400E-02 
  37778.9894     0.19476E-02 
  37811.2515     0.19552E-02 
  37843.5137     0.19628E-02 
  37875.7758     0.19704E-02 
  37908.0380     0.19780E-02 
  37940.3002     0.19856E-02 
  37972.5623     0.19933E-02 
  38004.8245     0.20009E-02 
  38037.0866     0.20085E-02 
  38069.3488     0.20161E-02 
  38101.6110     0.20238E-02 
  38133.8731     0.20314E-02 
  38166.1353     0.20390E-02 
  38198.3974     0.20466E-02 
  38230.6596     0.20543E-02 
  38262.9218     0.20619E-02 
  38295.1839     0.20695E-02 
  38327.4461     0.20771E-02 
  38359.7082     0.20848E-02 
  38391.9704     0.20924E-02 
  38424.2326     0.21000E-02 
  38456.4947     0.21077E-02 
  38488.7569     0.21153E-02 
  38521.0190     0.21229E-02 
  38553.2812     0.21305E-02 
  38585.5434     0.21381E-02 
  38617.8055     0.21458E-02 
  38650.0677     0.21534E-02 
  38682.3298     0.21610E-02 
  38714.5920     0.21686E-02 
  38746.8542     0.21762E-02 
  38779.1163     0.21838E-02 
  38811.3785     0.21914E-02 
  38843.6406     0.21990E-02 
  38875.9028     0.22066E-02 
  38908.1650     0.22142E-02 
  38940.4271     0.22218E-02 
  38972.6893     0.22294E-02 
  39004.9514     0.22370E-02 
  39037.2136     0.22446E-02 
  39069.4758     0.22522E-02 
  39101.7379     0.22598E-02 
  39134.0001     0.22673E-02 
  39166.2622     0.22749E-02 
  39198.5244     0.22824E-02 
  39230.7866     0.22900E-02 
  39263.0487     0.22975E-02 
  39295.3109     0.23051E-02 
  39327.5730     0.23126E-02 
  39359.8352     0.23202E-02 
  39392.0974     0.23277E-02 
  39424.3595     0.23352E-02 
  39456.6217     0.23427E-02 
  39488.8838     0.23502E-02 
  39521.1460     0.23577E-02 
  39553.4082     0.23652E-02 
  39585.6703     0.23727E-02 
  39617.9325     0.23802E-02 
  39650.1946     0.23876E-02 
  39682.4568     0.23951E-02 
  39714.7190     0.24025E-02 
  39746.9811     0.24100E-02 
  39779.2433     0.24174E-02 
  39811.5054     0.24248E-02 
  39843.7676     0.24323E-02 
  39876.0298     0.24397E-02 
  39908.2919     0.24471E-02 
  39940.5541     0.24544E-02 
  39972.8162     0.24618E-02 
  40005.0784     0.24692E-02 
  40037.3406     0.24765E-02 
  40069.6027     0.24839E-02 
  40101.8649     0.24912E-02 
  40134.1270     0.24986E-02 
  40166.3892     0.25059E-02 
  40198.6514     0.25132E-02 
  40230.9135     0.25205E-02 
  40263.1757     0.25278E-02 
  40295.4378     0.25350E-02 
  40327.7000     0.25423E-02 
  40359.9622     0.25495E-02 
  40392.2243     0.25568E-02 
  40424.4865     0.25640E-02 
  40456.7486     0.25712E-02 
  40489.0108     0.25784E-02 
  40521.2730     0.25856E-02 
  40553.5351     0.25927E-02 
  40585.7973     0.25999E-02 
  40618.0594     0.26070E-02 
  40650.3216     0.26142E-02 
  40682.5838     0.26213E-02 
  40714.8459     0.26284E-02 
  40747.1081     0.26355E-02 
  40779.3702     0.26425E-02 
  40811.6324     0.26496E-02 
  40843.8946     0.26566E-02 
  40876.1567     0.26636E-02 
  40908.4189     0.26706E-02 
  40940.6810     0.26776E-02 
  40972.9432     0.26846E-02 
  41005.2054     0.26916E-02 
  41037.4675     0.26985E-02 
  41069.7297     0.27054E-02 
  41101.9918     0.27124E-02 
  41134.2540     0.27193E-02 
  41166.5162     0.27261E-02 
  41198.7783     0.27330E-02 
  41231.0405     0.27398E-02 
  41263.3026     0.27467E-02 
  41295.5648     0.27535E-02 
  41327.8270     0.27603E-02 
  41360.0891     0.27670E-02 
  41392.3513     0.27738E-02 
  41424.6134     0.27805E-02 
  41456.8756     0.27872E-02 
  41489.1378     0.27939E-02 
  41521.3999     0.28006E-02 
  41553.6621     0.28072E-02 
  41585.9242     0.28139E-02 
  41618.1864     0.28205E-02 
  41650.4486     0.28271E-02 
  41682.7107     0.28337E-02 
  41714.9729     0.28402E-02 
  41747.2350     0.28468E-02 
  41779.4972     0.28533E-02 
  41811.7594     0.28598E-02 
  41844.0215     0.28663E-02 
  41876.2837     0.28727E-02 
  41908.5458     0.28791E-02 
  41940.8080     0.28855E-02 
  41973.0702     0.28919E-02 
  42005.3323     0.28983E-02 
  42037.5945     0.29046E-02 
  42069.8566     0.29110E-02 
  42102.1188     0.29173E-02 
  42134.3810     0.29235E-02 
  42166.6431     0.29298E-02 
  42198.9053     0.29360E-02 
  42231.1674     0.29422E-02 
  42263.4296     0.29484E-02 
  42295.6918     0.29546E-02 
  42327.9539     0.29607E-02 
  42360.2161     0.29668E-02 
  42392.4782     0.29729E-02 
  42424.7404     0.29790E-02 
  42457.0026     0.29850E-02 
  42489.2647     0.29910E-02 
  42521.5269     0.29970E-02 
  42553.7890     0.30030E-02 
  42586.0512     0.30089E-02 
  42618.3134     0.30148E-02 
  42650.5755     0.30207E-02 
  42682.8377     0.30266E-02 
  42715.0998     0.30324E-02 
  42747.3620     0.30382E-02 
  42779.6242     0.30440E-02 
  42811.8863     0.30497E-02 
  42844.1485     0.30555E-02 
  42876.4106     0.30612E-02 
  42908.6728     0.30669E-02 
  42940.9350     0.30725E-02 
  42973.1971     0.30781E-02 
  43005.4593     0.30837E-02 
  43037.7214     0.30893E-02 
  43069.9836     0.30948E-02 
  43102.2458     0.31003E-02 
  43134.5079     0.31058E-02 
  43166.7701     0.31113E-02 
  43199.0322     0.31167E-02 
  43231.2944     0.31221E-02 
  43263.5566     0.31275E-02 
  43295.8187     0.31328E-02 
  43328.0809     0.31381E-02 
  43360.3430     0.31434E-02 
  43392.6052     0.31486E-02 
  43424.8674     0.31539E-02 
  43457.1295     0.31591E-02 
  43489.3917     0.31642E-02 
  43521.6538     0.31694E-02 
  43553.9160     0.31745E-02 
  43586.1782     0.31795E-02 
  43618.4403     0.31846E-02 
  43650.7025     0.31896E-02 
  43682.9646     0.31946E-02 
  43715.2268     0.31995E-02 
  43747.4890     0.32044E-02 
  43779.7511     0.32093E-02 
  43812.0133     0.32142E-02 
  43844.2754     0.32190E-02 
  43876.5376     0.32238E-02 
  43908.7998     0.32286E-02 
  43941.0619     0.32333E-02 
  43973.3241     0.32380E-02 
  44005.5862     0.32426E-02 
  44037.8484     0.32473E-02 
  44070.1106     0.32519E-02 
  44102.3727     0.32564E-02 
  44134.6349     0.32610E-02 
  44166.8970     0.32655E-02 
  44199.1592     0.32700E-02 
  44231.4214     0.32744E-02 
  44263.6835     0.32788E-02 
  44295.9457     0.32832E-02 
  44328.2078     0.32875E-02 
  44360.4700     0.32918E-02 
  44392.7322     0.32961E-02 
  44424.9943     0.33003E-02 
  44457.2565     0.33045E-02 
  44489.5186     0.33087E-02 
  44521.7808     0.33128E-02 
  44554.0430     0.33169E-02 
  44586.3051     0.33210E-02 
  44618.5673     0.33250E-02 
  44650.8294     0.33290E-02 
  44683.0916     0.33330E-02 
  44715.3538     0.33369E-02 
  44747.6159     0.33408E-02 
  44779.8781     0.33446E-02 
  44812.1402     0.33484E-02 
  44844.4024     0.33522E-02 
  44876.6646     0.33560E-02 
  44908.9267     0.33597E-02 
  44941.1889     0.33634E-02 
  44973.4510     0.33670E-02 
  45005.7132     0.33706E-02 
  45037.9754     0.33742E-02 
  45070.2375     0.33777E-02 
  45102.4997     0.33812E-02 
  45134.7618     0.33847E-02 
  45167.0240     0.33881E-02 
  45199.2862     0.33915E-02 
  45231.5483     0.33948E-02 
  45263.8105     0.33982E-02 
  45296.0726     0.34014E-02 
  45328.3348     0.34047E-02 
  45360.5970     0.34079E-02 
  45392.8591     0.34111E-02 
  45425.1213     0.34142E-02 
  45457.3834     0.34173E-02 
  45489.6456     0.34203E-02 
  45521.9078     0.34234E-02 
  45554.1699     0.34263E-02 
  45586.4321     0.34293E-02 
  45618.6942     0.34322E-02 
  45650.9564     0.34351E-02 
  45683.2186     0.34379E-02 
  45715.4807     0.34407E-02 
  45747.7429     0.34434E-02 
  45780.0050     0.34462E-02 
  45812.2672     0.34488E-02 
  45844.5294     0.34515E-02 
  45876.7915     0.34541E-02 
  45909.0537     0.34566E-02 
  45941.3158     0.34592E-02 
  45973.5780     0.34616E-02 
  46005.8402     0.34641E-02 
  46038.1023     0.34665E-02 
  46070.3645     0.34689E-02 
  46102.6266     0.34712E-02 
  46134.8888     0.34735E-02 
  46167.1510     0.34758E-02 
  46199.4131     0.34780E-02 
  46231.6753     0.34802E-02 
  46263.9374     0.34823E-02 
  46296.1996     0.34844E-02 
  46328.4618     0.34865E-02 
  46360.7239     0.34885E-02 
  46392.9861     0.34905E-02 
  46425.2482     0.34924E-02 
  46457.5104     0.34943E-02 
  46489.7726     0.34962E-02 
  46522.0347     0.34980E-02 
  46554.2969     0.34998E-02 
  46586.5590     0.35015E-02 
  46618.8212     0.35032E-02 
  46651.0834     0.35049E-02 
  46683.3455     0.35065E-02 
  46715.6077     0.35081E-02 
  46747.8698     0.35097E-02 
  46780.1320     0.35112E-02 
  46812.3942     0.35127E-02 
  46844.6563     0.35141E-02 
  46876.9185     0.35155E-02 
  46909.1806     0.35168E-02 
  46941.4428     0.35181E-02 
  46973.7050     0.35194E-02 
  47005.9671     0.35206E-02 
  47038.2293     0.35218E-02 
  47070.4914     0.35230E-02 
  47102.7536     0.35241E-02 
  47135.0158     0.35252E-02 
  47167.2779     0.35262E-02 
  47199.5401     0.35272E-02 
  47231.8022     0.35282E-02 
  47264.0644     0.35291E-02 
  47296.3266     0.35299E-02 
  47328.5887     0.35308E-02 
  47360.8509     0.35316E-02 
  47393.1130     0.35323E-02 
  47425.3752     0.35330E-02 
  47457.6374     0.35337E-02 
  47489.8995     0.35343E-02 
  47522.1617     0.35349E-02 
  47554.4238     0.35355E-02 
  47586.6860     0.35360E-02 
  47618.9482     0.35365E-02 
  47651.2103     0.35369E-02 
  47683.4725     0.35373E-02 
  47715.7346     0.35377E-02 
  47747.9968     0.35380E-02 
  47780.2590     0.35383E-02 
  47812.5211     0.35385E-02 
  47844.7833     0.35387E-02 
  47877.0454     0.35388E-02 
  47909.3076     0.35390E-02 
  47941.5698     0.35390E-02 
  47973.8319     0.35391E-02 
  48006.0941     0.35391E-02 
  48038.3562     0.35390E-02 
  48070.6184     0.35389E-02 
  48102.8806     0.35388E-02 
  48135.1427     0.35387E-02 
  48167.4049     0.35385E-02 
  48199.6670     0.35382E-02 
  48231.9292     0.35379E-02 
  48264.1914     0.35376E-02 
  48296.4535     0.35373E-02 
  48328.7157     0.35369E-02 
  48360.9778     0.35364E-02 
  48393.2400     0.35360E-02 
  48425.5022     0.35354E-02 
  48457.7643     0.35349E-02 
  48490.0265     0.35343E-02 
  48522.2886     0.35337E-02 
  48554.5508     0.35330E-02 
  48586.8130     0.35323E-02 
  48619.0751     0.35315E-02 
  48651.3373     0.35307E-02 
  48683.5994     0.35299E-02 
  48715.8616     0.35290E-02 
  48748.1238     0.35281E-02 
  48780.3859     0.35272E-02 
  48812.6481     0.35262E-02 
  48844.9102     0.35252E-02 
  48877.1724     0.35241E-02 
  48909.4346     0.35230E-02 
  48941.6967     0.35219E-02 
  48973.9589     0.35207E-02 
  49006.2210     0.35195E-02 
  49038.4832     0.35183E-02 
  49070.7454     0.35170E-02 
  49103.0075     0.35157E-02 
  49135.2697     0.35143E-02 
  49167.5318     0.35129E-02 
  49199.7940     0.35115E-02 
  49232.0562     0.35100E-02 
  49264.3183     0.35085E-02 
  49296.5805     0.35069E-02 
  49328.8426     0.35054E-02 
  49361.1048     0.35037E-02 
  49393.3670     0.35021E-02 
  49425.6291     0.35004E-02 
  49457.8913     0.34986E-02 
  49490.1534     0.34969E-02 
  49522.4156     0.34951E-02 
  49554.6778     0.34932E-02 
  49586.9399     0.34913E-02 
  49619.2021     0.34894E-02 
  49651.4642     0.34875E-02 
  49683.7264     0.34855E-02 
  49715.9886     0.34835E-02 
  49748.2507     0.34814E-02 
  49780.5129     0.34793E-02 
  49812.7750     0.34772E-02 
  49845.0372     0.34750E-02 
  49877.2994     0.34728E-02 
  49909.5615     0.34706E-02 
  49941.8237     0.34683E-02 
  49974.0858     0.34660E-02 
  50006.3480     0.34636E-02 
  50038.6102     0.34613E-02 
  50070.8723     0.34589E-02 
  50103.1345     0.34564E-02 
  50135.3966     0.34539E-02 
  50167.6588     0.34514E-02 
  50199.9210     0.34489E-02 
  50232.1831     0.34463E-02 
  50264.4453     0.34437E-02 
  50296.7074     0.34410E-02 
  50328.9696     0.34383E-02 
  50361.2318     0.34356E-02 
  50393.4939     0.34329E-02 
  50425.7561     0.34301E-02 
  50458.0182     0.34273E-02 
  50490.2804     0.34244E-02 
  50522.5426     0.34215E-02 
  50554.8047     0.34186E-02 
  50587.0669     0.34157E-02 
  50619.3290     0.34127E-02 
  50651.5912     0.34097E-02 
  50683.8534     0.34067E-02 
  50716.1155     0.34036E-02 
  50748.3777     0.34005E-02 
  50780.6398     0.33973E-02 
  50812.9020     0.33942E-02 
  50845.1642     0.33910E-02 
  50877.4263     0.33877E-02 
  50909.6885     0.33845E-02 
  50941.9506     0.33812E-02 
  50974.2128     0.33779E-02 
  51006.4750     0.33745E-02 
  51038.7371     0.33712E-02 
  51070.9993     0.33677E-02 
  51103.2614     0.33643E-02 
  51135.5236     0.33608E-02 
  51167.7858     0.33573E-02 
  51200.0479     0.33538E-02 
  51232.3101     0.33503E-02 
  51264.5722     0.33467E-02 
  51296.8344     0.33431E-02 
  51329.0966     0.33394E-02 
  51361.3587     0.33358E-02 
  51393.6209     0.33321E-02 
  51425.8830     0.33283E-02 
  51458.1452     0.33246E-02 
  51490.4074     0.33208E-02 
  51522.6695     0.33170E-02 
  51554.9317     0.33132E-02 
  51587.1938     0.33093E-02 
  51619.4560     0.33054E-02 
  51651.7182     0.33015E-02 
  51683.9803     0.32976E-02 
  51716.2425     0.32936E-02 
  51748.5046     0.32896E-02 
  51780.7668     0.32856E-02 
  51813.0290     0.32816E-02 
  51845.2911     0.32775E-02 
  51877.5533     0.32734E-02 
  51909.8154     0.32693E-02 
  51942.0776     0.32652E-02 
  51974.3398     0.32610E-02 
  52006.6019     0.32569E-02 
  52038.8641     0.32526E-02 
  52071.1262     0.32484E-02 
  52103.3884     0.32442E-02 
  52135.6506     0.32399E-02 
  52167.9127     0.32356E-02 
  52200.1749     0.32313E-02 
  52232.4370     0.32269E-02 
  52264.6992     0.32226E-02 
  52296.9614     0.32182E-02 
  52329.2235     0.32138E-02 
  52361.4857     0.32094E-02 
  52393.7478     0.32049E-02 
  52426.0100     0.32005E-02 
  52458.2722     0.31960E-02 
  52490.5343     0.31915E-02 
  52522.7965     0.31869E-02 
  52555.0586     0.31824E-02 
  52587.3208     0.31778E-02 
  52619.5830     0.31733E-02 
  52651.8451     0.31687E-02 
  52684.1073     0.31640E-02 
  52716.3694     0.31594E-02 
  52748.6316     0.31547E-02 
  52780.8938     0.31501E-02 
  52813.1559     0.31454E-02 
  52845.4181     0.31407E-02 
  52877.6802     0.31360E-02 
  52909.9424     0.31312E-02 
  52942.2046     0.31265E-02 
  52974.4667     0.31217E-02 
  53006.7289     0.31169E-02 
  53038.9910     0.31121E-02 
  53071.2532     0.31073E-02 
  53103.5154     0.31025E-02 
  53135.7775     0.30976E-02 
  53168.0397     0.30928E-02 
  53200.3018     0.30879E-02 
  53232.5640     0.30830E-02 
  53264.8262     0.30781E-02 
  53297.0883     0.30732E-02 
  53329.3505     0.30683E-02 
  53361.6126     0.30634E-02 
  53393.8748     0.30584E-02 
  53426.1370     0.30535E-02 
  53458.3991     0.30485E-02 
  53490.6613     0.30435E-02 
  53522.9234     0.30385E-02 
  53555.1856     0.30335E-02 
  53587.4478     0.30285E-02 
  53619.7099     0.30235E-02 
  53651.9721     0.30185E-02 
  53684.2342     0.30135E-02 
  53716.4964     0.30084E-02 
  53748.7586     0.30034E-02 
  53781.0207     0.29983E-02 
  53813.2829     0.29932E-02 
  53845.5450     0.29882E-02 
  53877.8072     0.29831E-02 
  53910.0694     0.29780E-02 
  53942.3315     0.29729E-02 
  53974.5937     0.29678E-02 
  54006.8558     0.29627E-02 
  54039.1180     0.29576E-02 
  54071.3802     0.29525E-02 
  54103.6423     0.29474E-02 
  54135.9045     0.29423E-02 
  54168.1666     0.29371E-02 
  54200.4288     0.29320E-02 
  54232.6910     0.29269E-02 
  54264.9531     0.29218E-02 
  54297.2153     0.29166E-02 
  54329.4774     0.29115E-02 
  54361.7396     0.29064E-02 
  54394.0018     0.29012E-02 
  54426.2639     0.28961E-02 
  54458.5261     0.28910E-02 
  54490.7882     0.28858E-02 
  54523.0504     0.28807E-02 
  54555.3126     0.28756E-02 
  54587.5747     0.28704E-02 
  54619.8369     0.28653E-02 
  54652.0990     0.28602E-02 
  54684.3612     0.28550E-02 
  54716.6234     0.28499E-02 
  54748.8855     0.28448E-02 
  54781.1477     0.28397E-02 
  54813.4098     0.28346E-02 
  54845.6720     0.28295E-02 
  54877.9342     0.28244E-02 
  54910.1963     0.28193E-02 
  54942.4585     0.28142E-02 
  54974.7206     0.28091E-02 
  55006.9828     0.28040E-02 
  55039.2450     0.27990E-02 
  55071.5071     0.27939E-02 
  55103.7693     0.27889E-02 
  55136.0314     0.27838E-02 
  55168.2936     0.27788E-02 
  55200.5558     0.27738E-02 
  55232.8179     0.27688E-02 
  55265.0801     0.27638E-02 
  55297.3422     0.27588E-02 
  55329.6044     0.27538E-02 
  55361.8666     0.27488E-02 
  55394.1287     0.27439E-02 
  55426.3909     0.27389E-02 
  55458.6530     0.27340E-02 
  55490.9152     0.27291E-02 
  55523.1774     0.27242E-02 
  55555.4395     0.27193E-02 
  55587.7017     0.27144E-02 
  55619.9638     0.27095E-02 
  55652.2260     0.27047E-02 
  55684.4882     0.26999E-02 
  55716.7503     0.26951E-02 
  55749.0125     0.26903E-02 
  55781.2746     0.26855E-02 
  55813.5368     0.26807E-02 
  55845.7990     0.26760E-02 
  55878.0611     0.26713E-02 
  55910.3233     0.26666E-02 
  55942.5854     0.26619E-02 
  55974.8476     0.26572E-02 
  56007.1098     0.26526E-02 
  56039.3719     0.26480E-02 
  56071.6341     0.26434E-02 
  56103.8962     0.26388E-02 
  56136.1584     0.26343E-02 
  56168.4206     0.26297E-02 
  56200.6827     0.26252E-02 
  56232.9449     0.26208E-02 
  56265.2070     0.26163E-02 
  56297.4692     0.26119E-02 
  56329.7314     0.26075E-02 
  56361.9935     0.26031E-02 
  56394.2557     0.25988E-02 
  56426.5178     0.25944E-02 
  56458.7800     0.25901E-02 
  56491.0422     0.25859E-02 
  56523.3043     0.25816E-02 
  56555.5665     0.25774E-02 
  56587.8286     0.25733E-02 
  56620.0908     0.25691E-02 
  56652.3530     0.25650E-02 
  56684.6151     0.25609E-02 
  56716.8773     0.25569E-02 
  56749.1394     0.25529E-02 
  56781.4016     0.25489E-02 
  56813.6638     0.25450E-02 
  56845.9259     0.25410E-02 
  56878.1881     0.25372E-02 
  56910.4502     0.25333E-02 
  56942.7124     0.25295E-02 
  56974.9746     0.25258E-02 
  57007.2367     0.25220E-02 
  57039.4989     0.25183E-02 
  57071.7610     0.25147E-02 
  57104.0232     0.25111E-02 
  57136.2854     0.25075E-02 
  57168.5475     0.25040E-02 
  57200.8097     0.25005E-02 
  57233.0718     0.24970E-02 
  57265.3340     0.24936E-02 
  57297.5962     0.24902E-02 
  57329.8583     0.24869E-02 
  57362.1205     0.24836E-02 
  57394.3826     0.24804E-02 
  57426.6448     0.24772E-02 
  57458.9070     0.24741E-02 
  57491.1691     0.24710E-02 
  57523.4313     0.24679E-02 
  57555.6934     0.24649E-02 
  57587.9556     0.24620E-02 
  57620.2178     0.24590E-02 
  57652.4799     0.24562E-02 
  57684.7421     0.24534E-02 
  57717.0042     0.24506E-02 
  57749.2664     0.24479E-02 
  57781.5286     0.24453E-02 
  57813.7907     0.24427E-02 
  57846.0529     0.24401E-02 
  57878.3150     0.24376E-02 
  57910.5772     0.24352E-02 
  57942.8394     0.24328E-02 
  57975.1015     0.24304E-02 
  58007.3637     0.24282E-02 
  58039.6258     0.24259E-02 
  58071.8880     0.24238E-02 
  58104.1502     0.24217E-02 
  58136.4123     0.24196E-02 
  58168.6745     0.24176E-02 
  58200.9366     0.24157E-02 
  58233.1988     0.24138E-02 
  58265.4610     0.24120E-02 
  58297.7231     0.24103E-02 
  58329.9853     0.24086E-02 
  58362.2474     0.24070E-02 
  58394.5096     0.24054E-02 
  58426.7718     0.24039E-02 
  58459.0339     0.24025E-02 
  58491.2961     0.24012E-02 
  58523.5582     0.23999E-02 
  58555.8204     0.23986E-02 
  58588.0826     0.23975E-02 
  58620.3447     0.23964E-02 
  58652.6069     0.23954E-02 
  58684.8690     0.23944E-02 
  58717.1312     0.23935E-02 
  58749.3934     0.23927E-02 
  58781.6555     0.23920E-02 
  58813.9177     0.23913E-02 
  58846.1798     0.23907E-02 
  58878.4420     0.23902E-02 
  58910.7042     0.23898E-02 
  58942.9663     0.23894E-02 
  58975.2285     0.23891E-02 
  59007.4906     0.23889E-02 
  59039.7528     0.23888E-02 
  59072.0150     0.23887E-02 
  59104.2771     0.23887E-02 
  59136.5393     0.23888E-02 
  59168.8014     0.23890E-02 
  59201.0636     0.23893E-02 
  59233.3258     0.23896E-02 
  59265.5879     0.23901E-02 
  59297.8501     0.23906E-02 
  59330.1122     0.23912E-02 
  59362.3744     0.23918E-02 
  59394.6366     0.23926E-02 
  59426.8987     0.23935E-02 
  59459.1609     0.23944E-02 
  59491.4230     0.23954E-02 
  59523.6852     0.23965E-02 
  59555.9474     0.23977E-02 
  59588.2095     0.23990E-02 
  59620.4717     0.24004E-02 
  59652.7338     0.24019E-02 
  59684.9960     0.24035E-02 
  59717.2582     0.24051E-02 
  59749.5203     0.24069E-02 
  59781.7825     0.24087E-02 
  59814.0446     0.24107E-02 
  59846.3068     0.24127E-02 
  59878.5690     0.24148E-02 
  59910.8311     0.24171E-02 
  59943.0933     0.24194E-02 
  59975.3554     0.24218E-02 
  60007.6176     0.24244E-02 
  60039.8798     0.24270E-02 
  60072.1419     0.24297E-02 
  60104.4041     0.24326E-02 
  60136.6662     0.24355E-02 
  60168.9284     0.24385E-02 
  60201.1906     0.24417E-02 
  60233.4527     0.24449E-02 
  60265.7149     0.24483E-02 
  60297.9770     0.24517E-02 
  60330.2392     0.24553E-02 
  60362.5014     0.24590E-02 
  60394.7635     0.24628E-02 
  60427.0257     0.24667E-02 
  60459.2878     0.24707E-02 
  60491.5500     0.24748E-02 
  60523.8122     0.24790E-02 
  60556.0743     0.24834E-02 
  60588.3365     0.24878E-02 
  60620.5986     0.24924E-02 
  60652.8608     0.24971E-02 
  60685.1230     0.25019E-02 
  60717.3851     0.25068E-02 
  60749.6473     0.25119E-02 
  60781.9094     0.25170E-02 
  60814.1716     0.25223E-02 
  60846.4338     0.25277E-02 
  60878.6959     0.25332E-02 
  60910.9581     0.25389E-02 
  60943.2202     0.25446E-02 
  60975.4824     0.25505E-02 
  61007.7446     0.25565E-02 
  61040.0067     0.25627E-02 
  61072.2689     0.25689E-02 
  61104.5310     0.25753E-02 
  61136.7932     0.25818E-02 
  61169.0554     0.25885E-02 
  61201.3175     0.25953E-02 
  61233.5797     0.26022E-02 
  61265.8418     0.26092E-02 
  61298.1040     0.26164E-02 
  61330.3662     0.26237E-02 
  61362.6283     0.26311E-02 
  61394.8905     0.26387E-02 
  61427.1526     0.26464E-02 
  61459.4148     0.26542E-02 
  61491.6770     0.26622E-02 
  61523.9391     0.26703E-02 
  61556.2013     0.26786E-02 
  61588.4634     0.26870E-02 
  61620.7256     0.26955E-02 
  61652.9878     0.27042E-02 
  61685.2499     0.27130E-02 
  61717.5121     0.27219E-02 
  61749.7742     0.27310E-02 
  61782.0364     0.27403E-02 
  61814.2986     0.27497E-02 
  61846.5607     0.27592E-02 
  61878.8229     0.27689E-02 
  61911.0850     0.27787E-02 
  61943.3472     0.27887E-02 
  61975.6094     0.27988E-02 
  62007.8715     0.28091E-02 
  62040.1337     0.28195E-02 
  62072.3958     0.28301E-02 
  62104.6580     0.28409E-02 
  62136.9202     0.28518E-02 
  62169.1823     0.28628E-02 
  62201.4445     0.28740E-02 
  62233.7066     0.28853E-02 
  62265.9688     0.28969E-02 
  62298.2310     0.29085E-02 
  62330.4931     0.29204E-02 
  62362.7553     0.29323E-02 
  62395.0174     0.29445E-02 
  62427.2796     0.29568E-02 
  62459.5418     0.29693E-02 
  62491.8039     0.29819E-02 
  62524.0661     0.29947E-02 
  62556.3282     0.30077E-02 
  62588.5904     0.30208E-02 
  62620.8526     0.30341E-02 
  62653.1147     0.30476E-02 
  62685.3769     0.30612E-02 
  62717.6390     0.30750E-02 
  62749.9012     0.30890E-02 
  62782.1634     0.31031E-02 
  62814.4255     0.31174E-02 
  62846.6877     0.31319E-02 
  62878.9498     0.31466E-02 
  62911.2120     0.31614E-02 
  62943.4742     0.31764E-02 
  62975.7363     0.31916E-02 
  63007.9985     0.32069E-02 
  63040.2606     0.32225E-02 
  63072.5228     0.32382E-02 
  63104.7850     0.32541E-02 
  63137.0471     0.32701E-02 
  63169.3093     0.32864E-02 
  63201.5714     0.33028E-02 
  63233.8336     0.33195E-02 
  63266.0958     0.33363E-02 
  63298.3579     0.33532E-02 
  63330.6201     0.33704E-02 
  63362.8822     0.33878E-02 
  63395.1444     0.34053E-02 
  63427.4066     0.34230E-02 
  63459.6687     0.34410E-02 
  63491.9309     0.34591E-02 
  63524.1930     0.34774E-02 
  63556.4552     0.34959E-02 
  63588.7174     0.35145E-02 
  63620.9795     0.35334E-02 
  63653.2417     0.35525E-02 
  63685.5038     0.35717E-02 
  63717.7660     0.35912E-02 
  63750.0282     0.36108E-02 
  63782.2903     0.36307E-02 
  63814.5525     0.36507E-02 
  63846.8146     0.36710E-02 
  63879.0768     0.36914E-02 
  63911.3390     0.37121E-02 
  63943.6011     0.37329E-02 
  63975.8633     0.37539E-02 
  64008.1254     0.37752E-02 
  64040.3876     0.37966E-02 
  64072.6498     0.38183E-02 
  64104.9119     0.38402E-02 
  64137.1741     0.38622E-02 
  64169.4362     0.38845E-02 
  64201.6984     0.39070E-02 
  64233.9606     0.39297E-02 
  64266.2227     0.39526E-02 
  64298.4849     0.39757E-02 
  64330.7470     0.39990E-02 
  64363.0092     0.40225E-02 
  64395.2714     0.40462E-02 
  64427.5335     0.40702E-02 
  64459.7957     0.40943E-02 
  64492.0578     0.41187E-02 
  64524.3200     0.41433E-02 
  64556.5822     0.41681E-02 
  64588.8443     0.41932E-02 
  64621.1065     0.42184E-02 
  64653.3686     0.42439E-02 
  64685.6308     0.42695E-02 
  64717.8930     0.42954E-02 
  64750.1551     0.43216E-02 
  64782.4173     0.43479E-02 
  64814.6794     0.43745E-02 
  64846.9416     0.44012E-02 
  64879.2038     0.44283E-02 
  64911.4659     0.44555E-02 
  64943.7281     0.44829E-02 
  64975.9902     0.45106E-02 
  65008.2524     0.45385E-02 
  65040.5146     0.45667E-02 
  65072.7767     0.45950E-02 
  65105.0389     0.46236E-02 
  65137.3010     0.46525E-02 
  65169.5632     0.46815E-02 
  65201.8254     0.47108E-02 
  65234.0875     0.47403E-02 
  65266.3497     0.47701E-02 
  65298.6118     0.48000E-02 
  65330.8740     0.48302E-02 
  65363.1362     0.48607E-02 
  65395.3983     0.48914E-02 
  65427.6605     0.49223E-02 
  65459.9226     0.49534E-02 
  65492.1848     0.49848E-02 
  65524.4470     0.50165E-02 
  65556.7091     0.50483E-02 
  65588.9713     0.50804E-02 
  65621.2334     0.51128E-02 
  65653.4956     0.51454E-02 
  65685.7578     0.51782E-02 
  65718.0199     0.52112E-02 
  65750.2821     0.52445E-02 
  65782.5442     0.52781E-02 
  65814.8064     0.53119E-02 
  65847.0686     0.53459E-02 
  65879.3307     0.53802E-02 
  65911.5929     0.54147E-02 
  65943.8550     0.54495E-02 
  65976.1172     0.54845E-02 
  66008.3794     0.55198E-02 
  66040.6415     0.55553E-02 
  66072.9037     0.55911E-02 
  66105.1658     0.56271E-02 
  66137.4280     0.56634E-02 
  66169.6902     0.56999E-02 
  66201.9523     0.57366E-02 
  66234.2145     0.57736E-02 
  66266.4766     0.58109E-02 
  66298.7388     0.58484E-02 
  66331.0010     0.58862E-02 
  66363.2631     0.59242E-02 
  66395.5253     0.59625E-02 
  66427.7874     0.60010E-02 
  66460.0496     0.60398E-02 
  66492.3118     0.60789E-02 
  66524.5739     0.61181E-02 
  66556.8361     0.61577E-02 
  66589.0982     0.61975E-02 
  66621.3604     0.62376E-02 
  66653.6226     0.62779E-02 
  66685.8847     0.63185E-02 
  66718.1469     0.63593E-02 
  66750.4090     0.64004E-02 
  66782.6712     0.64418E-02 
  66814.9334     0.64834E-02 
  66847.1955     0.65253E-02 
  66879.4577     0.65675E-02 
  66911.7198     0.66099E-02 
  66943.9820     0.66525E-02 
  66976.2442     0.66955E-02 
  67008.5063     0.67387E-02 
  67040.7685     0.67821E-02 
  67073.0306     0.68258E-02 
  67105.2928     0.68698E-02 
  67137.5550     0.69141E-02 
  67169.8171     0.69586E-02 
  67202.0793     0.70034E-02 
  67234.3414     0.70484E-02 
  67266.6036     0.70937E-02 
  67298.8658     0.71393E-02 
  67331.1279     0.71851E-02 
  67363.3901     0.72313E-02 
  67395.6522     0.72776E-02 
  67427.9144     0.73243E-02 
  67460.1766     0.73712E-02 
  67492.4387     0.74184E-02 
  67524.7009     0.74658E-02 
  67556.9630     0.75136E-02 
  67589.2252     0.75616E-02 
  67621.4874     0.76098E-02 
  67653.7495     0.76583E-02 
  67686.0117     0.77071E-02 
  67718.2738     0.77562E-02 
  67750.5360     0.78056E-02 
  67782.7982     0.78552E-02 
  67815.0603     0.79051E-02 
  67847.3225     0.79552E-02 
  67879.5846     0.80056E-02 
  67911.8468     0.80563E-02 
  67944.1090     0.81073E-02 
  67976.3711     0.81586E-02 
  68008.6333     0.82101E-02 
  68040.8954     0.82619E-02 
  68073.1576     0.83139E-02 
  68105.4198     0.83663E-02 
  68137.6819     0.84189E-02 
  68169.9441     0.84717E-02 
  68202.2062     0.85249E-02 
  68234.4684     0.85783E-02 
  68266.7306     0.86320E-02 
  68298.9927     0.86860E-02 
  68331.2549     0.87403E-02 
  68363.5170     0.87948E-02 
  68395.7792     0.88496E-02 
  68428.0414     0.89046E-02 
  68460.3035     0.89600E-02 
  68492.5657     0.90156E-02 
  68524.8278     0.90715E-02 
  68557.0900     0.91277E-02 
  68589.3522     0.91841E-02 
  68621.6143     0.92408E-02 
  68653.8765     0.92978E-02 
  68686.1386     0.93551E-02 
  68718.4008     0.94126E-02 
  68750.6630     0.94704E-02 
  68782.9251     0.95285E-02 
  68815.1873     0.95869E-02 
  68847.4494     0.96455E-02 
  68879.7116     0.97044E-02 
  68911.9738     0.97636E-02 
  68944.2359     0.98231E-02 
  68976.4981     0.98828E-02 
  69008.7602     0.99428E-02 
  69041.0224     0.10003E-01 
  69073.2846     0.10064E-01 
  69105.5467     0.10124E-01 
  69137.8089     0.10186E-01 
  69170.0710     0.10247E-01 
  69202.3332     0.10309E-01 
  69234.5954     0.10371E-01 
  69266.8575     0.10433E-01 
  69299.1197     0.10495E-01 
  69331.3818     0.10558E-01 
  69363.6440     0.10621E-01 
  69395.9062     0.10684E-01 
  69428.1683     0.10748E-01 
  69460.4305     0.10812E-01 
  69492.6926     0.10876E-01 
  69524.9548     0.10940E-01 
  69557.2170     0.11005E-01 
  69589.4791     0.11070E-01 
  69621.7413     0.11135E-01 
  69654.0034     0.11200E-01 
  69686.2656     0.11266E-01 
  69718.5278     0.11332E-01 
  69750.7899     0.11398E-01 
  69783.0521     0.11465E-01 
  69815.3142     0.11532E-01 
  69847.5764     0.11599E-01 
  69879.8386     0.11666E-01 
  69912.1007     0.11734E-01 
  69944.3629     0.11801E-01 
  69976.6250     0.11870E-01 
  70008.8872     0.11938E-01 
  70041.1494     0.12007E-01 
  70073.4115     0.12076E-01 
  70105.6737     0.12145E-01 
  70137.9358     0.12214E-01 
  70170.1980     0.12284E-01 
  70202.4602     0.12354E-01 
  70234.7223     0.12424E-01 
  70266.9845     0.12495E-01 
  70299.2466     0.12565E-01 
  70331.5088     0.12637E-01 
  70363.7710     0.12708E-01 
  70396.0331     0.12779E-01 
  70428.2953     0.12851E-01 
  70460.5574     0.12923E-01 
  70492.8196     0.12996E-01 
  70525.0818     0.13068E-01 
  70557.3439     0.13141E-01 
  70589.6061     0.13214E-01 
  70621.8682     0.13288E-01 
  70654.1304     0.13361E-01 
  70686.3926     0.13435E-01 
  70718.6547     0.13509E-01 
  70750.9169     0.13584E-01 
  70783.1790     0.13658E-01 
  70815.4412     0.13733E-01 
  70847.7034     0.13808E-01 
  70879.9655     0.13884E-01 
  70912.2277     0.13959E-01 
  70944.4898     0.14035E-01 
  70976.7520     0.14111E-01 
  71009.0142     0.14188E-01 
  71041.2763     0.14264E-01 
  71073.5385     0.14341E-01 
  71105.8006     0.14418E-01 
  71138.0628     0.14496E-01 
  71170.3250     0.14573E-01 
  71202.5871     0.14651E-01 
  71234.8493     0.14729E-01 
  71267.1114     0.14808E-01 
  71299.3736     0.14886E-01 
  71331.6358     0.14965E-01 
  71363.8979     0.15044E-01 
  71396.1601     0.15123E-01 
  71428.4222     0.15203E-01 
  71460.6844     0.15283E-01 
  71492.9466     0.15363E-01 
  71525.2087     0.15443E-01 
  71557.4709     0.15523E-01 
  71589.7330     0.15604E-01 
  71621.9952     0.15685E-01 
  71654.2574     0.15766E-01 
  71686.5195     0.15848E-01 
  71718.7817     0.15929E-01 
  71751.0438     0.16011E-01 
  71783.3060     0.16093E-01 
  71815.5682     0.16176E-01 
  71847.8303     0.16258E-01 
  71880.0925     0.16341E-01 
  71912.3546     0.16424E-01 
  71944.6168     0.16507E-01 
  71976.8790     0.16591E-01 
  72009.1411     0.16674E-01 
  72041.4033     0.16758E-01 
  72073.6654     0.16842E-01 
  72105.9276     0.16926E-01 
  72138.1898     0.17011E-01 
  72170.4519     0.17096E-01 
  72202.7141     0.17181E-01 
  72234.9762     0.17266E-01 
  72267.2384     0.17351E-01 
  72299.5006     0.17437E-01 
  72331.7627     0.17522E-01 
  72364.0249     0.17608E-01 
  72396.2870     0.17695E-01 
  72428.5492     0.17781E-01 
  72460.8114     0.17868E-01 
  72493.0735     0.17954E-01 
  72525.3357     0.18041E-01 
  72557.5978     0.18129E-01 
  72589.8600     0.18216E-01 
