  32262.1600     0.16377E+03 
  32294.4222     0.16500E+03 
  32326.6843     0.16623E+03 
  32358.9465     0.16747E+03 
  32391.2086     0.16871E+03 
  32423.4708     0.16996E+03 
  32455.7330     0.17122E+03 
  32487.9951     0.17248E+03 
  32520.2573     0.17374E+03 
  32552.5194     0.17502E+03 
  32584.7816     0.17629E+03 
  32617.0438     0.17757E+03 
  32649.3059     0.17886E+03 
  32681.5681     0.18015E+03 
  32713.8302     0.18145E+03 
  32746.0924     0.18276E+03 
  32778.3546     0.18406E+03 
  32810.6167     0.18538E+03 
  32842.8789     0.18670E+03 
  32875.1410     0.18802E+03 
  32907.4032     0.18935E+03 
  32939.6654     0.19069E+03 
  32971.9275     0.19203E+03 
  33004.1897     0.19337E+03 
  33036.4518     0.19472E+03 
  33068.7140     0.19608E+03 
  33100.9762     0.19744E+03 
  33133.2383     0.19881E+03 
  33165.5005     0.20018E+03 
  33197.7626     0.20155E+03 
  33230.0248     0.20293E+03 
  33262.2870     0.20432E+03 
  33294.5491     0.20571E+03 
  33326.8113     0.20711E+03 
  33359.0734     0.20851E+03 
  33391.3356     0.20992E+03 
  33423.5978     0.21133E+03 
  33455.8599     0.21275E+03 
  33488.1221     0.21417E+03 
  33520.3842     0.21560E+03 
  33552.6464     0.21703E+03 
  33584.9086     0.21846E+03 
  33617.1707     0.21990E+03 
  33649.4329     0.22135E+03 
  33681.6950     0.22280E+03 
  33713.9572     0.22426E+03 
  33746.2194     0.22572E+03 
  33778.4815     0.22718E+03 
  33810.7437     0.22865E+03 
  33843.0058     0.23013E+03 
  33875.2680     0.23161E+03 
  33907.5302     0.23309E+03 
  33939.7923     0.23458E+03 
  33972.0545     0.23607E+03 
  34004.3166     0.23757E+03 
  34036.5788     0.23907E+03 
  34068.8410     0.24058E+03 
  34101.1031     0.24209E+03 
  34133.3653     0.24360E+03 
  34165.6274     0.24512E+03 
  34197.8896     0.24665E+03 
  34230.1518     0.24818E+03 
  34262.4139     0.24971E+03 
  34294.6761     0.25125E+03 
  34326.9382     0.25279E+03 
  34359.2004     0.25434E+03 
  34391.4626     0.25589E+03 
  34423.7247     0.25744E+03 
  34455.9869     0.25900E+03 
  34488.2490     0.26056E+03 
  34520.5112     0.26213E+03 
  34552.7734     0.26370E+03 
  34585.0355     0.26528E+03 
  34617.2977     0.26685E+03 
  34649.5598     0.26844E+03 
  34681.8220     0.27002E+03 
  34714.0842     0.27161E+03 
  34746.3463     0.27321E+03 
  34778.6085     0.27481E+03 
  34810.8706     0.27641E+03 
  34843.1328     0.27802E+03 
  34875.3950     0.27963E+03 
  34907.6571     0.28124E+03 
  34939.9193     0.28286E+03 
  34972.1814     0.28448E+03 
  35004.4436     0.28610E+03 
  35036.7058     0.28773E+03 
  35068.9679     0.28936E+03 
  35101.2301     0.29099E+03 
  35133.4922     0.29263E+03 
  35165.7544     0.29427E+03 
  35198.0166     0.29592E+03 
  35230.2787     0.29757E+03 
  35262.5409     0.29922E+03 
  35294.8030     0.30087E+03 
  35327.0652     0.30253E+03 
  35359.3274     0.30419E+03 
  35391.5895     0.30586E+03 
  35423.8517     0.30752E+03 
  35456.1138     0.30919E+03 
  35488.3760     0.31087E+03 
  35520.6382     0.31254E+03 
  35552.9003     0.31422E+03 
  35585.1625     0.31591E+03 
  35617.4246     0.31759E+03 
  35649.6868     0.31928E+03 
  35681.9490     0.32097E+03 
  35714.2111     0.32266E+03 
  35746.4733     0.32436E+03 
  35778.7354     0.32606E+03 
  35810.9976     0.32776E+03 
  35843.2598     0.32946E+03 
  35875.5219     0.33117E+03 
  35907.7841     0.33287E+03 
  35940.0462     0.33458E+03 
  35972.3084     0.33630E+03 
  36004.5706     0.33801E+03 
  36036.8327     0.33973E+03 
  36069.0949     0.34145E+03 
  36101.3570     0.34317E+03 
  36133.6192     0.34490E+03 
  36165.8814     0.34662E+03 
  36198.1435     0.34835E+03 
  36230.4057     0.35008E+03 
  36262.6678     0.35181E+03 
  36294.9300     0.35355E+03 
  36327.1922     0.35528E+03 
  36359.4543     0.35702E+03 
  36391.7165     0.35876E+03 
  36423.9786     0.36050E+03 
  36456.2408     0.36224E+03 
  36488.5030     0.36399E+03 
  36520.7651     0.36573E+03 
  36553.0273     0.36748E+03 
  36585.2894     0.36923E+03 
  36617.5516     0.37098E+03 
  36649.8138     0.37273E+03 
  36682.0759     0.37448E+03 
  36714.3381     0.37623E+03 
  36746.6002     0.37799E+03 
  36778.8624     0.37974E+03 
  36811.1246     0.38150E+03 
  36843.3867     0.38326E+03 
  36875.6489     0.38502E+03 
  36907.9110     0.38678E+03 
  36940.1732     0.38854E+03 
  36972.4354     0.39030E+03 
  37004.6975     0.39206E+03 
  37036.9597     0.39382E+03 
  37069.2218     0.39559E+03 
  37101.4840     0.39735E+03 
  37133.7462     0.39911E+03 
  37166.0083     0.40088E+03 
  37198.2705     0.40265E+03 
  37230.5326     0.40441E+03 
  37262.7948     0.40618E+03 
  37295.0570     0.40794E+03 
  37327.3191     0.40971E+03 
  37359.5813     0.41148E+03 
  37391.8434     0.41324E+03 
  37424.1056     0.41501E+03 
  37456.3678     0.41678E+03 
  37488.6299     0.41854E+03 
  37520.8921     0.42031E+03 
  37553.1542     0.42208E+03 
  37585.4164     0.42384E+03 
  37617.6786     0.42561E+03 
  37649.9407     0.42737E+03 
  37682.2029     0.42914E+03 
  37714.4650     0.43090E+03 
  37746.7272     0.43267E+03 
  37778.9894     0.43443E+03 
  37811.2515     0.43619E+03 
  37843.5137     0.43796E+03 
  37875.7758     0.43972E+03 
  37908.0380     0.44148E+03 
  37940.3002     0.44324E+03 
  37972.5623     0.44500E+03 
  38004.8245     0.44675E+03 
  38037.0866     0.44851E+03 
  38069.3488     0.45027E+03 
  38101.6110     0.45202E+03 
  38133.8731     0.45377E+03 
  38166.1353     0.45552E+03 
  38198.3974     0.45728E+03 
  38230.6596     0.45902E+03 
  38262.9218     0.46077E+03 
  38295.1839     0.46252E+03 
  38327.4461     0.46426E+03 
  38359.7082     0.46601E+03 
  38391.9704     0.46775E+03 
  38424.2326     0.46949E+03 
  38456.4947     0.47122E+03 
  38488.7569     0.47296E+03 
  38521.0190     0.47469E+03 
  38553.2812     0.47643E+03 
  38585.5434     0.47816E+03 
  38617.8055     0.47988E+03 
  38650.0677     0.48161E+03 
  38682.3298     0.48333E+03 
  38714.5920     0.48505E+03 
  38746.8542     0.48677E+03 
  38779.1163     0.48849E+03 
  38811.3785     0.49020E+03 
  38843.6406     0.49191E+03 
  38875.9028     0.49362E+03 
  38908.1650     0.49533E+03 
  38940.4271     0.49703E+03 
  38972.6893     0.49873E+03 
  39004.9514     0.50043E+03 
  39037.2136     0.50212E+03 
  39069.4758     0.50382E+03 
  39101.7379     0.50551E+03 
  39134.0001     0.50719E+03 
  39166.2622     0.50887E+03 
  39198.5244     0.51055E+03 
  39230.7866     0.51223E+03 
  39263.0487     0.51390E+03 
  39295.3109     0.51557E+03 
  39327.5730     0.51724E+03 
  39359.8352     0.51890E+03 
  39392.0974     0.52056E+03 
  39424.3595     0.52222E+03 
  39456.6217     0.52387E+03 
  39488.8838     0.52552E+03 
  39521.1460     0.52716E+03 
  39553.4082     0.52880E+03 
  39585.6703     0.53044E+03 
  39617.9325     0.53207E+03 
  39650.1946     0.53370E+03 
  39682.4568     0.53533E+03 
  39714.7190     0.53695E+03 
  39746.9811     0.53856E+03 
  39779.2433     0.54018E+03 
  39811.5054     0.54178E+03 
  39843.7676     0.54339E+03 
  39876.0298     0.54499E+03 
  39908.2919     0.54658E+03 
  39940.5541     0.54817E+03 
  39972.8162     0.54976E+03 
  40005.0784     0.55134E+03 
  40037.3406     0.55292E+03 
  40069.6027     0.55449E+03 
  40101.8649     0.55605E+03 
  40134.1270     0.55762E+03 
  40166.3892     0.55917E+03 
  40198.6514     0.56073E+03 
  40230.9135     0.56227E+03 
  40263.1757     0.56381E+03 
  40295.4378     0.56535E+03 
  40327.7000     0.56688E+03 
  40359.9622     0.56841E+03 
  40392.2243     0.56993E+03 
  40424.4865     0.57144E+03 
  40456.7486     0.57295E+03 
  40489.0108     0.57446E+03 
  40521.2730     0.57596E+03 
  40553.5351     0.57745E+03 
  40585.7973     0.57894E+03 
  40618.0594     0.58042E+03 
  40650.3216     0.58190E+03 
  40682.5838     0.58337E+03 
  40714.8459     0.58483E+03 
  40747.1081     0.58629E+03 
  40779.3702     0.58774E+03 
  40811.6324     0.58919E+03 
  40843.8946     0.59063E+03 
  40876.1567     0.59207E+03 
  40908.4189     0.59349E+03 
  40940.6810     0.59492E+03 
  40972.9432     0.59633E+03 
  41005.2054     0.59774E+03 
  41037.4675     0.59914E+03 
  41069.7297     0.60054E+03 
  41101.9918     0.60193E+03 
  41134.2540     0.60331E+03 
  41166.5162     0.60469E+03 
  41198.7783     0.60606E+03 
  41231.0405     0.60742E+03 
  41263.3026     0.60878E+03 
  41295.5648     0.61013E+03 
  41327.8270     0.61147E+03 
  41360.0891     0.61281E+03 
  41392.3513     0.61414E+03 
  41424.6134     0.61546E+03 
  41456.8756     0.61678E+03 
  41489.1378     0.61808E+03 
  41521.3999     0.61938E+03 
  41553.6621     0.62068E+03 
  41585.9242     0.62196E+03 
  41618.1864     0.62324E+03 
  41650.4486     0.62451E+03 
  41682.7107     0.62578E+03 
  41714.9729     0.62704E+03 
  41747.2350     0.62828E+03 
  41779.4972     0.62953E+03 
  41811.7594     0.63076E+03 
  41844.0215     0.63199E+03 
  41876.2837     0.63321E+03 
  41908.5458     0.63442E+03 
  41940.8080     0.63562E+03 
  41973.0702     0.63682E+03 
  42005.3323     0.63800E+03 
  42037.5945     0.63918E+03 
  42069.8566     0.64035E+03 
  42102.1188     0.64152E+03 
  42134.3810     0.64267E+03 
  42166.6431     0.64382E+03 
  42198.9053     0.64496E+03 
  42231.1674     0.64609E+03 
  42263.4296     0.64721E+03 
  42295.6918     0.64833E+03 
  42327.9539     0.64944E+03 
  42360.2161     0.65053E+03 
  42392.4782     0.65162E+03 
  42424.7404     0.65271E+03 
  42457.0026     0.65378E+03 
  42489.2647     0.65484E+03 
  42521.5269     0.65590E+03 
  42553.7890     0.65695E+03 
  42586.0512     0.65799E+03 
  42618.3134     0.65902E+03 
  42650.5755     0.66004E+03 
  42682.8377     0.66105E+03 
  42715.0998     0.66205E+03 
  42747.3620     0.66305E+03 
  42779.6242     0.66403E+03 
  42811.8863     0.66501E+03 
  42844.1485     0.66598E+03 
  42876.4106     0.66694E+03 
  42908.6728     0.66789E+03 
  42940.9350     0.66883E+03 
  42973.1971     0.66977E+03 
  43005.4593     0.67069E+03 
  43037.7214     0.67160E+03 
  43069.9836     0.67251E+03 
  43102.2458     0.67340E+03 
  43134.5079     0.67429E+03 
  43166.7701     0.67517E+03 
  43199.0322     0.67604E+03 
  43231.2944     0.67690E+03 
  43263.5566     0.67775E+03 
  43295.8187     0.67859E+03 
  43328.0809     0.67942E+03 
  43360.3430     0.68024E+03 
  43392.6052     0.68105E+03 
  43424.8674     0.68185E+03 
  43457.1295     0.68264E+03 
  43489.3917     0.68343E+03 
  43521.6538     0.68420E+03 
  43553.9160     0.68497E+03 
  43586.1782     0.68572E+03 
  43618.4403     0.68647E+03 
  43650.7025     0.68720E+03 
  43682.9646     0.68793E+03 
  43715.2268     0.68864E+03 
  43747.4890     0.68935E+03 
  43779.7511     0.69004E+03 
  43812.0133     0.69073E+03 
  43844.2754     0.69141E+03 
  43876.5376     0.69207E+03 
  43908.7998     0.69273E+03 
  43941.0619     0.69338E+03 
  43973.3241     0.69401E+03 
  44005.5862     0.69464E+03 
  44037.8484     0.69526E+03 
  44070.1106     0.69586E+03 
  44102.3727     0.69646E+03 
  44134.6349     0.69705E+03 
  44166.8970     0.69763E+03 
  44199.1592     0.69819E+03 
  44231.4214     0.69875E+03 
  44263.6835     0.69929E+03 
  44295.9457     0.69983E+03 
  44328.2078     0.70036E+03 
  44360.4700     0.70087E+03 
  44392.7322     0.70138E+03 
  44424.9943     0.70188E+03 
  44457.2565     0.70236E+03 
  44489.5186     0.70284E+03 
  44521.7808     0.70330E+03 
  44554.0430     0.70376E+03 
  44586.3051     0.70420E+03 
  44618.5673     0.70463E+03 
  44650.8294     0.70506E+03 
  44683.0916     0.70547E+03 
  44715.3538     0.70587E+03 
  44747.6159     0.70627E+03 
  44779.8781     0.70665E+03 
  44812.1402     0.70702E+03 
  44844.4024     0.70738E+03 
  44876.6646     0.70773E+03 
  44908.9267     0.70807E+03 
  44941.1889     0.70841E+03 
  44973.4510     0.70873E+03 
  45005.7132     0.70903E+03 
  45037.9754     0.70933E+03 
  45070.2375     0.70962E+03 
  45102.4997     0.70990E+03 
  45134.7618     0.71017E+03 
  45167.0240     0.71043E+03 
  45199.2862     0.71067E+03 
  45231.5483     0.71091E+03 
  45263.8105     0.71113E+03 
  45296.0726     0.71135E+03 
  45328.3348     0.71155E+03 
  45360.5970     0.71175E+03 
  45392.8591     0.71193E+03 
  45425.1213     0.71210E+03 
  45457.3834     0.71227E+03 
  45489.6456     0.71242E+03 
  45521.9078     0.71256E+03 
  45554.1699     0.71269E+03 
  45586.4321     0.71281E+03 
  45618.6942     0.71292E+03 
  45650.9564     0.71302E+03 
  45683.2186     0.71311E+03 
  45715.4807     0.71319E+03 
  45747.7429     0.71325E+03 
  45780.0050     0.71331E+03 
  45812.2672     0.71336E+03 
  45844.5294     0.71339E+03 
  45876.7915     0.71342E+03 
  45909.0537     0.71343E+03 
  45941.3158     0.71344E+03 
  45973.5780     0.71343E+03 
  46005.8402     0.71342E+03 
  46038.1023     0.71339E+03 
  46070.3645     0.71335E+03 
  46102.6266     0.71330E+03 
  46134.8888     0.71324E+03 
  46167.1510     0.71317E+03 
  46199.4131     0.71309E+03 
  46231.6753     0.71300E+03 
  46263.9374     0.71290E+03 
  46296.1996     0.71279E+03 
  46328.4618     0.71267E+03 
  46360.7239     0.71254E+03 
  46392.9861     0.71240E+03 
  46425.2482     0.71224E+03 
  46457.5104     0.71208E+03 
  46489.7726     0.71190E+03 
  46522.0347     0.71172E+03 
  46554.2969     0.71153E+03 
  46586.5590     0.71132E+03 
  46618.8212     0.71110E+03 
  46651.0834     0.71088E+03 
  46683.3455     0.71064E+03 
  46715.6077     0.71040E+03 
  46747.8698     0.71014E+03 
  46780.1320     0.70987E+03 
  46812.3942     0.70959E+03 
  46844.6563     0.70930E+03 
  46876.9185     0.70901E+03 
  46909.1806     0.70870E+03 
  46941.4428     0.70838E+03 
  46973.7050     0.70805E+03 
  47005.9671     0.70771E+03 
  47038.2293     0.70736E+03 
  47070.4914     0.70700E+03 
  47102.7536     0.70663E+03 
  47135.0158     0.70625E+03 
  47167.2779     0.70586E+03 
  47199.5401     0.70546E+03 
  47231.8022     0.70505E+03 
  47264.0644     0.70463E+03 
  47296.3266     0.70420E+03 
  47328.5887     0.70375E+03 
  47360.8509     0.70330E+03 
  47393.1130     0.70284E+03 
  47425.3752     0.70237E+03 
  47457.6374     0.70189E+03 
  47489.8995     0.70140E+03 
  47522.1617     0.70090E+03 
  47554.4238     0.70039E+03 
  47586.6860     0.69987E+03 
  47618.9482     0.69934E+03 
  47651.2103     0.69880E+03 
  47683.4725     0.69824E+03 
  47715.7346     0.69768E+03 
  47747.9968     0.69711E+03 
  47780.2590     0.69653E+03 
  47812.5211     0.69595E+03 
  47844.7833     0.69535E+03 
  47877.0454     0.69474E+03 
  47909.3076     0.69412E+03 
  47941.5698     0.69349E+03 
  47973.8319     0.69285E+03 
  48006.0941     0.69220E+03 
  48038.3562     0.69155E+03 
  48070.6184     0.69088E+03 
  48102.8806     0.69020E+03 
  48135.1427     0.68952E+03 
  48167.4049     0.68882E+03 
  48199.6670     0.68812E+03 
  48231.9292     0.68741E+03 
  48264.1914     0.68668E+03 
  48296.4535     0.68595E+03 
  48328.7157     0.68521E+03 
  48360.9778     0.68446E+03 
  48393.2400     0.68370E+03 
  48425.5022     0.68293E+03 
  48457.7643     0.68215E+03 
  48490.0265     0.68136E+03 
  48522.2886     0.68056E+03 
  48554.5508     0.67976E+03 
  48586.8130     0.67894E+03 
  48619.0751     0.67812E+03 
  48651.3373     0.67728E+03 
  48683.5994     0.67644E+03 
  48715.8616     0.67559E+03 
  48748.1238     0.67473E+03 
  48780.3859     0.67386E+03 
  48812.6481     0.67298E+03 
  48844.9102     0.67209E+03 
  48877.1724     0.67120E+03 
  48909.4346     0.67029E+03 
  48941.6967     0.66938E+03 
  48973.9589     0.66846E+03 
  49006.2210     0.66753E+03 
  49038.4832     0.66659E+03 
  49070.7454     0.66564E+03 
  49103.0075     0.66468E+03 
  49135.2697     0.66372E+03 
  49167.5318     0.66275E+03 
  49199.7940     0.66176E+03 
  49232.0562     0.66077E+03 
  49264.3183     0.65978E+03 
  49296.5805     0.65877E+03 
  49328.8426     0.65775E+03 
  49361.1048     0.65673E+03 
  49393.3670     0.65570E+03 
  49425.6291     0.65466E+03 
  49457.8913     0.65361E+03 
  49490.1534     0.65256E+03 
  49522.4156     0.65149E+03 
  49554.6778     0.65042E+03 
  49586.9399     0.64934E+03 
  49619.2021     0.64825E+03 
  49651.4642     0.64716E+03 
  49683.7264     0.64605E+03 
  49715.9886     0.64494E+03 
  49748.2507     0.64382E+03 
  49780.5129     0.64270E+03 
  49812.7750     0.64156E+03 
  49845.0372     0.64042E+03 
  49877.2994     0.63927E+03 
  49909.5615     0.63811E+03 
  49941.8237     0.63695E+03 
  49974.0858     0.63577E+03 
  50006.3480     0.63459E+03 
  50038.6102     0.63341E+03 
  50070.8723     0.63221E+03 
  50103.1345     0.63101E+03 
  50135.3966     0.62980E+03 
  50167.6588     0.62858E+03 
  50199.9210     0.62736E+03 
  50232.1831     0.62613E+03 
  50264.4453     0.62489E+03 
  50296.7074     0.62364E+03 
  50328.9696     0.62239E+03 
  50361.2318     0.62113E+03 
  50393.4939     0.61987E+03 
  50425.7561     0.61859E+03 
  50458.0182     0.61731E+03 
  50490.2804     0.61603E+03 
  50522.5426     0.61473E+03 
  50554.8047     0.61343E+03 
  50587.0669     0.61213E+03 
  50619.3290     0.61081E+03 
  50651.5912     0.60949E+03 
  50683.8534     0.60817E+03 
  50716.1155     0.60683E+03 
  50748.3777     0.60549E+03 
  50780.6398     0.60415E+03 
  50812.9020     0.60279E+03 
  50845.1642     0.60144E+03 
  50877.4263     0.60007E+03 
  50909.6885     0.59870E+03 
  50941.9506     0.59732E+03 
  50974.2128     0.59594E+03 
  51006.4750     0.59455E+03 
  51038.7371     0.59315E+03 
  51070.9993     0.59175E+03 
  51103.2614     0.59035E+03 
  51135.5236     0.58893E+03 
  51167.7858     0.58751E+03 
  51200.0479     0.58609E+03 
  51232.3101     0.58466E+03 
  51264.5722     0.58322E+03 
  51296.8344     0.58178E+03 
  51329.0966     0.58033E+03 
  51361.3587     0.57888E+03 
  51393.6209     0.57742E+03 
  51425.8830     0.57596E+03 
  51458.1452     0.57449E+03 
  51490.4074     0.57301E+03 
  51522.6695     0.57153E+03 
  51554.9317     0.57005E+03 
  51587.1938     0.56856E+03 
  51619.4560     0.56706E+03 
  51651.7182     0.56556E+03 
  51683.9803     0.56406E+03 
  51716.2425     0.56255E+03 
  51748.5046     0.56103E+03 
  51780.7668     0.55951E+03 
  51813.0290     0.55798E+03 
  51845.2911     0.55645E+03 
  51877.5533     0.55492E+03 
  51909.8154     0.55338E+03 
  51942.0776     0.55184E+03 
  51974.3398     0.55029E+03 
  52006.6019     0.54873E+03 
  52038.8641     0.54718E+03 
  52071.1262     0.54561E+03 
  52103.3884     0.54405E+03 
  52135.6506     0.54248E+03 
  52167.9127     0.54090E+03 
  52200.1749     0.53932E+03 
  52232.4370     0.53774E+03 
  52264.6992     0.53615E+03 
  52296.9614     0.53456E+03 
  52329.2235     0.53296E+03 
  52361.4857     0.53136E+03 
  52393.7478     0.52976E+03 
  52426.0100     0.52815E+03 
  52458.2722     0.52654E+03 
  52490.5343     0.52493E+03 
  52522.7965     0.52331E+03 
  52555.0586     0.52169E+03 
  52587.3208     0.52006E+03 
  52619.5830     0.51843E+03 
  52651.8451     0.51680E+03 
  52684.1073     0.51516E+03 
  52716.3694     0.51352E+03 
  52748.6316     0.51188E+03 
  52780.8938     0.51024E+03 
  52813.1559     0.50859E+03 
  52845.4181     0.50693E+03 
  52877.6802     0.50528E+03 
  52909.9424     0.50362E+03 
  52942.2046     0.50196E+03 
  52974.4667     0.50029E+03 
  53006.7289     0.49863E+03 
  53038.9910     0.49696E+03 
  53071.2532     0.49528E+03 
  53103.5154     0.49361E+03 
  53135.7775     0.49193E+03 
  53168.0397     0.49025E+03 
  53200.3018     0.48857E+03 
  53232.5640     0.48688E+03 
  53264.8262     0.48519E+03 
  53297.0883     0.48350E+03 
  53329.3505     0.48181E+03 
  53361.6126     0.48011E+03 
  53393.8748     0.47842E+03 
  53426.1370     0.47672E+03 
  53458.3991     0.47501E+03 
  53490.6613     0.47331E+03 
  53522.9234     0.47161E+03 
  53555.1856     0.46990E+03 
  53587.4478     0.46819E+03 
  53619.7099     0.46648E+03 
  53651.9721     0.46477E+03 
  53684.2342     0.46305E+03 
  53716.4964     0.46134E+03 
  53748.7586     0.45962E+03 
  53781.0207     0.45790E+03 
  53813.2829     0.45618E+03 
  53845.5450     0.45446E+03 
  53877.8072     0.45273E+03 
  53910.0694     0.45101E+03 
  53942.3315     0.44928E+03 
  53974.5937     0.44756E+03 
  54006.8558     0.44583E+03 
  54039.1180     0.44410E+03 
  54071.3802     0.44237E+03 
  54103.6423     0.44064E+03 
  54135.9045     0.43891E+03 
  54168.1666     0.43718E+03 
  54200.4288     0.43544E+03 
  54232.6910     0.43371E+03 
  54264.9531     0.43197E+03 
  54297.2153     0.43024E+03 
  54329.4774     0.42850E+03 
  54361.7396     0.42677E+03 
  54394.0018     0.42503E+03 
  54426.2639     0.42330E+03 
  54458.5261     0.42156E+03 
  54490.7882     0.41982E+03 
  54523.0504     0.41809E+03 
  54555.3126     0.41635E+03 
  54587.5747     0.41461E+03 
  54619.8369     0.41288E+03 
  54652.0990     0.41114E+03 
  54684.3612     0.40940E+03 
  54716.6234     0.40767E+03 
  54748.8855     0.40593E+03 
  54781.1477     0.40420E+03 
  54813.4098     0.40246E+03 
  54845.6720     0.40073E+03 
  54877.9342     0.39900E+03 
  54910.1963     0.39726E+03 
  54942.4585     0.39553E+03 
  54974.7206     0.39380E+03 
  55006.9828     0.39207E+03 
  55039.2450     0.39034E+03 
  55071.5071     0.38861E+03 
  55103.7693     0.38689E+03 
  55136.0314     0.38516E+03 
  55168.2936     0.38343E+03 
  55200.5558     0.38171E+03 
  55232.8179     0.37999E+03 
  55265.0801     0.37827E+03 
  55297.3422     0.37655E+03 
  55329.6044     0.37483E+03 
  55361.8666     0.37311E+03 
  55394.1287     0.37140E+03 
  55426.3909     0.36969E+03 
  55458.6530     0.36798E+03 
  55490.9152     0.36627E+03 
  55523.1774     0.36456E+03 
  55555.4395     0.36286E+03 
  55587.7017     0.36115E+03 
  55619.9638     0.35945E+03 
  55652.2260     0.35775E+03 
  55684.4882     0.35606E+03 
  55716.7503     0.35437E+03 
  55749.0125     0.35267E+03 
  55781.2746     0.35099E+03 
  55813.5368     0.34930E+03 
  55845.7990     0.34762E+03 
  55878.0611     0.34594E+03 
  55910.3233     0.34426E+03 
  55942.5854     0.34258E+03 
  55974.8476     0.34091E+03 
  56007.1098     0.33924E+03 
  56039.3719     0.33758E+03 
  56071.6341     0.33592E+03 
  56103.8962     0.33426E+03 
  56136.1584     0.33260E+03 
  56168.4206     0.33095E+03 
  56200.6827     0.32930E+03 
  56232.9449     0.32766E+03 
  56265.2070     0.32602E+03 
  56297.4692     0.32438E+03 
  56329.7314     0.32275E+03 
  56361.9935     0.32112E+03 
  56394.2557     0.31949E+03 
  56426.5178     0.31787E+03 
  56458.7800     0.31625E+03 
  56491.0422     0.31464E+03 
  56523.3043     0.31303E+03 
  56555.5665     0.31143E+03 
  56587.8286     0.30983E+03 
  56620.0908     0.30823E+03 
  56652.3530     0.30664E+03 
  56684.6151     0.30506E+03 
  56716.8773     0.30348E+03 
  56749.1394     0.30190E+03 
  56781.4016     0.30033E+03 
  56813.6638     0.29877E+03 
  56845.9259     0.29721E+03 
  56878.1881     0.29565E+03 
  56910.4502     0.29410E+03 
  56942.7124     0.29256E+03 
  56974.9746     0.29102E+03 
  57007.2367     0.28948E+03 
  57039.4989     0.28796E+03 
  57071.7610     0.28644E+03 
  57104.0232     0.28492E+03 
  57136.2854     0.28341E+03 
  57168.5475     0.28191E+03 
  57200.8097     0.28041E+03 
  57233.0718     0.27892E+03 
  57265.3340     0.27743E+03 
  57297.5962     0.27596E+03 
  57329.8583     0.27448E+03 
  57362.1205     0.27302E+03 
  57394.3826     0.27156E+03 
  57426.6448     0.27011E+03 
  57458.9070     0.26866E+03 
  57491.1691     0.26723E+03 
  57523.4313     0.26580E+03 
  57555.6934     0.26437E+03 
  57587.9556     0.26296E+03 
  57620.2178     0.26155E+03 
  57652.4799     0.26015E+03 
  57684.7421     0.25876E+03 
  57717.0042     0.25737E+03 
  57749.2664     0.25599E+03 
  57781.5286     0.25462E+03 
  57813.7907     0.25326E+03 
  57846.0529     0.25191E+03 
  57878.3150     0.25056E+03 
  57910.5772     0.24923E+03 
  57942.8394     0.24790E+03 
  57975.1015     0.24658E+03 
  58007.3637     0.24527E+03 
  58039.6258     0.24396E+03 
  58071.8880     0.24267E+03 
  58104.1502     0.24139E+03 
  58136.4123     0.24011E+03 
  58168.6745     0.23885E+03 
  58200.9366     0.23759E+03 
  58233.1988     0.23634E+03 
  58265.4610     0.23510E+03 
  58297.7231     0.23388E+03 
  58329.9853     0.23266E+03 
  58362.2474     0.23145E+03 
  58394.5096     0.23025E+03 
  58426.7718     0.22906E+03 
  58459.0339     0.22788E+03 
  58491.2961     0.22672E+03 
  58523.5582     0.22556E+03 
  58555.8204     0.22441E+03 
  58588.0826     0.22328E+03 
  58620.3447     0.22215E+03 
  58652.6069     0.22104E+03 
  58684.8690     0.21994E+03 
  58717.1312     0.21885E+03 
  58749.3934     0.21777E+03 
  58781.6555     0.21670E+03 
  58813.9177     0.21564E+03 
  58846.1798     0.21460E+03 
  58878.4420     0.21356E+03 
  58910.7042     0.21254E+03 
  58942.9663     0.21153E+03 
  58975.2285     0.21053E+03 
  59007.4906     0.20955E+03 
  59039.7528     0.20858E+03 
  59072.0150     0.20762E+03 
  59104.2771     0.20667E+03 
  59136.5393     0.20574E+03 
  59168.8014     0.20482E+03 
  59201.0636     0.20391E+03 
  59233.3258     0.20302E+03 
  59265.5879     0.20214E+03 
  59297.8501     0.20127E+03 
  59330.1122     0.20042E+03 
  59362.3744     0.19958E+03 
  59394.6366     0.19875E+03 
  59426.8987     0.19794E+03 
  59459.1609     0.19714E+03 
  59491.4230     0.19636E+03 
  59523.6852     0.19559E+03 
  59555.9474     0.19484E+03 
  59588.2095     0.19410E+03 
  59620.4717     0.19338E+03 
  59652.7338     0.19267E+03 
  59684.9960     0.19198E+03 
  59717.2582     0.19130E+03 
  59749.5203     0.19064E+03 
  59781.7825     0.18999E+03 
  59814.0446     0.18936E+03 
  59846.3068     0.18875E+03 
  59878.5690     0.18815E+03 
  59910.8311     0.18757E+03 
  59943.0933     0.18701E+03 
  59975.3554     0.18646E+03 
  60007.6176     0.18593E+03 
  60039.8798     0.18542E+03 
  60072.1419     0.18492E+03 
  60104.4041     0.18444E+03 
  60136.6662     0.18398E+03 
  60168.9284     0.18354E+03 
  60201.1906     0.18311E+03 
  60233.4527     0.18270E+03 
  60265.7149     0.18231E+03 
  60297.9770     0.18194E+03 
  60330.2392     0.18159E+03 
  60362.5014     0.18125E+03 
  60394.7635     0.18094E+03 
  60427.0257     0.18064E+03 
  60459.2878     0.18037E+03 
  60491.5500     0.18011E+03 
  60523.8122     0.17987E+03 
  60556.0743     0.17965E+03 
  60588.3365     0.17946E+03 
  60620.5986     0.17928E+03 
  60652.8608     0.17912E+03 
  60685.1230     0.17898E+03 
  60717.3851     0.17887E+03 
  60749.6473     0.17877E+03 
  60781.9094     0.17870E+03 
  60814.1716     0.17864E+03 
  60846.4338     0.17861E+03 
  60878.6959     0.17860E+03 
  60910.9581     0.17861E+03 
  60943.2202     0.17865E+03 
  60975.4824     0.17870E+03 
  61007.7446     0.17878E+03 
  61040.0067     0.17888E+03 
  61072.2689     0.17900E+03 
  61104.5310     0.17915E+03 
  61136.7932     0.17932E+03 
  61169.0554     0.17951E+03 
  61201.3175     0.17973E+03 
  61233.5797     0.17997E+03 
  61265.8418     0.18023E+03 
  61298.1040     0.18052E+03 
  61330.3662     0.18083E+03 
  61362.6283     0.18117E+03 
  61394.8905     0.18153E+03 
  61427.1526     0.18191E+03 
  61459.4148     0.18233E+03 
  61491.6770     0.18276E+03 
  61523.9391     0.18323E+03 
  61556.2013     0.18371E+03 
  61588.4634     0.18423E+03 
  61620.7256     0.18477E+03 
  61652.9878     0.18533E+03 
  61685.2499     0.18593E+03 
  61717.5121     0.18655E+03 
  61749.7742     0.18719E+03 
  61782.0364     0.18787E+03 
  61814.2986     0.18857E+03 
  61846.5607     0.18930E+03 
  61878.8229     0.19006E+03 
  61911.0850     0.19084E+03 
  61943.3472     0.19166E+03 
  61975.6094     0.19250E+03 
  62007.8715     0.19337E+03 
  62040.1337     0.19427E+03 
  62072.3958     0.19520E+03 
  62104.6580     0.19616E+03 
  62136.9202     0.19715E+03 
  62169.1823     0.19816E+03 
  62201.4445     0.19921E+03 
  62233.7066     0.20029E+03 
  62265.9688     0.20140E+03 
  62298.2310     0.20254E+03 
  62330.4931     0.20371E+03 
  62362.7553     0.20492E+03 
  62395.0174     0.20615E+03 
  62427.2796     0.20742E+03 
  62459.5418     0.20871E+03 
  62491.8039     0.21004E+03 
  62524.0661     0.21141E+03 
  62556.3282     0.21280E+03 
  62588.5904     0.21423E+03 
  62620.8526     0.21569E+03 
  62653.1147     0.21719E+03 
  62685.3769     0.21872E+03 
  62717.6390     0.22028E+03 
  62749.9012     0.22188E+03 
  62782.1634     0.22351E+03 
  62814.4255     0.22517E+03 
  62846.6877     0.22687E+03 
  62878.9498     0.22861E+03 
  62911.2120     0.23038E+03 
  62943.4742     0.23219E+03 
  62975.7363     0.23403E+03 
  63007.9985     0.23591E+03 
  63040.2606     0.23783E+03 
  63072.5228     0.23978E+03 
  63104.7850     0.24177E+03 
  63137.0471     0.24379E+03 
  63169.3093     0.24586E+03 
  63201.5714     0.24796E+03 
  63233.8336     0.25010E+03 
  63266.0958     0.25228E+03 
  63298.3579     0.25449E+03 
  63330.6201     0.25675E+03 
  63362.8822     0.25904E+03 
  63395.1444     0.26137E+03 
  63427.4066     0.26374E+03 
  63459.6687     0.26616E+03 
  63491.9309     0.26861E+03 
  63524.1930     0.27110E+03 
  63556.4552     0.27363E+03 
  63588.7174     0.27621E+03 
  63620.9795     0.27882E+03 
  63653.2417     0.28148E+03 
  63685.5038     0.28418E+03 
  63717.7660     0.28692E+03 
  63750.0282     0.28970E+03 
  63782.2903     0.29252E+03 
  63814.5525     0.29539E+03 
  63846.8146     0.29830E+03 
  63879.0768     0.30125E+03 
  63911.3390     0.30425E+03 
  63943.6011     0.30729E+03 
  63975.8633     0.31038E+03 
  64008.1254     0.31350E+03 
  64040.3876     0.31668E+03 
  64072.6498     0.31990E+03 
  64104.9119     0.32316E+03 
  64137.1741     0.32647E+03 
  64169.4362     0.32982E+03 
  64201.6984     0.33322E+03 
  64233.9606     0.33667E+03 
  64266.2227     0.34016E+03 
  64298.4849     0.34370E+03 
  64330.7470     0.34729E+03 
  64363.0092     0.35092E+03 
  64395.2714     0.35461E+03 
  64427.5335     0.35834E+03 
  64459.7957     0.36211E+03 
  64492.0578     0.36594E+03 
  64524.3200     0.36981E+03 
  64556.5822     0.37374E+03 
  64588.8443     0.37771E+03 
  64621.1065     0.38173E+03 
  64653.3686     0.38581E+03 
  64685.6308     0.38993E+03 
  64717.8930     0.39410E+03 
  64750.1551     0.39833E+03 
  64782.4173     0.40260E+03 
  64814.6794     0.40693E+03 
  64846.9416     0.41130E+03 
  64879.2038     0.41573E+03 
  64911.4659     0.42021E+03 
  64943.7281     0.42475E+03 
  64975.9902     0.42933E+03 
  65008.2524     0.43397E+03 
  65040.5146     0.43866E+03 
  65072.7767     0.44341E+03 
  65105.0389     0.44821E+03 
  65137.3010     0.45306E+03 
  65169.5632     0.45797E+03 
  65201.8254     0.46293E+03 
  65234.0875     0.46795E+03 
  65266.3497     0.47302E+03 
  65298.6118     0.47814E+03 
  65330.8740     0.48333E+03 
  65363.1362     0.48857E+03 
  65395.3983     0.49386E+03 
  65427.6605     0.49921E+03 
  65459.9226     0.50462E+03 
  65492.1848     0.51009E+03 
  65524.4470     0.51561E+03 
  65556.7091     0.52119E+03 
  65588.9713     0.52683E+03 
  65621.2334     0.53252E+03 
  65653.4956     0.53828E+03 
  65685.7578     0.54409E+03 
  65718.0199     0.54996E+03 
  65750.2821     0.55589E+03 
  65782.5442     0.56188E+03 
  65814.8064     0.56794E+03 
  65847.0686     0.57405E+03 
  65879.3307     0.58022E+03 
  65911.5929     0.58645E+03 
  65943.8550     0.59274E+03 
  65976.1172     0.59909E+03 
  66008.3794     0.60551E+03 
  66040.6415     0.61199E+03 
  66072.9037     0.61852E+03 
  66105.1658     0.62512E+03 
  66137.4280     0.63179E+03 
  66169.6902     0.63851E+03 
  66201.9523     0.64530E+03 
  66234.2145     0.65215E+03 
  66266.4766     0.65907E+03 
  66298.7388     0.66605E+03 
  66331.0010     0.67309E+03 
  66363.2631     0.68020E+03 
  66395.5253     0.68737E+03 
  66427.7874     0.69461E+03 
  66460.0496     0.70191E+03 
  66492.3118     0.70927E+03 
  66524.5739     0.71671E+03 
  66556.8361     0.72420E+03 
  66589.0982     0.73177E+03 
  66621.3604     0.73940E+03 
  66653.6226     0.74710E+03 
  66685.8847     0.75486E+03 
  66718.1469     0.76269E+03 
  66750.4090     0.77059E+03 
  66782.6712     0.77855E+03 
  66814.9334     0.78659E+03 
  66847.1955     0.79469E+03 
  66879.4577     0.80286E+03 
  66911.7198     0.81110E+03 
  66943.9820     0.81940E+03 
  66976.2442     0.82778E+03 
  67008.5063     0.83622E+03 
  67040.7685     0.84474E+03 
  67073.0306     0.85332E+03 
  67105.2928     0.86197E+03 
  67137.5550     0.87070E+03 
  67169.8171     0.87949E+03 
  67202.0793     0.88835E+03 
  67234.3414     0.89729E+03 
  67266.6036     0.90630E+03 
  67298.8658     0.91537E+03 
  67331.1279     0.92452E+03 
  67363.3901     0.93374E+03 
  67395.6522     0.94303E+03 
  67427.9144     0.95240E+03 
  67460.1766     0.96183E+03 
  67492.4387     0.97134E+03 
  67524.7009     0.98092E+03 
  67556.9630     0.99058E+03 
  67589.2252     0.10003E+04 
  67621.4874     0.10101E+04 
  67653.7495     0.10200E+04 
  67686.0117     0.10299E+04 
  67718.2738     0.10399E+04 
  67750.5360     0.10500E+04 
  67782.7982     0.10602E+04 
  67815.0603     0.10705E+04 
  67847.3225     0.10808E+04 
  67879.5846     0.10912E+04 
  67911.8468     0.11016E+04 
  67944.1090     0.11122E+04 
  67976.3711     0.11228E+04 
  68008.6333     0.11335E+04 
  68040.8954     0.11443E+04 
  68073.1576     0.11551E+04 
  68105.4198     0.11660E+04 
  68137.6819     0.11770E+04 
  68169.9441     0.11881E+04 
  68202.2062     0.11992E+04 
  68234.4684     0.12105E+04 
  68266.7306     0.12218E+04 
  68298.9927     0.12332E+04 
  68331.2549     0.12446E+04 
  68363.5170     0.12562E+04 
  68395.7792     0.12678E+04 
  68428.0414     0.12795E+04 
  68460.3035     0.12912E+04 
  68492.5657     0.13031E+04 
  68524.8278     0.13150E+04 
  68557.0900     0.13270E+04 
  68589.3522     0.13391E+04 
  68621.6143     0.13512E+04 
  68653.8765     0.13635E+04 
  68686.1386     0.13758E+04 
  68718.4008     0.13882E+04 
  68750.6630     0.14006E+04 
  68782.9251     0.14132E+04 
  68815.1873     0.14258E+04 
  68847.4494     0.14385E+04 
  68879.7116     0.14513E+04 
  68911.9738     0.14642E+04 
  68944.2359     0.14771E+04 
  68976.4981     0.14901E+04 
  69008.7602     0.15032E+04 
  69041.0224     0.15164E+04 
  69073.2846     0.15297E+04 
  69105.5467     0.15430E+04 
  69137.8089     0.15565E+04 
  69170.0710     0.15700E+04 
  69202.3332     0.15835E+04 
  69234.5954     0.15972E+04 
  69266.8575     0.16109E+04 
  69299.1197     0.16248E+04 
  69331.3818     0.16387E+04 
  69363.6440     0.16527E+04 
  69395.9062     0.16667E+04 
  69428.1683     0.16809E+04 
  69460.4305     0.16951E+04 
  69492.6926     0.17094E+04 
  69524.9548     0.17238E+04 
  69557.2170     0.17382E+04 
  69589.4791     0.17528E+04 
  69621.7413     0.17674E+04 
  69654.0034     0.17821E+04 
  69686.2656     0.17969E+04 
  69718.5278     0.18118E+04 
  69750.7899     0.18267E+04 
  69783.0521     0.18417E+04 
  69815.3142     0.18568E+04 
  69847.5764     0.18720E+04 
  69879.8386     0.18873E+04 
  69912.1007     0.19027E+04 
  69944.3629     0.19181E+04 
  69976.6250     0.19336E+04 
  70008.8872     0.19492E+04 
  70041.1494     0.19649E+04 
  70073.4115     0.19806E+04 
  70105.6737     0.19964E+04 
  70137.9358     0.20124E+04 
  70170.1980     0.20283E+04 
  70202.4602     0.20444E+04 
  70234.7223     0.20606E+04 
  70266.9845     0.20768E+04 
  70299.2466     0.20931E+04 
  70331.5088     0.21095E+04 
  70363.7710     0.21260E+04 
  70396.0331     0.21425E+04 
  70428.2953     0.21592E+04 
  70460.5574     0.21759E+04 
  70492.8196     0.21927E+04 
  70525.0818     0.22095E+04 
  70557.3439     0.22265E+04 
  70589.6061     0.22435E+04 
  70621.8682     0.22606E+04 
  70654.1304     0.22778E+04 
  70686.3926     0.22951E+04 
  70718.6547     0.23124E+04 
  70750.9169     0.23298E+04 
  70783.1790     0.23473E+04 
  70815.4412     0.23649E+04 
  70847.7034     0.23826E+04 
  70879.9655     0.24003E+04 
  70912.2277     0.24181E+04 
  70944.4898     0.24360E+04 
  70976.7520     0.24540E+04 
  71009.0142     0.24721E+04 
  71041.2763     0.24902E+04 
  71073.5385     0.25084E+04 
  71105.8006     0.25267E+04 
  71138.0628     0.25450E+04 
  71170.3250     0.25634E+04 
  71202.5871     0.25820E+04 
  71234.8493     0.26005E+04 
  71267.1114     0.26192E+04 
  71299.3736     0.26379E+04 
  71331.6358     0.26568E+04 
  71363.8979     0.26756E+04 
  71396.1601     0.26946E+04 
  71428.4222     0.27137E+04 
  71460.6844     0.27328E+04 
  71492.9466     0.27520E+04 
  71525.2087     0.27712E+04 
  71557.4709     0.27906E+04 
  71589.7330     0.28100E+04 
  71621.9952     0.28295E+04 
  71654.2574     0.28490E+04 
  71686.5195     0.28686E+04 
  71718.7817     0.28884E+04 
  71751.0438     0.29081E+04 
  71783.3060     0.29280E+04 
  71815.5682     0.29479E+04 
  71847.8303     0.29679E+04 
  71880.0925     0.29880E+04 
  71912.3546     0.30081E+04 
  71944.6168     0.30283E+04 
  71976.8790     0.30486E+04 
  72009.1411     0.30689E+04 
  72041.4033     0.30894E+04 
  72073.6654     0.31099E+04 
  72105.9276     0.31304E+04 
  72138.1898     0.31510E+04 
  72170.4519     0.31717E+04 
  72202.7141     0.31925E+04 
  72234.9762     0.32133E+04 
  72267.2384     0.32343E+04 
  72299.5006     0.32552E+04 
  72331.7627     0.32763E+04 
  72364.0249     0.32974E+04 
  72396.2870     0.33185E+04 
  72428.5492     0.33398E+04 
  72460.8114     0.33611E+04 
  72493.0735     0.33824E+04 
  72525.3357     0.34039E+04 
  72557.5978     0.34254E+04 
  72589.8600     0.34469E+04 
