  32262.1600     0.23120E-01 
  32294.4222     0.23299E-01 
  32326.6843     0.23478E-01 
  32358.9465     0.23658E-01 
  32391.2086     0.23839E-01 
  32423.4708     0.24021E-01 
  32455.7330     0.24203E-01 
  32487.9951     0.24387E-01 
  32520.2573     0.24571E-01 
  32552.5194     0.24756E-01 
  32584.7816     0.24942E-01 
  32617.0438     0.25129E-01 
  32649.3059     0.25317E-01 
  32681.5681     0.25506E-01 
  32713.8302     0.25695E-01 
  32746.0924     0.25885E-01 
  32778.3546     0.26076E-01 
  32810.6167     0.26268E-01 
  32842.8789     0.26461E-01 
  32875.1410     0.26655E-01 
  32907.4032     0.26849E-01 
  32939.6654     0.27044E-01 
  32971.9275     0.27240E-01 
  33004.1897     0.27437E-01 
  33036.4518     0.27635E-01 
  33068.7140     0.27833E-01 
  33100.9762     0.28033E-01 
  33133.2383     0.28233E-01 
  33165.5005     0.28434E-01 
  33197.7626     0.28636E-01 
  33230.0248     0.28838E-01 
  33262.2870     0.29042E-01 
  33294.5491     0.29246E-01 
  33326.8113     0.29451E-01 
  33359.0734     0.29657E-01 
  33391.3356     0.29864E-01 
  33423.5978     0.30071E-01 
  33455.8599     0.30279E-01 
  33488.1221     0.30488E-01 
  33520.3842     0.30698E-01 
  33552.6464     0.30909E-01 
  33584.9086     0.31120E-01 
  33617.1707     0.31332E-01 
  33649.4329     0.31545E-01 
  33681.6950     0.31759E-01 
  33713.9572     0.31973E-01 
  33746.2194     0.32189E-01 
  33778.4815     0.32405E-01 
  33810.7437     0.32621E-01 
  33843.0058     0.32839E-01 
  33875.2680     0.33057E-01 
  33907.5302     0.33276E-01 
  33939.7923     0.33496E-01 
  33972.0545     0.33717E-01 
  34004.3166     0.33938E-01 
  34036.5788     0.34160E-01 
  34068.8410     0.34383E-01 
  34101.1031     0.34606E-01 
  34133.3653     0.34830E-01 
  34165.6274     0.35055E-01 
  34197.8896     0.35281E-01 
  34230.1518     0.35508E-01 
  34262.4139     0.35735E-01 
  34294.6761     0.35962E-01 
  34326.9382     0.36191E-01 
  34359.2004     0.36420E-01 
  34391.4626     0.36650E-01 
  34423.7247     0.36881E-01 
  34455.9869     0.37112E-01 
  34488.2490     0.37344E-01 
  34520.5112     0.37577E-01 
  34552.7734     0.37810E-01 
  34585.0355     0.38044E-01 
  34617.2977     0.38279E-01 
  34649.5598     0.38514E-01 
  34681.8220     0.38750E-01 
  34714.0842     0.38987E-01 
  34746.3463     0.39224E-01 
  34778.6085     0.39462E-01 
  34810.8706     0.39701E-01 
  34843.1328     0.39940E-01 
  34875.3950     0.40180E-01 
  34907.6571     0.40421E-01 
  34939.9193     0.40662E-01 
  34972.1814     0.40903E-01 
  35004.4436     0.41146E-01 
  35036.7058     0.41389E-01 
  35068.9679     0.41632E-01 
  35101.2301     0.41876E-01 
  35133.4922     0.42121E-01 
  35165.7544     0.42366E-01 
  35198.0166     0.42612E-01 
  35230.2787     0.42859E-01 
  35262.5409     0.43106E-01 
  35294.8030     0.43353E-01 
  35327.0652     0.43601E-01 
  35359.3274     0.43850E-01 
  35391.5895     0.44099E-01 
  35423.8517     0.44349E-01 
  35456.1138     0.44599E-01 
  35488.3760     0.44850E-01 
  35520.6382     0.45102E-01 
  35552.9003     0.45354E-01 
  35585.1625     0.45606E-01 
  35617.4246     0.45859E-01 
  35649.6868     0.46112E-01 
  35681.9490     0.46366E-01 
  35714.2111     0.46620E-01 
  35746.4733     0.46875E-01 
  35778.7354     0.47130E-01 
  35810.9976     0.47386E-01 
  35843.2598     0.47642E-01 
  35875.5219     0.47899E-01 
  35907.7841     0.48156E-01 
  35940.0462     0.48414E-01 
  35972.3084     0.48672E-01 
  36004.5706     0.48930E-01 
  36036.8327     0.49189E-01 
  36069.0949     0.49448E-01 
  36101.3570     0.49708E-01 
  36133.6192     0.49968E-01 
  36165.8814     0.50228E-01 
  36198.1435     0.50489E-01 
  36230.4057     0.50750E-01 
  36262.6678     0.51012E-01 
  36294.9300     0.51274E-01 
  36327.1922     0.51536E-01 
  36359.4543     0.51799E-01 
  36391.7165     0.52062E-01 
  36423.9786     0.52325E-01 
  36456.2408     0.52588E-01 
  36488.5030     0.52852E-01 
  36520.7651     0.53117E-01 
  36553.0273     0.53381E-01 
  36585.2894     0.53646E-01 
  36617.5516     0.53911E-01 
  36649.8138     0.54177E-01 
  36682.0759     0.54442E-01 
  36714.3381     0.54708E-01 
  36746.6002     0.54974E-01 
  36778.8624     0.55241E-01 
  36811.1246     0.55508E-01 
  36843.3867     0.55774E-01 
  36875.6489     0.56042E-01 
  36907.9110     0.56309E-01 
  36940.1732     0.56577E-01 
  36972.4354     0.56844E-01 
  37004.6975     0.57112E-01 
  37036.9597     0.57380E-01 
  37069.2218     0.57649E-01 
  37101.4840     0.57917E-01 
  37133.7462     0.58186E-01 
  37166.0083     0.58455E-01 
  37198.2705     0.58724E-01 
  37230.5326     0.58993E-01 
  37262.7948     0.59262E-01 
  37295.0570     0.59532E-01 
  37327.3191     0.59801E-01 
  37359.5813     0.60071E-01 
  37391.8434     0.60340E-01 
  37424.1056     0.60610E-01 
  37456.3678     0.60880E-01 
  37488.6299     0.61150E-01 
  37520.8921     0.61420E-01 
  37553.1542     0.61690E-01 
  37585.4164     0.61960E-01 
  37617.6786     0.62230E-01 
  37649.9407     0.62500E-01 
  37682.2029     0.62770E-01 
  37714.4650     0.63040E-01 
  37746.7272     0.63310E-01 
  37778.9894     0.63581E-01 
  37811.2515     0.63851E-01 
  37843.5137     0.64121E-01 
  37875.7758     0.64391E-01 
  37908.0380     0.64661E-01 
  37940.3002     0.64931E-01 
  37972.5623     0.65201E-01 
  38004.8245     0.65470E-01 
  38037.0866     0.65740E-01 
  38069.3488     0.66010E-01 
  38101.6110     0.66279E-01 
  38133.8731     0.66549E-01 
  38166.1353     0.66818E-01 
  38198.3974     0.67087E-01 
  38230.6596     0.67357E-01 
  38262.9218     0.67625E-01 
  38295.1839     0.67894E-01 
  38327.4461     0.68163E-01 
  38359.7082     0.68431E-01 
  38391.9704     0.68700E-01 
  38424.2326     0.68968E-01 
  38456.4947     0.69236E-01 
  38488.7569     0.69503E-01 
  38521.0190     0.69771E-01 
  38553.2812     0.70038E-01 
  38585.5434     0.70305E-01 
  38617.8055     0.70572E-01 
  38650.0677     0.70838E-01 
  38682.3298     0.71104E-01 
  38714.5920     0.71370E-01 
  38746.8542     0.71636E-01 
  38779.1163     0.71901E-01 
  38811.3785     0.72166E-01 
  38843.6406     0.72431E-01 
  38875.9028     0.72696E-01 
  38908.1650     0.72960E-01 
  38940.4271     0.73223E-01 
  38972.6893     0.73487E-01 
  39004.9514     0.73750E-01 
  39037.2136     0.74013E-01 
  39069.4758     0.74275E-01 
  39101.7379     0.74537E-01 
  39134.0001     0.74798E-01 
  39166.2622     0.75060E-01 
  39198.5244     0.75320E-01 
  39230.7866     0.75581E-01 
  39263.0487     0.75841E-01 
  39295.3109     0.76100E-01 
  39327.5730     0.76359E-01 
  39359.8352     0.76617E-01 
  39392.0974     0.76875E-01 
  39424.3595     0.77133E-01 
  39456.6217     0.77390E-01 
  39488.8838     0.77647E-01 
  39521.1460     0.77903E-01 
  39553.4082     0.78158E-01 
  39585.6703     0.78413E-01 
  39617.9325     0.78668E-01 
  39650.1946     0.78922E-01 
  39682.4568     0.79175E-01 
  39714.7190     0.79428E-01 
  39746.9811     0.79680E-01 
  39779.2433     0.79932E-01 
  39811.5054     0.80183E-01 
  39843.7676     0.80433E-01 
  39876.0298     0.80683E-01 
  39908.2919     0.80932E-01 
  39940.5541     0.81181E-01 
  39972.8162     0.81429E-01 
  40005.0784     0.81676E-01 
  40037.3406     0.81923E-01 
  40069.6027     0.82169E-01 
  40101.8649     0.82414E-01 
  40134.1270     0.82659E-01 
  40166.3892     0.82903E-01 
  40198.6514     0.83146E-01 
  40230.9135     0.83388E-01 
  40263.1757     0.83630E-01 
  40295.4378     0.83871E-01 
  40327.7000     0.84111E-01 
  40359.9622     0.84351E-01 
  40392.2243     0.84590E-01 
  40424.4865     0.84828E-01 
  40456.7486     0.85065E-01 
  40489.0108     0.85301E-01 
  40521.2730     0.85537E-01 
  40553.5351     0.85772E-01 
  40585.7973     0.86006E-01 
  40618.0594     0.86239E-01 
  40650.3216     0.86471E-01 
  40682.5838     0.86703E-01 
  40714.8459     0.86934E-01 
  40747.1081     0.87163E-01 
  40779.3702     0.87392E-01 
  40811.6324     0.87620E-01 
  40843.8946     0.87848E-01 
  40876.1567     0.88074E-01 
  40908.4189     0.88299E-01 
  40940.6810     0.88524E-01 
  40972.9432     0.88747E-01 
  41005.2054     0.88970E-01 
  41037.4675     0.89192E-01 
  41069.7297     0.89412E-01 
  41101.9918     0.89632E-01 
  41134.2540     0.89851E-01 
  41166.5162     0.90069E-01 
  41198.7783     0.90286E-01 
  41231.0405     0.90501E-01 
  41263.3026     0.90716E-01 
  41295.5648     0.90930E-01 
  41327.8270     0.91143E-01 
  41360.0891     0.91355E-01 
  41392.3513     0.91566E-01 
  41424.6134     0.91775E-01 
  41456.8756     0.91984E-01 
  41489.1378     0.92192E-01 
  41521.3999     0.92398E-01 
  41553.6621     0.92604E-01 
  41585.9242     0.92808E-01 
  41618.1864     0.93011E-01 
  41650.4486     0.93214E-01 
  41682.7107     0.93415E-01 
  41714.9729     0.93615E-01 
  41747.2350     0.93814E-01 
  41779.4972     0.94011E-01 
  41811.7594     0.94208E-01 
  41844.0215     0.94404E-01 
  41876.2837     0.94598E-01 
  41908.5458     0.94791E-01 
  41940.8080     0.94983E-01 
  41973.0702     0.95174E-01 
  42005.3323     0.95364E-01 
  42037.5945     0.95552E-01 
  42069.8566     0.95739E-01 
  42102.1188     0.95925E-01 
  42134.3810     0.96110E-01 
  42166.6431     0.96294E-01 
  42198.9053     0.96476E-01 
  42231.1674     0.96657E-01 
  42263.4296     0.96837E-01 
  42295.6918     0.97016E-01 
  42327.9539     0.97193E-01 
  42360.2161     0.97369E-01 
  42392.4782     0.97544E-01 
  42424.7404     0.97718E-01 
  42457.0026     0.97890E-01 
  42489.2647     0.98061E-01 
  42521.5269     0.98231E-01 
  42553.7890     0.98400E-01 
  42586.0512     0.98567E-01 
  42618.3134     0.98732E-01 
  42650.5755     0.98897E-01 
  42682.8377     0.99060E-01 
  42715.0998     0.99222E-01 
  42747.3620     0.99382E-01 
  42779.6242     0.99542E-01 
  42811.8863     0.99699E-01 
  42844.1485     0.99856E-01 
  42876.4106     0.10001E+00 
  42908.6728     0.10016E+00 
  42940.9350     0.10032E+00 
  42973.1971     0.10047E+00 
  43005.4593     0.10062E+00 
  43037.7214     0.10077E+00 
  43069.9836     0.10091E+00 
  43102.2458     0.10106E+00 
  43134.5079     0.10120E+00 
  43166.7701     0.10134E+00 
  43199.0322     0.10148E+00 
  43231.2944     0.10162E+00 
  43263.5566     0.10176E+00 
  43295.8187     0.10190E+00 
  43328.0809     0.10203E+00 
  43360.3430     0.10217E+00 
  43392.6052     0.10230E+00 
  43424.8674     0.10243E+00 
  43457.1295     0.10256E+00 
  43489.3917     0.10269E+00 
  43521.6538     0.10282E+00 
  43553.9160     0.10294E+00 
  43586.1782     0.10306E+00 
  43618.4403     0.10319E+00 
  43650.7025     0.10331E+00 
  43682.9646     0.10343E+00 
  43715.2268     0.10354E+00 
  43747.4890     0.10366E+00 
  43779.7511     0.10377E+00 
  43812.0133     0.10389E+00 
  43844.2754     0.10400E+00 
  43876.5376     0.10411E+00 
  43908.7998     0.10422E+00 
  43941.0619     0.10432E+00 
  43973.3241     0.10443E+00 
  44005.5862     0.10453E+00 
  44037.8484     0.10463E+00 
  44070.1106     0.10474E+00 
  44102.3727     0.10483E+00 
  44134.6349     0.10493E+00 
  44166.8970     0.10503E+00 
  44199.1592     0.10512E+00 
  44231.4214     0.10522E+00 
  44263.6835     0.10531E+00 
  44295.9457     0.10540E+00 
  44328.2078     0.10548E+00 
  44360.4700     0.10557E+00 
  44392.7322     0.10566E+00 
  44424.9943     0.10574E+00 
  44457.2565     0.10582E+00 
  44489.5186     0.10590E+00 
  44521.7808     0.10598E+00 
  44554.0430     0.10606E+00 
  44586.3051     0.10613E+00 
  44618.5673     0.10621E+00 
  44650.8294     0.10628E+00 
  44683.0916     0.10635E+00 
  44715.3538     0.10642E+00 
  44747.6159     0.10648E+00 
  44779.8781     0.10655E+00 
  44812.1402     0.10661E+00 
  44844.4024     0.10668E+00 
  44876.6646     0.10674E+00 
  44908.9267     0.10680E+00 
  44941.1889     0.10685E+00 
  44973.4510     0.10691E+00 
  45005.7132     0.10696E+00 
  45037.9754     0.10702E+00 
  45070.2375     0.10707E+00 
  45102.4997     0.10712E+00 
  45134.7618     0.10716E+00 
  45167.0240     0.10721E+00 
  45199.2862     0.10725E+00 
  45231.5483     0.10730E+00 
  45263.8105     0.10734E+00 
  45296.0726     0.10738E+00 
  45328.3348     0.10742E+00 
  45360.5970     0.10745E+00 
  45392.8591     0.10749E+00 
  45425.1213     0.10752E+00 
  45457.3834     0.10755E+00 
  45489.6456     0.10758E+00 
  45521.9078     0.10761E+00 
  45554.1699     0.10763E+00 
  45586.4321     0.10766E+00 
  45618.6942     0.10768E+00 
  45650.9564     0.10770E+00 
  45683.2186     0.10772E+00 
  45715.4807     0.10774E+00 
  45747.7429     0.10776E+00 
  45780.0050     0.10777E+00 
  45812.2672     0.10778E+00 
  45844.5294     0.10779E+00 
  45876.7915     0.10780E+00 
  45909.0537     0.10781E+00 
  45941.3158     0.10782E+00 
  45973.5780     0.10782E+00 
  46005.8402     0.10782E+00 
  46038.1023     0.10783E+00 
  46070.3645     0.10783E+00 
  46102.6266     0.10782E+00 
  46134.8888     0.10782E+00 
  46167.1510     0.10781E+00 
  46199.4131     0.10781E+00 
  46231.6753     0.10780E+00 
  46263.9374     0.10779E+00 
  46296.1996     0.10778E+00 
  46328.4618     0.10776E+00 
  46360.7239     0.10775E+00 
  46392.9861     0.10773E+00 
  46425.2482     0.10771E+00 
  46457.5104     0.10769E+00 
  46489.7726     0.10767E+00 
  46522.0347     0.10764E+00 
  46554.2969     0.10762E+00 
  46586.5590     0.10759E+00 
  46618.8212     0.10756E+00 
  46651.0834     0.10753E+00 
  46683.3455     0.10750E+00 
  46715.6077     0.10747E+00 
  46747.8698     0.10743E+00 
  46780.1320     0.10740E+00 
  46812.3942     0.10736E+00 
  46844.6563     0.10732E+00 
  46876.9185     0.10728E+00 
  46909.1806     0.10723E+00 
  46941.4428     0.10719E+00 
  46973.7050     0.10714E+00 
  47005.9671     0.10709E+00 
  47038.2293     0.10704E+00 
  47070.4914     0.10699E+00 
  47102.7536     0.10694E+00 
  47135.0158     0.10688E+00 
  47167.2779     0.10683E+00 
  47199.5401     0.10677E+00 
  47231.8022     0.10671E+00 
  47264.0644     0.10665E+00 
  47296.3266     0.10659E+00 
  47328.5887     0.10652E+00 
  47360.8509     0.10646E+00 
  47393.1130     0.10639E+00 
  47425.3752     0.10632E+00 
  47457.6374     0.10625E+00 
  47489.8995     0.10618E+00 
  47522.1617     0.10610E+00 
  47554.4238     0.10603E+00 
  47586.6860     0.10595E+00 
  47618.9482     0.10587E+00 
  47651.2103     0.10579E+00 
  47683.4725     0.10571E+00 
  47715.7346     0.10563E+00 
  47747.9968     0.10554E+00 
  47780.2590     0.10545E+00 
  47812.5211     0.10537E+00 
  47844.7833     0.10528E+00 
  47877.0454     0.10519E+00 
  47909.3076     0.10509E+00 
  47941.5698     0.10500E+00 
  47973.8319     0.10490E+00 
  48006.0941     0.10481E+00 
  48038.3562     0.10471E+00 
  48070.6184     0.10461E+00 
  48102.8806     0.10451E+00 
  48135.1427     0.10440E+00 
  48167.4049     0.10430E+00 
  48199.6670     0.10419E+00 
  48231.9292     0.10408E+00 
  48264.1914     0.10397E+00 
  48296.4535     0.10386E+00 
  48328.7157     0.10375E+00 
  48360.9778     0.10364E+00 
  48393.2400     0.10352E+00 
  48425.5022     0.10341E+00 
  48457.7643     0.10329E+00 
  48490.0265     0.10317E+00 
  48522.2886     0.10305E+00 
  48554.5508     0.10293E+00 
  48586.8130     0.10280E+00 
  48619.0751     0.10268E+00 
  48651.3373     0.10255E+00 
  48683.5994     0.10242E+00 
  48715.8616     0.10229E+00 
  48748.1238     0.10216E+00 
  48780.3859     0.10203E+00 
  48812.6481     0.10189E+00 
  48844.9102     0.10176E+00 
  48877.1724     0.10162E+00 
  48909.4346     0.10149E+00 
  48941.6967     0.10135E+00 
  48973.9589     0.10120E+00 
  49006.2210     0.10106E+00 
  49038.4832     0.10092E+00 
  49070.7454     0.10077E+00 
  49103.0075     0.10063E+00 
  49135.2697     0.10048E+00 
  49167.5318     0.10033E+00 
  49199.7940     0.10018E+00 
  49232.0562     0.10003E+00 
  49264.3183     0.99877E-01 
  49296.5805     0.99722E-01 
  49328.8426     0.99567E-01 
  49361.1048     0.99410E-01 
  49393.3670     0.99252E-01 
  49425.6291     0.99092E-01 
  49457.8913     0.98932E-01 
  49490.1534     0.98770E-01 
  49522.4156     0.98606E-01 
  49554.6778     0.98442E-01 
  49586.9399     0.98276E-01 
  49619.2021     0.98109E-01 
  49651.4642     0.97940E-01 
  49683.7264     0.97771E-01 
  49715.9886     0.97600E-01 
  49748.2507     0.97428E-01 
  49780.5129     0.97254E-01 
  49812.7750     0.97080E-01 
  49845.0372     0.96904E-01 
  49877.2994     0.96727E-01 
  49909.5615     0.96549E-01 
  49941.8237     0.96369E-01 
  49974.0858     0.96189E-01 
  50006.3480     0.96007E-01 
  50038.6102     0.95824E-01 
  50070.8723     0.95640E-01 
  50103.1345     0.95455E-01 
  50135.3966     0.95268E-01 
  50167.6588     0.95081E-01 
  50199.9210     0.94892E-01 
  50232.1831     0.94702E-01 
  50264.4453     0.94511E-01 
  50296.7074     0.94319E-01 
  50328.9696     0.94126E-01 
  50361.2318     0.93932E-01 
  50393.4939     0.93737E-01 
  50425.7561     0.93540E-01 
  50458.0182     0.93343E-01 
  50490.2804     0.93144E-01 
  50522.5426     0.92944E-01 
  50554.8047     0.92744E-01 
  50587.0669     0.92542E-01 
  50619.3290     0.92339E-01 
  50651.5912     0.92135E-01 
  50683.8534     0.91930E-01 
  50716.1155     0.91724E-01 
  50748.3777     0.91517E-01 
  50780.6398     0.91310E-01 
  50812.9020     0.91101E-01 
  50845.1642     0.90891E-01 
  50877.4263     0.90680E-01 
  50909.6885     0.90468E-01 
  50941.9506     0.90255E-01 
  50974.2128     0.90041E-01 
  51006.4750     0.89826E-01 
  51038.7371     0.89611E-01 
  51070.9993     0.89394E-01 
  51103.2614     0.89177E-01 
  51135.5236     0.88958E-01 
  51167.7858     0.88739E-01 
  51200.0479     0.88518E-01 
  51232.3101     0.88297E-01 
  51264.5722     0.88075E-01 
  51296.8344     0.87852E-01 
  51329.0966     0.87628E-01 
  51361.3587     0.87403E-01 
  51393.6209     0.87178E-01 
  51425.8830     0.86951E-01 
  51458.1452     0.86724E-01 
  51490.4074     0.86496E-01 
  51522.6695     0.86267E-01 
  51554.9317     0.86037E-01 
  51587.1938     0.85807E-01 
  51619.4560     0.85575E-01 
  51651.7182     0.85343E-01 
  51683.9803     0.85110E-01 
  51716.2425     0.84877E-01 
  51748.5046     0.84642E-01 
  51780.7668     0.84407E-01 
  51813.0290     0.84171E-01 
  51845.2911     0.83934E-01 
  51877.5533     0.83697E-01 
  51909.8154     0.83458E-01 
  51942.0776     0.83219E-01 
  51974.3398     0.82980E-01 
  52006.6019     0.82739E-01 
  52038.8641     0.82498E-01 
  52071.1262     0.82257E-01 
  52103.3884     0.82014E-01 
  52135.6506     0.81771E-01 
  52167.9127     0.81528E-01 
  52200.1749     0.81283E-01 
  52232.4370     0.81038E-01 
  52264.6992     0.80792E-01 
  52296.9614     0.80546E-01 
  52329.2235     0.80299E-01 
  52361.4857     0.80052E-01 
  52393.7478     0.79804E-01 
  52426.0100     0.79555E-01 
  52458.2722     0.79306E-01 
  52490.5343     0.79056E-01 
  52522.7965     0.78805E-01 
  52555.0586     0.78555E-01 
  52587.3208     0.78303E-01 
  52619.5830     0.78051E-01 
  52651.8451     0.77798E-01 
  52684.1073     0.77545E-01 
  52716.3694     0.77292E-01 
  52748.6316     0.77038E-01 
  52780.8938     0.76783E-01 
  52813.1559     0.76528E-01 
  52845.4181     0.76272E-01 
  52877.6802     0.76016E-01 
  52909.9424     0.75760E-01 
  52942.2046     0.75503E-01 
  52974.4667     0.75245E-01 
  53006.7289     0.74987E-01 
  53038.9910     0.74729E-01 
  53071.2532     0.74471E-01 
  53103.5154     0.74211E-01 
  53135.7775     0.73952E-01 
  53168.0397     0.73692E-01 
  53200.3018     0.73432E-01 
  53232.5640     0.73171E-01 
  53264.8262     0.72910E-01 
  53297.0883     0.72649E-01 
  53329.3505     0.72387E-01 
  53361.6126     0.72125E-01 
  53393.8748     0.71863E-01 
  53426.1370     0.71600E-01 
  53458.3991     0.71337E-01 
  53490.6613     0.71074E-01 
  53522.9234     0.70811E-01 
  53555.1856     0.70547E-01 
  53587.4478     0.70283E-01 
  53619.7099     0.70018E-01 
  53651.9721     0.69754E-01 
  53684.2342     0.69489E-01 
  53716.4964     0.69224E-01 
  53748.7586     0.68959E-01 
  53781.0207     0.68693E-01 
  53813.2829     0.68428E-01 
  53845.5450     0.68162E-01 
  53877.8072     0.67896E-01 
  53910.0694     0.67629E-01 
  53942.3315     0.67363E-01 
  53974.5937     0.67096E-01 
  54006.8558     0.66830E-01 
  54039.1180     0.66563E-01 
  54071.3802     0.66296E-01 
  54103.6423     0.66029E-01 
  54135.9045     0.65761E-01 
  54168.1666     0.65494E-01 
  54200.4288     0.65227E-01 
  54232.6910     0.64959E-01 
  54264.9531     0.64691E-01 
  54297.2153     0.64424E-01 
  54329.4774     0.64156E-01 
  54361.7396     0.63888E-01 
  54394.0018     0.63621E-01 
  54426.2639     0.63353E-01 
  54458.5261     0.63085E-01 
  54490.7882     0.62817E-01 
  54523.0504     0.62549E-01 
  54555.3126     0.62282E-01 
  54587.5747     0.62014E-01 
  54619.8369     0.61746E-01 
  54652.0990     0.61478E-01 
  54684.3612     0.61211E-01 
  54716.6234     0.60943E-01 
  54748.8855     0.60676E-01 
  54781.1477     0.60408E-01 
  54813.4098     0.60141E-01 
  54845.6720     0.59874E-01 
  54877.9342     0.59607E-01 
  54910.1963     0.59340E-01 
  54942.4585     0.59073E-01 
  54974.7206     0.58806E-01 
  55006.9828     0.58540E-01 
  55039.2450     0.58273E-01 
  55071.5071     0.58007E-01 
  55103.7693     0.57741E-01 
  55136.0314     0.57475E-01 
  55168.2936     0.57210E-01 
  55200.5558     0.56944E-01 
  55232.8179     0.56679E-01 
  55265.0801     0.56414E-01 
  55297.3422     0.56149E-01 
  55329.6044     0.55885E-01 
  55361.8666     0.55621E-01 
  55394.1287     0.55357E-01 
  55426.3909     0.55093E-01 
  55458.6530     0.54830E-01 
  55490.9152     0.54567E-01 
  55523.1774     0.54304E-01 
  55555.4395     0.54042E-01 
  55587.7017     0.53780E-01 
  55619.9638     0.53518E-01 
  55652.2260     0.53257E-01 
  55684.4882     0.52996E-01 
  55716.7503     0.52735E-01 
  55749.0125     0.52475E-01 
  55781.2746     0.52216E-01 
  55813.5368     0.51956E-01 
  55845.7990     0.51697E-01 
  55878.0611     0.51439E-01 
  55910.3233     0.51181E-01 
  55942.5854     0.50923E-01 
  55974.8476     0.50666E-01 
  56007.1098     0.50410E-01 
  56039.3719     0.50153E-01 
  56071.6341     0.49898E-01 
  56103.8962     0.49643E-01 
  56136.1584     0.49388E-01 
  56168.4206     0.49134E-01 
  56200.6827     0.48881E-01 
  56232.9449     0.48628E-01 
  56265.2070     0.48375E-01 
  56297.4692     0.48124E-01 
  56329.7314     0.47872E-01 
  56361.9935     0.47622E-01 
  56394.2557     0.47372E-01 
  56426.5178     0.47123E-01 
  56458.7800     0.46874E-01 
  56491.0422     0.46626E-01 
  56523.3043     0.46379E-01 
  56555.5665     0.46132E-01 
  56587.8286     0.45886E-01 
  56620.0908     0.45641E-01 
  56652.3530     0.45396E-01 
  56684.6151     0.45152E-01 
  56716.8773     0.44909E-01 
  56749.1394     0.44667E-01 
  56781.4016     0.44425E-01 
  56813.6638     0.44184E-01 
  56845.9259     0.43944E-01 
  56878.1881     0.43705E-01 
  56910.4502     0.43466E-01 
  56942.7124     0.43229E-01 
  56974.9746     0.42992E-01 
  57007.2367     0.42756E-01 
  57039.4989     0.42521E-01 
  57071.7610     0.42287E-01 
  57104.0232     0.42054E-01 
  57136.2854     0.41821E-01 
  57168.5475     0.41590E-01 
  57200.8097     0.41359E-01 
  57233.0718     0.41129E-01 
  57265.3340     0.40901E-01 
  57297.5962     0.40673E-01 
  57329.8583     0.40446E-01 
  57362.1205     0.40220E-01 
  57394.3826     0.39996E-01 
  57426.6448     0.39772E-01 
  57458.9070     0.39549E-01 
  57491.1691     0.39328E-01 
  57523.4313     0.39107E-01 
  57555.6934     0.38887E-01 
  57587.9556     0.38669E-01 
  57620.2178     0.38452E-01 
  57652.4799     0.38235E-01 
  57684.7421     0.38020E-01 
  57717.0042     0.37806E-01 
  57749.2664     0.37593E-01 
  57781.5286     0.37382E-01 
  57813.7907     0.37171E-01 
  57846.0529     0.36962E-01 
  57878.3150     0.36754E-01 
  57910.5772     0.36547E-01 
  57942.8394     0.36342E-01 
  57975.1015     0.36137E-01 
  58007.3637     0.35934E-01 
  58039.6258     0.35732E-01 
  58071.8880     0.35532E-01 
  58104.1502     0.35333E-01 
  58136.4123     0.35135E-01 
  58168.6745     0.34939E-01 
  58200.9366     0.34743E-01 
  58233.1988     0.34550E-01 
  58265.4610     0.34357E-01 
  58297.7231     0.34166E-01 
  58329.9853     0.33977E-01 
  58362.2474     0.33789E-01 
  58394.5096     0.33602E-01 
  58426.7718     0.33417E-01 
  58459.0339     0.33233E-01 
  58491.2961     0.33051E-01 
  58523.5582     0.32871E-01 
  58555.8204     0.32691E-01 
  58588.0826     0.32514E-01 
  58620.3447     0.32338E-01 
  58652.6069     0.32163E-01 
  58684.8690     0.31991E-01 
  58717.1312     0.31819E-01 
  58749.3934     0.31650E-01 
  58781.6555     0.31482E-01 
  58813.9177     0.31316E-01 
  58846.1798     0.31151E-01 
  58878.4420     0.30988E-01 
  58910.7042     0.30827E-01 
  58942.9663     0.30668E-01 
  58975.2285     0.30510E-01 
  59007.4906     0.30354E-01 
  59039.7528     0.30200E-01 
  59072.0150     0.30048E-01 
  59104.2771     0.29898E-01 
  59136.5393     0.29749E-01 
  59168.8014     0.29602E-01 
  59201.0636     0.29457E-01 
  59233.3258     0.29314E-01 
  59265.5879     0.29173E-01 
  59297.8501     0.29034E-01 
  59330.1122     0.28897E-01 
  59362.3744     0.28762E-01 
  59394.6366     0.28629E-01 
  59426.8987     0.28498E-01 
  59459.1609     0.28369E-01 
  59491.4230     0.28241E-01 
  59523.6852     0.28116E-01 
  59555.9474     0.27994E-01 
  59588.2095     0.27873E-01 
  59620.4717     0.27754E-01 
  59652.7338     0.27637E-01 
  59684.9960     0.27523E-01 
  59717.2582     0.27411E-01 
  59749.5203     0.27301E-01 
  59781.7825     0.27193E-01 
  59814.0446     0.27088E-01 
  59846.3068     0.26984E-01 
  59878.5690     0.26884E-01 
  59910.8311     0.26785E-01 
  59943.0933     0.26689E-01 
  59975.3554     0.26595E-01 
  60007.6176     0.26503E-01 
  60039.8798     0.26414E-01 
  60072.1419     0.26327E-01 
  60104.4041     0.26243E-01 
  60136.6662     0.26161E-01 
  60168.9284     0.26082E-01 
  60201.1906     0.26005E-01 
  60233.4527     0.25931E-01 
  60265.7149     0.25859E-01 
  60297.9770     0.25790E-01 
  60330.2392     0.25723E-01 
  60362.5014     0.25659E-01 
  60394.7635     0.25598E-01 
  60427.0257     0.25539E-01 
  60459.2878     0.25483E-01 
  60491.5500     0.25430E-01 
  60523.8122     0.25379E-01 
  60556.0743     0.25331E-01 
  60588.3365     0.25286E-01 
  60620.5986     0.25244E-01 
  60652.8608     0.25205E-01 
  60685.1230     0.25168E-01 
  60717.3851     0.25135E-01 
  60749.6473     0.25104E-01 
  60781.9094     0.25076E-01 
  60814.1716     0.25051E-01 
  60846.4338     0.25029E-01 
  60878.6959     0.25010E-01 
  60910.9581     0.24994E-01 
  60943.2202     0.24982E-01 
  60975.4824     0.24972E-01 
  61007.7446     0.24965E-01 
  61040.0067     0.24962E-01 
  61072.2689     0.24961E-01 
  61104.5310     0.24964E-01 
  61136.7932     0.24970E-01 
  61169.0554     0.24979E-01 
  61201.3175     0.24992E-01 
  61233.5797     0.25008E-01 
  61265.8418     0.25027E-01 
  61298.1040     0.25049E-01 
  61330.3662     0.25075E-01 
  61362.6283     0.25104E-01 
  61394.8905     0.25137E-01 
  61427.1526     0.25173E-01 
  61459.4148     0.25212E-01 
  61491.6770     0.25255E-01 
  61523.9391     0.25302E-01 
  61556.2013     0.25352E-01 
  61588.4634     0.25405E-01 
  61620.7256     0.25463E-01 
  61652.9878     0.25523E-01 
  61685.2499     0.25588E-01 
  61717.5121     0.25656E-01 
  61749.7742     0.25728E-01 
  61782.0364     0.25804E-01 
  61814.2986     0.25884E-01 
  61846.5607     0.25967E-01 
  61878.8229     0.26054E-01 
  61911.0850     0.26145E-01 
  61943.3472     0.26240E-01 
  61975.6094     0.26339E-01 
  62007.8715     0.26442E-01 
  62040.1337     0.26549E-01 
  62072.3958     0.26659E-01 
  62104.6580     0.26774E-01 
  62136.9202     0.26893E-01 
  62169.1823     0.27016E-01 
  62201.4445     0.27144E-01 
  62233.7066     0.27275E-01 
  62265.9688     0.27411E-01 
  62298.2310     0.27551E-01 
  62330.4931     0.27695E-01 
  62362.7553     0.27843E-01 
  62395.0174     0.27996E-01 
  62427.2796     0.28153E-01 
  62459.5418     0.28315E-01 
  62491.8039     0.28480E-01 
  62524.0661     0.28651E-01 
  62556.3282     0.28826E-01 
  62588.5904     0.29005E-01 
  62620.8526     0.29189E-01 
  62653.1147     0.29378E-01 
  62685.3769     0.29571E-01 
  62717.6390     0.29769E-01 
  62749.9012     0.29971E-01 
  62782.1634     0.30178E-01 
  62814.4255     0.30390E-01 
  62846.6877     0.30607E-01 
  62878.9498     0.30829E-01 
  62911.2120     0.31055E-01 
  62943.4742     0.31287E-01 
  62975.7363     0.31523E-01 
  63007.9985     0.31764E-01 
  63040.2606     0.32010E-01 
  63072.5228     0.32261E-01 
  63104.7850     0.32518E-01 
  63137.0471     0.32779E-01 
  63169.3093     0.33046E-01 
  63201.5714     0.33317E-01 
  63233.8336     0.33594E-01 
  63266.0958     0.33876E-01 
  63298.3579     0.34164E-01 
  63330.6201     0.34457E-01 
  63362.8822     0.34755E-01 
  63395.1444     0.35058E-01 
  63427.4066     0.35367E-01 
  63459.6687     0.35681E-01 
  63491.9309     0.36001E-01 
  63524.1930     0.36326E-01 
  63556.4552     0.36657E-01 
  63588.7174     0.36994E-01 
  63620.9795     0.37336E-01 
  63653.2417     0.37683E-01 
  63685.5038     0.38037E-01 
  63717.7660     0.38396E-01 
  63750.0282     0.38761E-01 
  63782.2903     0.39132E-01 
  63814.5525     0.39509E-01 
  63846.8146     0.39891E-01 
  63879.0768     0.40280E-01 
  63911.3390     0.40674E-01 
  63943.6011     0.41074E-01 
  63975.8633     0.41481E-01 
  64008.1254     0.41894E-01 
  64040.3876     0.42312E-01 
  64072.6498     0.42737E-01 
  64104.9119     0.43168E-01 
  64137.1741     0.43605E-01 
  64169.4362     0.44049E-01 
  64201.6984     0.44499E-01 
  64233.9606     0.44955E-01 
  64266.2227     0.45418E-01 
  64298.4849     0.45887E-01 
  64330.7470     0.46362E-01 
  64363.0092     0.46844E-01 
  64395.2714     0.47332E-01 
  64427.5335     0.47828E-01 
  64459.7957     0.48329E-01 
  64492.0578     0.48838E-01 
  64524.3200     0.49353E-01 
  64556.5822     0.49874E-01 
  64588.8443     0.50403E-01 
  64621.1065     0.50938E-01 
  64653.3686     0.51481E-01 
  64685.6308     0.52030E-01 
  64717.8930     0.52586E-01 
  64750.1551     0.53149E-01 
  64782.4173     0.53719E-01 
  64814.6794     0.54296E-01 
  64846.9416     0.54880E-01 
  64879.2038     0.55471E-01 
  64911.4659     0.56070E-01 
  64943.7281     0.56676E-01 
  64975.9902     0.57288E-01 
  65008.2524     0.57909E-01 
  65040.5146     0.58536E-01 
  65072.7767     0.59171E-01 
  65105.0389     0.59814E-01 
  65137.3010     0.60463E-01 
  65169.5632     0.61121E-01 
  65201.8254     0.61785E-01 
  65234.0875     0.62458E-01 
  65266.3497     0.63138E-01 
  65298.6118     0.63825E-01 
  65330.8740     0.64521E-01 
  65363.1362     0.65224E-01 
  65395.3983     0.65935E-01 
  65427.6605     0.66653E-01 
  65459.9226     0.67380E-01 
  65492.1848     0.68114E-01 
  65524.4470     0.68856E-01 
  65556.7091     0.69607E-01 
  65588.9713     0.70365E-01 
  65621.2334     0.71131E-01 
  65653.4956     0.71906E-01 
  65685.7578     0.72688E-01 
  65718.0199     0.73479E-01 
  65750.2821     0.74278E-01 
  65782.5442     0.75085E-01 
  65814.8064     0.75901E-01 
  65847.0686     0.76725E-01 
  65879.3307     0.77557E-01 
  65911.5929     0.78397E-01 
  65943.8550     0.79247E-01 
  65976.1172     0.80104E-01 
  66008.3794     0.80970E-01 
  66040.6415     0.81845E-01 
  66072.9037     0.82728E-01 
  66105.1658     0.83620E-01 
  66137.4280     0.84521E-01 
  66169.6902     0.85430E-01 
  66201.9523     0.86348E-01 
  66234.2145     0.87275E-01 
  66266.4766     0.88211E-01 
  66298.7388     0.89156E-01 
  66331.0010     0.90109E-01 
  66363.2631     0.91072E-01 
  66395.5253     0.92043E-01 
  66427.7874     0.93024E-01 
  66460.0496     0.94014E-01 
  66492.3118     0.95012E-01 
  66524.5739     0.96020E-01 
  66556.8361     0.97037E-01 
  66589.0982     0.98064E-01 
  66621.3604     0.99100E-01 
  66653.6226     0.10014E+00 
  66685.8847     0.10120E+00 
  66718.1469     0.10226E+00 
  66750.4090     0.10334E+00 
  66782.6712     0.10442E+00 
  66814.9334     0.10551E+00 
  66847.1955     0.10661E+00 
  66879.4577     0.10772E+00 
  66911.7198     0.10884E+00 
  66943.9820     0.10997E+00 
  66976.2442     0.11111E+00 
  67008.5063     0.11226E+00 
  67040.7685     0.11342E+00 
  67073.0306     0.11459E+00 
  67105.2928     0.11577E+00 
  67137.5550     0.11696E+00 
  67169.8171     0.11816E+00 
  67202.0793     0.11937E+00 
  67234.3414     0.12059E+00 
  67266.6036     0.12182E+00 
  67298.8658     0.12306E+00 
  67331.1279     0.12431E+00 
  67363.3901     0.12557E+00 
  67395.6522     0.12684E+00 
  67427.9144     0.12811E+00 
  67460.1766     0.12940E+00 
  67492.4387     0.13070E+00 
  67524.7009     0.13201E+00 
  67556.9630     0.13334E+00 
  67589.2252     0.13467E+00 
  67621.4874     0.13601E+00 
  67653.7495     0.13736E+00 
  67686.0117     0.13872E+00 
  67718.2738     0.14009E+00 
  67750.5360     0.14148E+00 
  67782.7982     0.14287E+00 
  67815.0603     0.14428E+00 
  67847.3225     0.14569E+00 
  67879.5846     0.14712E+00 
  67911.8468     0.14855E+00 
  67944.1090     0.15000E+00 
  67976.3711     0.15146E+00 
  68008.6333     0.15293E+00 
  68040.8954     0.15441E+00 
  68073.1576     0.15590E+00 
  68105.4198     0.15740E+00 
  68137.6819     0.15891E+00 
  68169.9441     0.16043E+00 
  68202.2062     0.16197E+00 
  68234.4684     0.16351E+00 
  68266.7306     0.16507E+00 
  68298.9927     0.16663E+00 
  68331.2549     0.16821E+00 
  68363.5170     0.16980E+00 
  68395.7792     0.17140E+00 
  68428.0414     0.17301E+00 
  68460.3035     0.17463E+00 
  68492.5657     0.17627E+00 
  68524.8278     0.17791E+00 
  68557.0900     0.17957E+00 
  68589.3522     0.18123E+00 
  68621.6143     0.18291E+00 
  68653.8765     0.18460E+00 
  68686.1386     0.18630E+00 
  68718.4008     0.18801E+00 
  68750.6630     0.18974E+00 
  68782.9251     0.19147E+00 
  68815.1873     0.19322E+00 
  68847.4494     0.19498E+00 
  68879.7116     0.19675E+00 
  68911.9738     0.19853E+00 
  68944.2359     0.20032E+00 
  68976.4981     0.20212E+00 
  69008.7602     0.20394E+00 
  69041.0224     0.20577E+00 
  69073.2846     0.20761E+00 
  69105.5467     0.20946E+00 
  69137.8089     0.21132E+00 
  69170.0710     0.21319E+00 
  69202.3332     0.21508E+00 
  69234.5954     0.21697E+00 
  69266.8575     0.21888E+00 
  69299.1197     0.22080E+00 
  69331.3818     0.22273E+00 
  69363.6440     0.22468E+00 
  69395.9062     0.22663E+00 
  69428.1683     0.22860E+00 
  69460.4305     0.23058E+00 
  69492.6926     0.23257E+00 
  69524.9548     0.23457E+00 
  69557.2170     0.23658E+00 
  69589.4791     0.23861E+00 
  69621.7413     0.24065E+00 
  69654.0034     0.24270E+00 
  69686.2656     0.24476E+00 
  69718.5278     0.24683E+00 
  69750.7899     0.24892E+00 
  69783.0521     0.25101E+00 
  69815.3142     0.25312E+00 
  69847.5764     0.25524E+00 
  69879.8386     0.25738E+00 
  69912.1007     0.25952E+00 
  69944.3629     0.26168E+00 
  69976.6250     0.26385E+00 
  70008.8872     0.26603E+00 
  70041.1494     0.26822E+00 
  70073.4115     0.27042E+00 
  70105.6737     0.27264E+00 
  70137.9358     0.27487E+00 
  70170.1980     0.27711E+00 
  70202.4602     0.27936E+00 
  70234.7223     0.28162E+00 
  70266.9845     0.28390E+00 
  70299.2466     0.28619E+00 
  70331.5088     0.28848E+00 
  70363.7710     0.29080E+00 
  70396.0331     0.29312E+00 
  70428.2953     0.29546E+00 
  70460.5574     0.29780E+00 
  70492.8196     0.30016E+00 
  70525.0818     0.30253E+00 
  70557.3439     0.30492E+00 
  70589.6061     0.30731E+00 
  70621.8682     0.30972E+00 
  70654.1304     0.31214E+00 
  70686.3926     0.31457E+00 
  70718.6547     0.31701E+00 
  70750.9169     0.31947E+00 
  70783.1790     0.32193E+00 
  70815.4412     0.32441E+00 
  70847.7034     0.32690E+00 
  70879.9655     0.32940E+00 
  70912.2277     0.33192E+00 
  70944.4898     0.33444E+00 
  70976.7520     0.33698E+00 
  71009.0142     0.33953E+00 
  71041.2763     0.34209E+00 
  71073.5385     0.34466E+00 
  71105.8006     0.34725E+00 
  71138.0628     0.34984E+00 
  71170.3250     0.35245E+00 
  71202.5871     0.35507E+00 
  71234.8493     0.35770E+00 
  71267.1114     0.36034E+00 
  71299.3736     0.36300E+00 
  71331.6358     0.36567E+00 
  71363.8979     0.36834E+00 
  71396.1601     0.37103E+00 
  71428.4222     0.37373E+00 
  71460.6844     0.37645E+00 
  71492.9466     0.37917E+00 
  71525.2087     0.38191E+00 
  71557.4709     0.38465E+00 
  71589.7330     0.38741E+00 
  71621.9952     0.39018E+00 
  71654.2574     0.39296E+00 
  71686.5195     0.39576E+00 
  71718.7817     0.39856E+00 
  71751.0438     0.40138E+00 
  71783.3060     0.40420E+00 
  71815.5682     0.40704E+00 
  71847.8303     0.40989E+00 
  71880.0925     0.41275E+00 
  71912.3546     0.41562E+00 
  71944.6168     0.41851E+00 
  71976.8790     0.42140E+00 
  72009.1411     0.42430E+00 
  72041.4033     0.42722E+00 
  72073.6654     0.43015E+00 
  72105.9276     0.43309E+00 
  72138.1898     0.43603E+00 
  72170.4519     0.43899E+00 
  72202.7141     0.44197E+00 
  72234.9762     0.44495E+00 
  72267.2384     0.44794E+00 
  72299.5006     0.45094E+00 
  72331.7627     0.45396E+00 
  72364.0249     0.45698E+00 
  72396.2870     0.46001E+00 
  72428.5492     0.46306E+00 
  72460.8114     0.46612E+00 
  72493.0735     0.46918E+00 
  72525.3357     0.47226E+00 
  72557.5978     0.47535E+00 
  72589.8600     0.47845E+00 
