  32262.1600     0.17936E+00 
  32294.4222     0.18132E+00 
  32326.6843     0.18329E+00 
  32358.9465     0.18528E+00 
  32391.2086     0.18728E+00 
  32423.4708     0.18929E+00 
  32455.7330     0.19132E+00 
  32487.9951     0.19336E+00 
  32520.2573     0.19542E+00 
  32552.5194     0.19749E+00 
  32584.7816     0.19957E+00 
  32617.0438     0.20167E+00 
  32649.3059     0.20378E+00 
  32681.5681     0.20591E+00 
  32713.8302     0.20805E+00 
  32746.0924     0.21020E+00 
  32778.3546     0.21237E+00 
  32810.6167     0.21455E+00 
  32842.8789     0.21674E+00 
  32875.1410     0.21895E+00 
  32907.4032     0.22117E+00 
  32939.6654     0.22341E+00 
  32971.9275     0.22566E+00 
  33004.1897     0.22792E+00 
  33036.4518     0.23020E+00 
  33068.7140     0.23249E+00 
  33100.9762     0.23479E+00 
  33133.2383     0.23711E+00 
  33165.5005     0.23944E+00 
  33197.7626     0.24178E+00 
  33230.0248     0.24414E+00 
  33262.2870     0.24651E+00 
  33294.5491     0.24889E+00 
  33326.8113     0.25129E+00 
  33359.0734     0.25370E+00 
  33391.3356     0.25613E+00 
  33423.5978     0.25856E+00 
  33455.8599     0.26101E+00 
  33488.1221     0.26348E+00 
  33520.3842     0.26595E+00 
  33552.6464     0.26844E+00 
  33584.9086     0.27094E+00 
  33617.1707     0.27346E+00 
  33649.4329     0.27598E+00 
  33681.6950     0.27852E+00 
  33713.9572     0.28108E+00 
  33746.2194     0.28364E+00 
  33778.4815     0.28622E+00 
  33810.7437     0.28881E+00 
  33843.0058     0.29141E+00 
  33875.2680     0.29403E+00 
  33907.5302     0.29665E+00 
  33939.7923     0.29929E+00 
  33972.0545     0.30194E+00 
  34004.3166     0.30460E+00 
  34036.5788     0.30728E+00 
  34068.8410     0.30997E+00 
  34101.1031     0.31266E+00 
  34133.3653     0.31537E+00 
  34165.6274     0.31809E+00 
  34197.8896     0.32083E+00 
  34230.1518     0.32357E+00 
  34262.4139     0.32633E+00 
  34294.6761     0.32909E+00 
  34326.9382     0.33187E+00 
  34359.2004     0.33466E+00 
  34391.4626     0.33746E+00 
  34423.7247     0.34027E+00 
  34455.9869     0.34309E+00 
  34488.2490     0.34592E+00 
  34520.5112     0.34876E+00 
  34552.7734     0.35162E+00 
  34585.0355     0.35448E+00 
  34617.2977     0.35735E+00 
  34649.5598     0.36023E+00 
  34681.8220     0.36313E+00 
  34714.0842     0.36603E+00 
  34746.3463     0.36894E+00 
  34778.6085     0.37186E+00 
  34810.8706     0.37479E+00 
  34843.1328     0.37773E+00 
  34875.3950     0.38068E+00 
  34907.6571     0.38364E+00 
  34939.9193     0.38661E+00 
  34972.1814     0.38958E+00 
  35004.4436     0.39257E+00 
  35036.7058     0.39556E+00 
  35068.9679     0.39856E+00 
  35101.2301     0.40158E+00 
  35133.4922     0.40459E+00 
  35165.7544     0.40762E+00 
  35198.0166     0.41065E+00 
  35230.2787     0.41370E+00 
  35262.5409     0.41675E+00 
  35294.8030     0.41980E+00 
  35327.0652     0.42287E+00 
  35359.3274     0.42594E+00 
  35391.5895     0.42902E+00 
  35423.8517     0.43211E+00 
  35456.1138     0.43520E+00 
  35488.3760     0.43830E+00 
  35520.6382     0.44140E+00 
  35552.9003     0.44451E+00 
  35585.1625     0.44763E+00 
  35617.4246     0.45076E+00 
  35649.6868     0.45389E+00 
  35681.9490     0.45702E+00 
  35714.2111     0.46016E+00 
  35746.4733     0.46331E+00 
  35778.7354     0.46646E+00 
  35810.9976     0.46962E+00 
  35843.2598     0.47278E+00 
  35875.5219     0.47594E+00 
  35907.7841     0.47912E+00 
  35940.0462     0.48229E+00 
  35972.3084     0.48547E+00 
  36004.5706     0.48865E+00 
  36036.8327     0.49184E+00 
  36069.0949     0.49503E+00 
  36101.3570     0.49823E+00 
  36133.6192     0.50142E+00 
  36165.8814     0.50462E+00 
  36198.1435     0.50783E+00 
  36230.4057     0.51104E+00 
  36262.6678     0.51424E+00 
  36294.9300     0.51746E+00 
  36327.1922     0.52067E+00 
  36359.4543     0.52389E+00 
  36391.7165     0.52711E+00 
  36423.9786     0.53033E+00 
  36456.2408     0.53355E+00 
  36488.5030     0.53677E+00 
  36520.7651     0.53999E+00 
  36553.0273     0.54322E+00 
  36585.2894     0.54645E+00 
  36617.5516     0.54967E+00 
  36649.8138     0.55290E+00 
  36682.0759     0.55613E+00 
  36714.3381     0.55935E+00 
  36746.6002     0.56258E+00 
  36778.8624     0.56581E+00 
  36811.1246     0.56904E+00 
  36843.3867     0.57226E+00 
  36875.6489     0.57549E+00 
  36907.9110     0.57871E+00 
  36940.1732     0.58193E+00 
  36972.4354     0.58516E+00 
  37004.6975     0.58838E+00 
  37036.9597     0.59159E+00 
  37069.2218     0.59481E+00 
  37101.4840     0.59802E+00 
  37133.7462     0.60124E+00 
  37166.0083     0.60444E+00 
  37198.2705     0.60765E+00 
  37230.5326     0.61085E+00 
  37262.7948     0.61405E+00 
  37295.0570     0.61725E+00 
  37327.3191     0.62044E+00 
  37359.5813     0.62363E+00 
  37391.8434     0.62682E+00 
  37424.1056     0.63000E+00 
  37456.3678     0.63318E+00 
  37488.6299     0.63635E+00 
  37520.8921     0.63952E+00 
  37553.1542     0.64268E+00 
  37585.4164     0.64584E+00 
  37617.6786     0.64899E+00 
  37649.9407     0.65213E+00 
  37682.2029     0.65528E+00 
  37714.4650     0.65841E+00 
  37746.7272     0.66154E+00 
  37778.9894     0.66466E+00 
  37811.2515     0.66778E+00 
  37843.5137     0.67089E+00 
  37875.7758     0.67399E+00 
  37908.0380     0.67708E+00 
  37940.3002     0.68017E+00 
  37972.5623     0.68325E+00 
  38004.8245     0.68632E+00 
  38037.0866     0.68939E+00 
  38069.3488     0.69245E+00 
  38101.6110     0.69549E+00 
  38133.8731     0.69853E+00 
  38166.1353     0.70157E+00 
  38198.3974     0.70459E+00 
  38230.6596     0.70760E+00 
  38262.9218     0.71061E+00 
  38295.1839     0.71360E+00 
  38327.4461     0.71658E+00 
  38359.7082     0.71956E+00 
  38391.9704     0.72252E+00 
  38424.2326     0.72548E+00 
  38456.4947     0.72842E+00 
  38488.7569     0.73136E+00 
  38521.0190     0.73428E+00 
  38553.2812     0.73719E+00 
  38585.5434     0.74009E+00 
  38617.8055     0.74298E+00 
  38650.0677     0.74586E+00 
  38682.3298     0.74873E+00 
  38714.5920     0.75158E+00 
  38746.8542     0.75442E+00 
  38779.1163     0.75725E+00 
  38811.3785     0.76007E+00 
  38843.6406     0.76288E+00 
  38875.9028     0.76567E+00 
  38908.1650     0.76845E+00 
  38940.4271     0.77121E+00 
  38972.6893     0.77397E+00 
  39004.9514     0.77670E+00 
  39037.2136     0.77943E+00 
  39069.4758     0.78214E+00 
  39101.7379     0.78484E+00 
  39134.0001     0.78752E+00 
  39166.2622     0.79019E+00 
  39198.5244     0.79284E+00 
  39230.7866     0.79548E+00 
  39263.0487     0.79811E+00 
  39295.3109     0.80072E+00 
  39327.5730     0.80331E+00 
  39359.8352     0.80589E+00 
  39392.0974     0.80845E+00 
  39424.3595     0.81100E+00 
  39456.6217     0.81353E+00 
  39488.8838     0.81604E+00 
  39521.1460     0.81854E+00 
  39553.4082     0.82102E+00 
  39585.6703     0.82349E+00 
  39617.9325     0.82594E+00 
  39650.1946     0.82837E+00 
  39682.4568     0.83079E+00 
  39714.7190     0.83318E+00 
  39746.9811     0.83557E+00 
  39779.2433     0.83793E+00 
  39811.5054     0.84027E+00 
  39843.7676     0.84260E+00 
  39876.0298     0.84491E+00 
  39908.2919     0.84720E+00 
  39940.5541     0.84948E+00 
  39972.8162     0.85173E+00 
  40005.0784     0.85397E+00 
  40037.3406     0.85619E+00 
  40069.6027     0.85838E+00 
  40101.8649     0.86056E+00 
  40134.1270     0.86273E+00 
  40166.3892     0.86487E+00 
  40198.6514     0.86699E+00 
  40230.9135     0.86909E+00 
  40263.1757     0.87118E+00 
  40295.4378     0.87324E+00 
  40327.7000     0.87528E+00 
  40359.9622     0.87731E+00 
  40392.2243     0.87931E+00 
  40424.4865     0.88130E+00 
  40456.7486     0.88326E+00 
  40489.0108     0.88520E+00 
  40521.2730     0.88712E+00 
  40553.5351     0.88903E+00 
  40585.7973     0.89091E+00 
  40618.0594     0.89277E+00 
  40650.3216     0.89460E+00 
  40682.5838     0.89642E+00 
  40714.8459     0.89822E+00 
  40747.1081     0.89999E+00 
  40779.3702     0.90175E+00 
  40811.6324     0.90348E+00 
  40843.8946     0.90519E+00 
  40876.1567     0.90688E+00 
  40908.4189     0.90855E+00 
  40940.6810     0.91019E+00 
  40972.9432     0.91182E+00 
  41005.2054     0.91342E+00 
  41037.4675     0.91500E+00 
  41069.7297     0.91655E+00 
  41101.9918     0.91809E+00 
  41134.2540     0.91960E+00 
  41166.5162     0.92109E+00 
  41198.7783     0.92255E+00 
  41231.0405     0.92400E+00 
  41263.3026     0.92542E+00 
  41295.5648     0.92682E+00 
  41327.8270     0.92819E+00 
  41360.0891     0.92955E+00 
  41392.3513     0.93088E+00 
  41424.6134     0.93218E+00 
  41456.8756     0.93347E+00 
  41489.1378     0.93473E+00 
  41521.3999     0.93596E+00 
  41553.6621     0.93718E+00 
  41585.9242     0.93837E+00 
  41618.1864     0.93953E+00 
  41650.4486     0.94068E+00 
  41682.7107     0.94179E+00 
  41714.9729     0.94289E+00 
  41747.2350     0.94396E+00 
  41779.4972     0.94501E+00 
  41811.7594     0.94604E+00 
  41844.0215     0.94704E+00 
  41876.2837     0.94801E+00 
  41908.5458     0.94897E+00 
  41940.8080     0.94990E+00 
  41973.0702     0.95080E+00 
  42005.3323     0.95168E+00 
  42037.5945     0.95254E+00 
  42069.8566     0.95337E+00 
  42102.1188     0.95418E+00 
  42134.3810     0.95497E+00 
  42166.6431     0.95573E+00 
  42198.9053     0.95646E+00 
  42231.1674     0.95718E+00 
  42263.4296     0.95787E+00 
  42295.6918     0.95853E+00 
  42327.9539     0.95917E+00 
  42360.2161     0.95979E+00 
  42392.4782     0.96038E+00 
  42424.7404     0.96094E+00 
  42457.0026     0.96149E+00 
  42489.2647     0.96201E+00 
  42521.5269     0.96250E+00 
  42553.7890     0.96297E+00 
  42586.0512     0.96342E+00 
  42618.3134     0.96384E+00 
  42650.5755     0.96424E+00 
  42682.8377     0.96461E+00 
  42715.0998     0.96496E+00 
  42747.3620     0.96528E+00 
  42779.6242     0.96558E+00 
  42811.8863     0.96586E+00 
  42844.1485     0.96611E+00 
  42876.4106     0.96634E+00 
  42908.6728     0.96654E+00 
  42940.9350     0.96672E+00 
  42973.1971     0.96688E+00 
  43005.4593     0.96701E+00 
  43037.7214     0.96712E+00 
  43069.9836     0.96720E+00 
  43102.2458     0.96726E+00 
  43134.5079     0.96730E+00 
  43166.7701     0.96731E+00 
  43199.0322     0.96730E+00 
  43231.2944     0.96726E+00 
  43263.5566     0.96720E+00 
  43295.8187     0.96711E+00 
  43328.0809     0.96701E+00 
  43360.3430     0.96688E+00 
  43392.6052     0.96672E+00 
  43424.8674     0.96654E+00 
  43457.1295     0.96634E+00 
  43489.3917     0.96611E+00 
  43521.6538     0.96586E+00 
  43553.9160     0.96559E+00 
  43586.1782     0.96529E+00 
  43618.4403     0.96497E+00 
  43650.7025     0.96463E+00 
  43682.9646     0.96426E+00 
  43715.2268     0.96388E+00 
  43747.4890     0.96346E+00 
  43779.7511     0.96303E+00 
  43812.0133     0.96257E+00 
  43844.2754     0.96209E+00 
  43876.5376     0.96158E+00 
  43908.7998     0.96106E+00 
  43941.0619     0.96051E+00 
  43973.3241     0.95994E+00 
  44005.5862     0.95934E+00 
  44037.8484     0.95872E+00 
  44070.1106     0.95808E+00 
  44102.3727     0.95742E+00 
  44134.6349     0.95674E+00 
  44166.8970     0.95603E+00 
  44199.1592     0.95530E+00 
  44231.4214     0.95455E+00 
  44263.6835     0.95378E+00 
  44295.9457     0.95298E+00 
  44328.2078     0.95217E+00 
  44360.4700     0.95133E+00 
  44392.7322     0.95047E+00 
  44424.9943     0.94959E+00 
  44457.2565     0.94869E+00 
  44489.5186     0.94777E+00 
  44521.7808     0.94682E+00 
  44554.0430     0.94585E+00 
  44586.3051     0.94487E+00 
  44618.5673     0.94386E+00 
  44650.8294     0.94283E+00 
  44683.0916     0.94178E+00 
  44715.3538     0.94071E+00 
  44747.6159     0.93962E+00 
  44779.8781     0.93851E+00 
  44812.1402     0.93738E+00 
  44844.4024     0.93623E+00 
  44876.6646     0.93506E+00 
  44908.9267     0.93387E+00 
  44941.1889     0.93265E+00 
  44973.4510     0.93142E+00 
  45005.7132     0.93017E+00 
  45037.9754     0.92890E+00 
  45070.2375     0.92761E+00 
  45102.4997     0.92630E+00 
  45134.7618     0.92497E+00 
  45167.0240     0.92363E+00 
  45199.2862     0.92226E+00 
  45231.5483     0.92087E+00 
  45263.8105     0.91947E+00 
  45296.0726     0.91805E+00 
  45328.3348     0.91661E+00 
  45360.5970     0.91515E+00 
  45392.8591     0.91367E+00 
  45425.1213     0.91217E+00 
  45457.3834     0.91066E+00 
  45489.6456     0.90913E+00 
  45521.9078     0.90758E+00 
  45554.1699     0.90601E+00 
  45586.4321     0.90443E+00 
  45618.6942     0.90282E+00 
  45650.9564     0.90120E+00 
  45683.2186     0.89957E+00 
  45715.4807     0.89791E+00 
  45747.7429     0.89624E+00 
  45780.0050     0.89455E+00 
  45812.2672     0.89285E+00 
  45844.5294     0.89113E+00 
  45876.7915     0.88939E+00 
  45909.0537     0.88764E+00 
  45941.3158     0.88587E+00 
  45973.5780     0.88408E+00 
  46005.8402     0.88228E+00 
  46038.1023     0.88047E+00 
  46070.3645     0.87863E+00 
  46102.6266     0.87679E+00 
  46134.8888     0.87492E+00 
  46167.1510     0.87304E+00 
  46199.4131     0.87115E+00 
  46231.6753     0.86924E+00 
  46263.9374     0.86732E+00 
  46296.1996     0.86538E+00 
  46328.4618     0.86343E+00 
  46360.7239     0.86146E+00 
  46392.9861     0.85948E+00 
  46425.2482     0.85749E+00 
  46457.5104     0.85548E+00 
  46489.7726     0.85346E+00 
  46522.0347     0.85142E+00 
  46554.2969     0.84937E+00 
  46586.5590     0.84731E+00 
  46618.8212     0.84523E+00 
  46651.0834     0.84314E+00 
  46683.3455     0.84104E+00 
  46715.6077     0.83893E+00 
  46747.8698     0.83680E+00 
  46780.1320     0.83466E+00 
  46812.3942     0.83251E+00 
  46844.6563     0.83034E+00 
  46876.9185     0.82816E+00 
  46909.1806     0.82598E+00 
  46941.4428     0.82377E+00 
  46973.7050     0.82156E+00 
  47005.9671     0.81934E+00 
  47038.2293     0.81710E+00 
  47070.4914     0.81486E+00 
  47102.7536     0.81260E+00 
  47135.0158     0.81033E+00 
  47167.2779     0.80805E+00 
  47199.5401     0.80576E+00 
  47231.8022     0.80346E+00 
  47264.0644     0.80115E+00 
  47296.3266     0.79883E+00 
  47328.5887     0.79650E+00 
  47360.8509     0.79416E+00 
  47393.1130     0.79181E+00 
  47425.3752     0.78945E+00 
  47457.6374     0.78708E+00 
  47489.8995     0.78470E+00 
  47522.1617     0.78231E+00 
  47554.4238     0.77991E+00 
  47586.6860     0.77750E+00 
  47618.9482     0.77509E+00 
  47651.2103     0.77266E+00 
  47683.4725     0.77023E+00 
  47715.7346     0.76779E+00 
  47747.9968     0.76534E+00 
  47780.2590     0.76288E+00 
  47812.5211     0.76042E+00 
  47844.7833     0.75795E+00 
  47877.0454     0.75546E+00 
  47909.3076     0.75298E+00 
  47941.5698     0.75048E+00 
  47973.8319     0.74798E+00 
  48006.0941     0.74547E+00 
  48038.3562     0.74295E+00 
  48070.6184     0.74043E+00 
  48102.8806     0.73790E+00 
  48135.1427     0.73536E+00 
  48167.4049     0.73282E+00 
  48199.6670     0.73027E+00 
  48231.9292     0.72771E+00 
  48264.1914     0.72515E+00 
  48296.4535     0.72258E+00 
  48328.7157     0.72001E+00 
  48360.9778     0.71743E+00 
  48393.2400     0.71484E+00 
  48425.5022     0.71225E+00 
  48457.7643     0.70966E+00 
  48490.0265     0.70706E+00 
  48522.2886     0.70445E+00 
  48554.5508     0.70184E+00 
  48586.8130     0.69923E+00 
  48619.0751     0.69661E+00 
  48651.3373     0.69398E+00 
  48683.5994     0.69135E+00 
  48715.8616     0.68872E+00 
  48748.1238     0.68609E+00 
  48780.3859     0.68345E+00 
  48812.6481     0.68080E+00 
  48844.9102     0.67815E+00 
  48877.1724     0.67550E+00 
  48909.4346     0.67285E+00 
  48941.6967     0.67019E+00 
  48973.9589     0.66753E+00 
  49006.2210     0.66487E+00 
  49038.4832     0.66220E+00 
  49070.7454     0.65953E+00 
  49103.0075     0.65686E+00 
  49135.2697     0.65418E+00 
  49167.5318     0.65151E+00 
  49199.7940     0.64883E+00 
  49232.0562     0.64615E+00 
  49264.3183     0.64346E+00 
  49296.5805     0.64078E+00 
  49328.8426     0.63809E+00 
  49361.1048     0.63540E+00 
  49393.3670     0.63271E+00 
  49425.6291     0.63002E+00 
  49457.8913     0.62733E+00 
  49490.1534     0.62464E+00 
  49522.4156     0.62194E+00 
  49554.6778     0.61925E+00 
  49586.9399     0.61655E+00 
  49619.2021     0.61385E+00 
  49651.4642     0.61115E+00 
  49683.7264     0.60845E+00 
  49715.9886     0.60576E+00 
  49748.2507     0.60306E+00 
  49780.5129     0.60036E+00 
  49812.7750     0.59766E+00 
  49845.0372     0.59496E+00 
  49877.2994     0.59226E+00 
  49909.5615     0.58956E+00 
  49941.8237     0.58686E+00 
  49974.0858     0.58416E+00 
  50006.3480     0.58147E+00 
  50038.6102     0.57877E+00 
  50070.8723     0.57607E+00 
  50103.1345     0.57338E+00 
  50135.3966     0.57068E+00 
  50167.6588     0.56799E+00 
  50199.9210     0.56530E+00 
  50232.1831     0.56261E+00 
  50264.4453     0.55992E+00 
  50296.7074     0.55723E+00 
  50328.9696     0.55455E+00 
  50361.2318     0.55186E+00 
  50393.4939     0.54918E+00 
  50425.7561     0.54650E+00 
  50458.0182     0.54382E+00 
  50490.2804     0.54114E+00 
  50522.5426     0.53847E+00 
  50554.8047     0.53580E+00 
  50587.0669     0.53313E+00 
  50619.3290     0.53046E+00 
  50651.5912     0.52780E+00 
  50683.8534     0.52514E+00 
  50716.1155     0.52248E+00 
  50748.3777     0.51982E+00 
  50780.6398     0.51717E+00 
  50812.9020     0.51452E+00 
  50845.1642     0.51187E+00 
  50877.4263     0.50922E+00 
  50909.6885     0.50658E+00 
  50941.9506     0.50395E+00 
  50974.2128     0.50131E+00 
  51006.4750     0.49868E+00 
  51038.7371     0.49605E+00 
  51070.9993     0.49343E+00 
  51103.2614     0.49081E+00 
  51135.5236     0.48819E+00 
  51167.7858     0.48558E+00 
  51200.0479     0.48297E+00 
  51232.3101     0.48037E+00 
  51264.5722     0.47777E+00 
  51296.8344     0.47517E+00 
  51329.0966     0.47258E+00 
  51361.3587     0.47000E+00 
  51393.6209     0.46741E+00 
  51425.8830     0.46484E+00 
  51458.1452     0.46226E+00 
  51490.4074     0.45969E+00 
  51522.6695     0.45713E+00 
  51554.9317     0.45457E+00 
  51587.1938     0.45201E+00 
  51619.4560     0.44946E+00 
  51651.7182     0.44692E+00 
  51683.9803     0.44438E+00 
  51716.2425     0.44185E+00 
  51748.5046     0.43932E+00 
  51780.7668     0.43679E+00 
  51813.0290     0.43427E+00 
  51845.2911     0.43176E+00 
  51877.5533     0.42925E+00 
  51909.8154     0.42675E+00 
  51942.0776     0.42425E+00 
  51974.3398     0.42176E+00 
  52006.6019     0.41927E+00 
  52038.8641     0.41679E+00 
  52071.1262     0.41432E+00 
  52103.3884     0.41185E+00 
  52135.6506     0.40939E+00 
  52167.9127     0.40693E+00 
  52200.1749     0.40448E+00 
  52232.4370     0.40204E+00 
  52264.6992     0.39960E+00 
  52296.9614     0.39716E+00 
  52329.2235     0.39474E+00 
  52361.4857     0.39232E+00 
  52393.7478     0.38990E+00 
  52426.0100     0.38750E+00 
  52458.2722     0.38510E+00 
  52490.5343     0.38270E+00 
  52522.7965     0.38031E+00 
  52555.0586     0.37793E+00 
  52587.3208     0.37556E+00 
  52619.5830     0.37319E+00 
  52651.8451     0.37083E+00 
  52684.1073     0.36847E+00 
  52716.3694     0.36612E+00 
  52748.6316     0.36378E+00 
  52780.8938     0.36145E+00 
  52813.1559     0.35912E+00 
  52845.4181     0.35680E+00 
  52877.6802     0.35448E+00 
  52909.9424     0.35218E+00 
  52942.2046     0.34988E+00 
  52974.4667     0.34758E+00 
  53006.7289     0.34530E+00 
  53038.9910     0.34302E+00 
  53071.2532     0.34075E+00 
  53103.5154     0.33848E+00 
  53135.7775     0.33622E+00 
  53168.0397     0.33397E+00 
  53200.3018     0.33173E+00 
  53232.5640     0.32950E+00 
  53264.8262     0.32727E+00 
  53297.0883     0.32505E+00 
  53329.3505     0.32283E+00 
  53361.6126     0.32063E+00 
  53393.8748     0.31843E+00 
  53426.1370     0.31624E+00 
  53458.3991     0.31406E+00 
  53490.6613     0.31188E+00 
  53522.9234     0.30971E+00 
  53555.1856     0.30755E+00 
  53587.4478     0.30540E+00 
  53619.7099     0.30325E+00 
  53651.9721     0.30111E+00 
  53684.2342     0.29898E+00 
  53716.4964     0.29686E+00 
  53748.7586     0.29475E+00 
  53781.0207     0.29264E+00 
  53813.2829     0.29054E+00 
  53845.5450     0.28845E+00 
  53877.8072     0.28637E+00 
  53910.0694     0.28429E+00 
  53942.3315     0.28222E+00 
  53974.5937     0.28016E+00 
  54006.8558     0.27811E+00 
  54039.1180     0.27607E+00 
  54071.3802     0.27403E+00 
  54103.6423     0.27200E+00 
  54135.9045     0.26998E+00 
  54168.1666     0.26797E+00 
  54200.4288     0.26596E+00 
  54232.6910     0.26397E+00 
  54264.9531     0.26198E+00 
  54297.2153     0.26000E+00 
  54329.4774     0.25802E+00 
  54361.7396     0.25606E+00 
  54394.0018     0.25410E+00 
  54426.2639     0.25215E+00 
  54458.5261     0.25021E+00 
  54490.7882     0.24828E+00 
  54523.0504     0.24636E+00 
  54555.3126     0.24444E+00 
  54587.5747     0.24253E+00 
  54619.8369     0.24063E+00 
  54652.0990     0.23874E+00 
  54684.3612     0.23686E+00 
  54716.6234     0.23498E+00 
  54748.8855     0.23311E+00 
  54781.1477     0.23125E+00 
  54813.4098     0.22940E+00 
  54845.6720     0.22756E+00 
  54877.9342     0.22572E+00 
  54910.1963     0.22390E+00 
  54942.4585     0.22208E+00 
  54974.7206     0.22027E+00 
  55006.9828     0.21846E+00 
  55039.2450     0.21667E+00 
  55071.5071     0.21488E+00 
  55103.7693     0.21310E+00 
  55136.0314     0.21133E+00 
  55168.2936     0.20957E+00 
  55200.5558     0.20782E+00 
  55232.8179     0.20607E+00 
  55265.0801     0.20433E+00 
  55297.3422     0.20260E+00 
  55329.6044     0.20088E+00 
  55361.8666     0.19917E+00 
  55394.1287     0.19746E+00 
  55426.3909     0.19577E+00 
  55458.6530     0.19408E+00 
  55490.9152     0.19240E+00 
  55523.1774     0.19072E+00 
  55555.4395     0.18906E+00 
  55587.7017     0.18740E+00 
  55619.9638     0.18576E+00 
  55652.2260     0.18412E+00 
  55684.4882     0.18248E+00 
  55716.7503     0.18086E+00 
  55749.0125     0.17924E+00 
  55781.2746     0.17764E+00 
  55813.5368     0.17604E+00 
  55845.7990     0.17444E+00 
  55878.0611     0.17286E+00 
  55910.3233     0.17128E+00 
  55942.5854     0.16972E+00 
  55974.8476     0.16816E+00 
  56007.1098     0.16660E+00 
  56039.3719     0.16506E+00 
  56071.6341     0.16353E+00 
  56103.8962     0.16200E+00 
  56136.1584     0.16048E+00 
  56168.4206     0.15897E+00 
  56200.6827     0.15746E+00 
  56232.9449     0.15597E+00 
  56265.2070     0.15448E+00 
  56297.4692     0.15300E+00 
  56329.7314     0.15153E+00 
  56361.9935     0.15006E+00 
  56394.2557     0.14861E+00 
  56426.5178     0.14716E+00 
  56458.7800     0.14572E+00 
  56491.0422     0.14428E+00 
  56523.3043     0.14286E+00 
  56555.5665     0.14144E+00 
  56587.8286     0.14003E+00 
  56620.0908     0.13863E+00 
  56652.3530     0.13724E+00 
  56684.6151     0.13585E+00 
  56716.8773     0.13448E+00 
  56749.1394     0.13311E+00 
  56781.4016     0.13174E+00 
  56813.6638     0.13039E+00 
  56845.9259     0.12904E+00 
  56878.1881     0.12770E+00 
  56910.4502     0.12637E+00 
  56942.7124     0.12505E+00 
  56974.9746     0.12373E+00 
  57007.2367     0.12242E+00 
  57039.4989     0.12112E+00 
  57071.7610     0.11983E+00 
  57104.0232     0.11854E+00 
  57136.2854     0.11726E+00 
  57168.5475     0.11599E+00 
  57200.8097     0.11473E+00 
  57233.0718     0.11348E+00 
  57265.3340     0.11223E+00 
  57297.5962     0.11099E+00 
  57329.8583     0.10976E+00 
  57362.1205     0.10853E+00 
  57394.3826     0.10731E+00 
  57426.6448     0.10610E+00 
  57458.9070     0.10490E+00 
  57491.1691     0.10370E+00 
  57523.4313     0.10252E+00 
  57555.6934     0.10134E+00 
  57587.9556     0.10016E+00 
  57620.2178     0.98998E-01 
  57652.4799     0.97840E-01 
  57684.7421     0.96689E-01 
  57717.0042     0.95546E-01 
  57749.2664     0.94409E-01 
  57781.5286     0.93281E-01 
  57813.7907     0.92159E-01 
  57846.0529     0.91045E-01 
  57878.3150     0.89938E-01 
  57910.5772     0.88838E-01 
  57942.8394     0.87746E-01 
  57975.1015     0.86661E-01 
  58007.3637     0.85583E-01 
  58039.6258     0.84512E-01 
  58071.8880     0.83449E-01 
  58104.1502     0.82392E-01 
  58136.4123     0.81343E-01 
  58168.6745     0.80301E-01 
  58200.9366     0.79267E-01 
  58233.1988     0.78239E-01 
  58265.4610     0.77219E-01 
  58297.7231     0.76205E-01 
  58329.9853     0.75199E-01 
  58362.2474     0.74200E-01 
  58394.5096     0.73208E-01 
  58426.7718     0.72223E-01 
  58459.0339     0.71245E-01 
  58491.2961     0.70274E-01 
  58523.5582     0.69310E-01 
  58555.8204     0.68353E-01 
  58588.0826     0.67404E-01 
  58620.3447     0.66461E-01 
  58652.6069     0.65525E-01 
  58684.8690     0.64596E-01 
  58717.1312     0.63675E-01 
  58749.3934     0.62760E-01 
  58781.6555     0.61852E-01 
  58813.9177     0.60951E-01 
  58846.1798     0.60057E-01 
  58878.4420     0.59170E-01 
  58910.7042     0.58290E-01 
  58942.9663     0.57417E-01 
  58975.2285     0.56551E-01 
  59007.4906     0.55692E-01 
  59039.7528     0.54840E-01 
  59072.0150     0.53994E-01 
  59104.2771     0.53156E-01 
  59136.5393     0.52324E-01 
  59168.8014     0.51500E-01 
  59201.0636     0.50682E-01 
  59233.3258     0.49871E-01 
  59265.5879     0.49067E-01 
  59297.8501     0.48270E-01 
  59330.1122     0.47480E-01 
  59362.3744     0.46697E-01 
  59394.6366     0.45920E-01 
  59426.8987     0.45151E-01 
  59459.1609     0.44388E-01 
  59491.4230     0.43632E-01 
  59523.6852     0.42884E-01 
  59555.9474     0.42142E-01 
  59588.2095     0.41407E-01 
  59620.4717     0.40678E-01 
  59652.7338     0.39957E-01 
  59684.9960     0.39243E-01 
  59717.2582     0.38535E-01 
  59749.5203     0.37835E-01 
  59781.7825     0.37141E-01 
  59814.0446     0.36454E-01 
  59846.3068     0.35774E-01 
  59878.5690     0.35102E-01 
  59910.8311     0.34436E-01 
  59943.0933     0.33777E-01 
  59975.3554     0.33125E-01 
  60007.6176     0.32480E-01 
  60039.8798     0.31842E-01 
  60072.1419     0.31211E-01 
  60104.4041     0.30587E-01 
  60136.6662     0.29970E-01 
  60168.9284     0.29360E-01 
  60201.1906     0.28757E-01 
  60233.4527     0.28161E-01 
  60265.7149     0.27572E-01 
  60297.9770     0.26991E-01 
  60330.2392     0.26416E-01 
  60362.5014     0.25849E-01 
  60394.7635     0.25289E-01 
  60427.0257     0.24736E-01 
  60459.2878     0.24190E-01 
  60491.5500     0.23651E-01 
  60523.8122     0.23120E-01 
  60556.0743     0.22596E-01 
  60588.3365     0.22079E-01 
  60620.5986     0.21570E-01 
  60652.8608     0.21068E-01 
  60685.1230     0.20573E-01 
  60717.3851     0.20086E-01 
  60749.6473     0.19606E-01 
  60781.9094     0.19134E-01 
  60814.1716     0.18669E-01 
  60846.4338     0.18212E-01 
  60878.6959     0.17762E-01 
  60910.9581     0.17320E-01 
  60943.2202     0.16886E-01 
  60975.4824     0.16460E-01 
  61007.7446     0.16041E-01 
  61040.0067     0.15630E-01 
  61072.2689     0.15226E-01 
  61104.5310     0.14831E-01 
  61136.7932     0.14444E-01 
  61169.0554     0.14064E-01 
  61201.3175     0.13693E-01 
  61233.5797     0.13329E-01 
  61265.8418     0.12974E-01 
  61298.1040     0.12627E-01 
  61330.3662     0.12288E-01 
  61362.6283     0.11957E-01 
  61394.8905     0.11635E-01 
  61427.1526     0.11321E-01 
  61459.4148     0.11016E-01 
  61491.6770     0.10719E-01 
  61523.9391     0.10431E-01 
  61556.2013     0.10151E-01 
  61588.4634     0.98799E-02 
  61620.7256     0.96178E-02 
  61652.9878     0.93645E-02 
  61685.2499     0.91201E-02 
  61717.5121     0.88848E-02 
  61749.7742     0.86585E-02 
  61782.0364     0.84414E-02 
  61814.2986     0.82335E-02 
  61846.5607     0.80349E-02 
  61878.8229     0.78458E-02 
  61911.0850     0.76661E-02 
  61943.3472     0.74960E-02 
  61975.6094     0.73355E-02 
  62007.8715     0.71849E-02 
  62040.1337     0.70440E-02 
  62072.3958     0.69132E-02 
  62104.6580     0.67923E-02 
  62136.9202     0.66816E-02 
  62169.1823     0.65812E-02 
  62201.4445     0.64911E-02 
  62233.7066     0.64114E-02 
  62265.9688     0.63423E-02 
  62298.2310     0.62839E-02 
  62330.4931     0.62363E-02 
  62362.7553     0.61996E-02 
  62395.0174     0.61739E-02 
  62427.2796     0.61594E-02 
  62459.5418     0.61561E-02 
  62491.8039     0.61643E-02 
  62524.0661     0.61839E-02 
  62556.3282     0.62152E-02 
  62588.5904     0.62583E-02 
  62620.8526     0.63133E-02 
  62653.1147     0.63804E-02 
  62685.3769     0.64597E-02 
  62717.6390     0.65513E-02 
  62749.9012     0.66555E-02 
  62782.1634     0.67723E-02 
  62814.4255     0.69018E-02 
  62846.6877     0.70444E-02 
  62878.9498     0.72000E-02 
  62911.2120     0.73690E-02 
  62943.4742     0.75514E-02 
  62975.7363     0.77474E-02 
  63007.9985     0.79571E-02 
  63040.2606     0.81809E-02 
  63072.5228     0.84187E-02 
  63104.7850     0.86709E-02 
  63137.0471     0.89376E-02 
  63169.3093     0.92190E-02 
  63201.5714     0.95153E-02 
  63233.8336     0.98266E-02 
  63266.0958     0.10153E-01 
  63298.3579     0.10495E-01 
  63330.6201     0.10853E-01 
  63362.8822     0.11227E-01 
  63395.1444     0.11616E-01 
  63427.4066     0.12022E-01 
  63459.6687     0.12445E-01 
  63491.9309     0.12884E-01 
  63524.1930     0.13341E-01 
  63556.4552     0.13814E-01 
  63588.7174     0.14305E-01 
  63620.9795     0.14814E-01 
  63653.2417     0.15341E-01 
  63685.5038     0.15885E-01 
  63717.7660     0.16449E-01 
  63750.0282     0.17030E-01 
  63782.2903     0.17631E-01 
  63814.5525     0.18251E-01 
  63846.8146     0.18891E-01 
  63879.0768     0.19550E-01 
  63911.3390     0.20229E-01 
  63943.6011     0.20929E-01 
  63975.8633     0.21649E-01 
  64008.1254     0.22390E-01 
  64040.3876     0.23152E-01 
  64072.6498     0.23936E-01 
  64104.9119     0.24741E-01 
  64137.1741     0.25569E-01 
  64169.4362     0.26419E-01 
  64201.6984     0.27291E-01 
  64233.9606     0.28187E-01 
  64266.2227     0.29106E-01 
  64298.4849     0.30048E-01 
  64330.7470     0.31015E-01 
  64363.0092     0.32006E-01 
  64395.2714     0.33022E-01 
  64427.5335     0.34062E-01 
  64459.7957     0.35129E-01 
  64492.0578     0.36220E-01 
  64524.3200     0.37339E-01 
  64556.5822     0.38483E-01 
  64588.8443     0.39655E-01 
  64621.1065     0.40853E-01 
  64653.3686     0.42080E-01 
  64685.6308     0.43334E-01 
  64717.8930     0.44617E-01 
  64750.1551     0.45929E-01 
  64782.4173     0.47270E-01 
  64814.6794     0.48640E-01 
  64846.9416     0.50041E-01 
  64879.2038     0.51472E-01 
  64911.4659     0.52934E-01 
  64943.7281     0.54428E-01 
  64975.9902     0.55953E-01 
  65008.2524     0.57511E-01 
  65040.5146     0.59101E-01 
  65072.7767     0.60725E-01 
  65105.0389     0.62382E-01 
  65137.3010     0.64073E-01 
  65169.5632     0.65799E-01 
  65201.8254     0.67560E-01 
  65234.0875     0.69357E-01 
  65266.3497     0.71190E-01 
  65298.6118     0.73059E-01 
  65330.8740     0.74965E-01 
  65363.1362     0.76909E-01 
  65395.3983     0.78891E-01 
  65427.6605     0.80912E-01 
  65459.9226     0.82972E-01 
  65492.1848     0.85072E-01 
  65524.4470     0.87212E-01 
  65556.7091     0.89392E-01 
  65588.9713     0.91615E-01 
  65621.2334     0.93879E-01 
  65653.4956     0.96185E-01 
  65685.7578     0.98535E-01 
  65718.0199     0.10093E+00 
  65750.2821     0.10337E+00 
  65782.5442     0.10585E+00 
  65814.8064     0.10838E+00 
  65847.0686     0.11095E+00 
  65879.3307     0.11357E+00 
  65911.5929     0.11624E+00 
  65943.8550     0.11896E+00 
  65976.1172     0.12172E+00 
  66008.3794     0.12453E+00 
  66040.6415     0.12740E+00 
  66072.9037     0.13031E+00 
  66105.1658     0.13328E+00 
  66137.4280     0.13630E+00 
  66169.6902     0.13937E+00 
  66201.9523     0.14249E+00 
  66234.2145     0.14567E+00 
  66266.4766     0.14890E+00 
  66298.7388     0.15219E+00 
  66331.0010     0.15553E+00 
  66363.2631     0.15893E+00 
  66395.5253     0.16239E+00 
  66427.7874     0.16590E+00 
  66460.0496     0.16948E+00 
  66492.3118     0.17311E+00 
  66524.5739     0.17681E+00 
  66556.8361     0.18056E+00 
  66589.0982     0.18438E+00 
  66621.3604     0.18826E+00 
  66653.6226     0.19221E+00 
  66685.8847     0.19622E+00 
  66718.1469     0.20029E+00 
  66750.4090     0.20443E+00 
  66782.6712     0.20864E+00 
  66814.9334     0.21291E+00 
  66847.1955     0.21726E+00 
  66879.4577     0.22167E+00 
  66911.7198     0.22615E+00 
  66943.9820     0.23070E+00 
  66976.2442     0.23533E+00 
  67008.5063     0.24003E+00 
  67040.7685     0.24480E+00 
  67073.0306     0.24964E+00 
  67105.2928     0.25457E+00 
  67137.5550     0.25956E+00 
  67169.8171     0.26464E+00 
  67202.0793     0.26979E+00 
  67234.3414     0.27502E+00 
  67266.6036     0.28033E+00 
  67298.8658     0.28572E+00 
  67331.1279     0.29119E+00 
  67363.3901     0.29675E+00 
  67395.6522     0.30239E+00 
  67427.9144     0.30811E+00 
  67460.1766     0.31392E+00 
  67492.4387     0.31981E+00 
  67524.7009     0.32579E+00 
  67556.9630     0.33186E+00 
  67589.2252     0.33802E+00 
  67621.4874     0.34427E+00 
  67653.7495     0.35061E+00 
  67686.0117     0.35704E+00 
  67718.2738     0.36357E+00 
  67750.5360     0.37019E+00 
  67782.7982     0.37690E+00 
  67815.0603     0.38372E+00 
  67847.3225     0.39062E+00 
  67879.5846     0.39763E+00 
  67911.8468     0.40474E+00 
  67944.1090     0.41194E+00 
  67976.3711     0.41925E+00 
  68008.6333     0.42666E+00 
  68040.8954     0.43417E+00 
  68073.1576     0.44179E+00 
  68105.4198     0.44951E+00 
  68137.6819     0.45734E+00 
  68169.9441     0.46528E+00 
  68202.2062     0.47332E+00 
  68234.4684     0.48148E+00 
  68266.7306     0.48974E+00 
  68298.9927     0.49812E+00 
  68331.2549     0.50661E+00 
  68363.5170     0.51522E+00 
  68395.7792     0.52394E+00 
  68428.0414     0.53277E+00 
  68460.3035     0.54173E+00 
  68492.5657     0.55080E+00 
  68524.8278     0.55999E+00 
  68557.0900     0.56930E+00 
  68589.3522     0.57874E+00 
  68621.6143     0.58830E+00 
  68653.8765     0.59798E+00 
  68686.1386     0.60778E+00 
  68718.4008     0.61772E+00 
  68750.6630     0.62778E+00 
  68782.9251     0.63797E+00 
  68815.1873     0.64829E+00 
  68847.4494     0.65874E+00 
  68879.7116     0.66932E+00 
  68911.9738     0.68004E+00 
  68944.2359     0.69089E+00 
  68976.4981     0.70187E+00 
  69008.7602     0.71299E+00 
  69041.0224     0.72425E+00 
  69073.2846     0.73565E+00 
  69105.5467     0.74719E+00 
  69137.8089     0.75887E+00 
  69170.0710     0.77069E+00 
  69202.3332     0.78266E+00 
  69234.5954     0.79477E+00 
  69266.8575     0.80702E+00 
  69299.1197     0.81943E+00 
  69331.3818     0.83198E+00 
  69363.6440     0.84468E+00 
  69395.9062     0.85753E+00 
  69428.1683     0.87053E+00 
  69460.4305     0.88369E+00 
  69492.6926     0.89700E+00 
  69524.9548     0.91046E+00 
  69557.2170     0.92408E+00 
  69589.4791     0.93786E+00 
  69621.7413     0.95180E+00 
  69654.0034     0.96590E+00 
  69686.2656     0.98015E+00 
  69718.5278     0.99457E+00 
  69750.7899     0.10092E+01 
  69783.0521     0.10239E+01 
  69815.3142     0.10388E+01 
  69847.5764     0.10539E+01 
  69879.8386     0.10691E+01 
  69912.1007     0.10845E+01 
  69944.3629     0.11001E+01 
  69976.6250     0.11159E+01 
  70008.8872     0.11318E+01 
  70041.1494     0.11479E+01 
  70073.4115     0.11642E+01 
  70105.6737     0.11806E+01 
  70137.9358     0.11973E+01 
  70170.1980     0.12141E+01 
  70202.4602     0.12310E+01 
  70234.7223     0.12482E+01 
  70266.9845     0.12655E+01 
  70299.2466     0.12831E+01 
  70331.5088     0.13008E+01 
  70363.7710     0.13187E+01 
  70396.0331     0.13367E+01 
  70428.2953     0.13550E+01 
  70460.5574     0.13734E+01 
  70492.8196     0.13921E+01 
  70525.0818     0.14109E+01 
  70557.3439     0.14299E+01 
  70589.6061     0.14491E+01 
  70621.8682     0.14685E+01 
  70654.1304     0.14881E+01 
  70686.3926     0.15079E+01 
  70718.6547     0.15279E+01 
  70750.9169     0.15480E+01 
  70783.1790     0.15684E+01 
  70815.4412     0.15890E+01 
  70847.7034     0.16097E+01 
  70879.9655     0.16307E+01 
  70912.2277     0.16519E+01 
  70944.4898     0.16732E+01 
  70976.7520     0.16948E+01 
  71009.0142     0.17166E+01 
  71041.2763     0.17386E+01 
  71073.5385     0.17607E+01 
  71105.8006     0.17831E+01 
  71138.0628     0.18057E+01 
  71170.3250     0.18285E+01 
  71202.5871     0.18515E+01 
  71234.8493     0.18747E+01 
  71267.1114     0.18981E+01 
  71299.3736     0.19218E+01 
  71331.6358     0.19456E+01 
  71363.8979     0.19697E+01 
  71396.1601     0.19939E+01 
  71428.4222     0.20184E+01 
  71460.6844     0.20431E+01 
  71492.9466     0.20680E+01 
  71525.2087     0.20931E+01 
  71557.4709     0.21185E+01 
  71589.7330     0.21440E+01 
  71621.9952     0.21698E+01 
  71654.2574     0.21958E+01 
  71686.5195     0.22220E+01 
  71718.7817     0.22484E+01 
  71751.0438     0.22751E+01 
  71783.3060     0.23019E+01 
  71815.5682     0.23290E+01 
  71847.8303     0.23563E+01 
  71880.0925     0.23838E+01 
  71912.3546     0.24116E+01 
  71944.6168     0.24395E+01 
  71976.8790     0.24677E+01 
  72009.1411     0.24961E+01 
  72041.4033     0.25248E+01 
  72073.6654     0.25536E+01 
  72105.9276     0.25827E+01 
  72138.1898     0.26120E+01 
  72170.4519     0.26415E+01 
  72202.7141     0.26713E+01 
  72234.9762     0.27012E+01 
  72267.2384     0.27314E+01 
  72299.5006     0.27618E+01 
  72331.7627     0.27925E+01 
  72364.0249     0.28234E+01 
  72396.2870     0.28545E+01 
  72428.5492     0.28858E+01 
  72460.8114     0.29173E+01 
  72493.0735     0.29491E+01 
  72525.3357     0.29811E+01 
  72557.5978     0.30133E+01 
  72589.8600     0.30458E+01 
