  32262.1600     0.66528E+00 
  32294.4222     0.67024E+00 
  32326.6843     0.67523E+00 
  32358.9465     0.68024E+00 
  32391.2086     0.68527E+00 
  32423.4708     0.69032E+00 
  32455.7330     0.69539E+00 
  32487.9951     0.70048E+00 
  32520.2573     0.70560E+00 
  32552.5194     0.71073E+00 
  32584.7816     0.71589E+00 
  32617.0438     0.72107E+00 
  32649.3059     0.72627E+00 
  32681.5681     0.73149E+00 
  32713.8302     0.73673E+00 
  32746.0924     0.74199E+00 
  32778.3546     0.74727E+00 
  32810.6167     0.75257E+00 
  32842.8789     0.75789E+00 
  32875.1410     0.76324E+00 
  32907.4032     0.76860E+00 
  32939.6654     0.77398E+00 
  32971.9275     0.77939E+00 
  33004.1897     0.78481E+00 
  33036.4518     0.79026E+00 
  33068.7140     0.79572E+00 
  33100.9762     0.80121E+00 
  33133.2383     0.80671E+00 
  33165.5005     0.81223E+00 
  33197.7626     0.81778E+00 
  33230.0248     0.82334E+00 
  33262.2870     0.82892E+00 
  33294.5491     0.83452E+00 
  33326.8113     0.84014E+00 
  33359.0734     0.84579E+00 
  33391.3356     0.85145E+00 
  33423.5978     0.85712E+00 
  33455.8599     0.86282E+00 
  33488.1221     0.86854E+00 
  33520.3842     0.87427E+00 
  33552.6464     0.88003E+00 
  33584.9086     0.88580E+00 
  33617.1707     0.89159E+00 
  33649.4329     0.89740E+00 
  33681.6950     0.90323E+00 
  33713.9572     0.90907E+00 
  33746.2194     0.91494E+00 
  33778.4815     0.92082E+00 
  33810.7437     0.92672E+00 
  33843.0058     0.93264E+00 
  33875.2680     0.93857E+00 
  33907.5302     0.94452E+00 
  33939.7923     0.95049E+00 
  33972.0545     0.95648E+00 
  34004.3166     0.96249E+00 
  34036.5788     0.96851E+00 
  34068.8410     0.97454E+00 
  34101.1031     0.98060E+00 
  34133.3653     0.98667E+00 
  34165.6274     0.99276E+00 
  34197.8896     0.99886E+00 
  34230.1518     0.10050E+01 
  34262.4139     0.10111E+01 
  34294.6761     0.10173E+01 
  34326.9382     0.10234E+01 
  34359.2004     0.10296E+01 
  34391.4626     0.10358E+01 
  34423.7247     0.10420E+01 
  34455.9869     0.10483E+01 
  34488.2490     0.10545E+01 
  34520.5112     0.10608E+01 
  34552.7734     0.10671E+01 
  34585.0355     0.10734E+01 
  34617.2977     0.10797E+01 
  34649.5598     0.10860E+01 
  34681.8220     0.10923E+01 
  34714.0842     0.10987E+01 
  34746.3463     0.11050E+01 
  34778.6085     0.11114E+01 
  34810.8706     0.11178E+01 
  34843.1328     0.11242E+01 
  34875.3950     0.11306E+01 
  34907.6571     0.11370E+01 
  34939.9193     0.11435E+01 
  34972.1814     0.11499E+01 
  35004.4436     0.11564E+01 
  35036.7058     0.11629E+01 
  35068.9679     0.11694E+01 
  35101.2301     0.11759E+01 
  35133.4922     0.11824E+01 
  35165.7544     0.11890E+01 
  35198.0166     0.11955E+01 
  35230.2787     0.12021E+01 
  35262.5409     0.12086E+01 
  35294.8030     0.12152E+01 
  35327.0652     0.12218E+01 
  35359.3274     0.12284E+01 
  35391.5895     0.12350E+01 
  35423.8517     0.12416E+01 
  35456.1138     0.12483E+01 
  35488.3760     0.12549E+01 
  35520.6382     0.12616E+01 
  35552.9003     0.12682E+01 
  35585.1625     0.12749E+01 
  35617.4246     0.12816E+01 
  35649.6868     0.12883E+01 
  35681.9490     0.12950E+01 
  35714.2111     0.13017E+01 
  35746.4733     0.13084E+01 
  35778.7354     0.13151E+01 
  35810.9976     0.13219E+01 
  35843.2598     0.13286E+01 
  35875.5219     0.13354E+01 
  35907.7841     0.13421E+01 
  35940.0462     0.13489E+01 
  35972.3084     0.13557E+01 
  36004.5706     0.13624E+01 
  36036.8327     0.13692E+01 
  36069.0949     0.13760E+01 
  36101.3570     0.13828E+01 
  36133.6192     0.13896E+01 
  36165.8814     0.13965E+01 
  36198.1435     0.14033E+01 
  36230.4057     0.14101E+01 
  36262.6678     0.14169E+01 
  36294.9300     0.14238E+01 
  36327.1922     0.14306E+01 
  36359.4543     0.14375E+01 
  36391.7165     0.14443E+01 
  36423.9786     0.14512E+01 
  36456.2408     0.14581E+01 
  36488.5030     0.14649E+01 
  36520.7651     0.14718E+01 
  36553.0273     0.14787E+01 
  36585.2894     0.14856E+01 
  36617.5516     0.14924E+01 
  36649.8138     0.14993E+01 
  36682.0759     0.15062E+01 
  36714.3381     0.15131E+01 
  36746.6002     0.15200E+01 
  36778.8624     0.15269E+01 
  36811.1246     0.15338E+01 
  36843.3867     0.15407E+01 
  36875.6489     0.15476E+01 
  36907.9110     0.15545E+01 
  36940.1732     0.15614E+01 
  36972.4354     0.15683E+01 
  37004.6975     0.15752E+01 
  37036.9597     0.15822E+01 
  37069.2218     0.15891E+01 
  37101.4840     0.15960E+01 
  37133.7462     0.16029E+01 
  37166.0083     0.16098E+01 
  37198.2705     0.16167E+01 
  37230.5326     0.16236E+01 
  37262.7948     0.16305E+01 
  37295.0570     0.16374E+01 
  37327.3191     0.16443E+01 
  37359.5813     0.16512E+01 
  37391.8434     0.16582E+01 
  37424.1056     0.16651E+01 
  37456.3678     0.16720E+01 
  37488.6299     0.16788E+01 
  37520.8921     0.16857E+01 
  37553.1542     0.16926E+01 
  37585.4164     0.16995E+01 
  37617.6786     0.17064E+01 
  37649.9407     0.17133E+01 
  37682.2029     0.17202E+01 
  37714.4650     0.17270E+01 
  37746.7272     0.17339E+01 
  37778.9894     0.17408E+01 
  37811.2515     0.17476E+01 
  37843.5137     0.17545E+01 
  37875.7758     0.17613E+01 
  37908.0380     0.17682E+01 
  37940.3002     0.17750E+01 
  37972.5623     0.17818E+01 
  38004.8245     0.17887E+01 
  38037.0866     0.17955E+01 
  38069.3488     0.18023E+01 
  38101.6110     0.18091E+01 
  38133.8731     0.18159E+01 
  38166.1353     0.18227E+01 
  38198.3974     0.18295E+01 
  38230.6596     0.18363E+01 
  38262.9218     0.18430E+01 
  38295.1839     0.18498E+01 
  38327.4461     0.18565E+01 
  38359.7082     0.18633E+01 
  38391.9704     0.18700E+01 
  38424.2326     0.18767E+01 
  38456.4947     0.18835E+01 
  38488.7569     0.18902E+01 
  38521.0190     0.18969E+01 
  38553.2812     0.19036E+01 
  38585.5434     0.19102E+01 
  38617.8055     0.19169E+01 
  38650.0677     0.19235E+01 
  38682.3298     0.19302E+01 
  38714.5920     0.19368E+01 
  38746.8542     0.19434E+01 
  38779.1163     0.19501E+01 
  38811.3785     0.19566E+01 
  38843.6406     0.19632E+01 
  38875.9028     0.19698E+01 
  38908.1650     0.19764E+01 
  38940.4271     0.19829E+01 
  38972.6893     0.19894E+01 
  39004.9514     0.19960E+01 
  39037.2136     0.20025E+01 
  39069.4758     0.20090E+01 
  39101.7379     0.20154E+01 
  39134.0001     0.20219E+01 
  39166.2622     0.20283E+01 
  39198.5244     0.20348E+01 
  39230.7866     0.20412E+01 
  39263.0487     0.20476E+01 
  39295.3109     0.20540E+01 
  39327.5730     0.20604E+01 
  39359.8352     0.20667E+01 
  39392.0974     0.20731E+01 
  39424.3595     0.20794E+01 
  39456.6217     0.20857E+01 
  39488.8838     0.20920E+01 
  39521.1460     0.20983E+01 
  39553.4082     0.21045E+01 
  39585.6703     0.21108E+01 
  39617.9325     0.21170E+01 
  39650.1946     0.21232E+01 
  39682.4568     0.21294E+01 
  39714.7190     0.21355E+01 
  39746.9811     0.21417E+01 
  39779.2433     0.21478E+01 
  39811.5054     0.21539E+01 
  39843.7676     0.21600E+01 
  39876.0298     0.21661E+01 
  39908.2919     0.21721E+01 
  39940.5541     0.21782E+01 
  39972.8162     0.21842E+01 
  40005.0784     0.21902E+01 
  40037.3406     0.21961E+01 
  40069.6027     0.22021E+01 
  40101.8649     0.22080E+01 
  40134.1270     0.22139E+01 
  40166.3892     0.22198E+01 
  40198.6514     0.22257E+01 
  40230.9135     0.22315E+01 
  40263.1757     0.22373E+01 
  40295.4378     0.22431E+01 
  40327.7000     0.22489E+01 
  40359.9622     0.22546E+01 
  40392.2243     0.22604E+01 
  40424.4865     0.22661E+01 
  40456.7486     0.22717E+01 
  40489.0108     0.22774E+01 
  40521.2730     0.22830E+01 
  40553.5351     0.22886E+01 
  40585.7973     0.22942E+01 
  40618.0594     0.22998E+01 
  40650.3216     0.23053E+01 
  40682.5838     0.23108E+01 
  40714.8459     0.23163E+01 
  40747.1081     0.23218E+01 
  40779.3702     0.23272E+01 
  40811.6324     0.23326E+01 
  40843.8946     0.23380E+01 
  40876.1567     0.23433E+01 
  40908.4189     0.23487E+01 
  40940.6810     0.23540E+01 
  40972.9432     0.23592E+01 
  41005.2054     0.23645E+01 
  41037.4675     0.23697E+01 
  41069.7297     0.23749E+01 
  41101.9918     0.23801E+01 
  41134.2540     0.23852E+01 
  41166.5162     0.23903E+01 
  41198.7783     0.23954E+01 
  41231.0405     0.24005E+01 
  41263.3026     0.24055E+01 
  41295.5648     0.24105E+01 
  41327.8270     0.24155E+01 
  41360.0891     0.24204E+01 
  41392.3513     0.24253E+01 
  41424.6134     0.24302E+01 
  41456.8756     0.24350E+01 
  41489.1378     0.24399E+01 
  41521.3999     0.24446E+01 
  41553.6621     0.24494E+01 
  41585.9242     0.24541E+01 
  41618.1864     0.24588E+01 
  41650.4486     0.24635E+01 
  41682.7107     0.24681E+01 
  41714.9729     0.24727E+01 
  41747.2350     0.24773E+01 
  41779.4972     0.24819E+01 
  41811.7594     0.24864E+01 
  41844.0215     0.24909E+01 
  41876.2837     0.24953E+01 
  41908.5458     0.24997E+01 
  41940.8080     0.25041E+01 
  41973.0702     0.25085E+01 
  42005.3323     0.25128E+01 
  42037.5945     0.25171E+01 
  42069.8566     0.25213E+01 
  42102.1188     0.25256E+01 
  42134.3810     0.25297E+01 
  42166.6431     0.25339E+01 
  42198.9053     0.25380E+01 
  42231.1674     0.25421E+01 
  42263.4296     0.25462E+01 
  42295.6918     0.25502E+01 
  42327.9539     0.25542E+01 
  42360.2161     0.25581E+01 
  42392.4782     0.25620E+01 
  42424.7404     0.25659E+01 
  42457.0026     0.25698E+01 
  42489.2647     0.25736E+01 
  42521.5269     0.25774E+01 
  42553.7890     0.25811E+01 
  42586.0512     0.25848E+01 
  42618.3134     0.25885E+01 
  42650.5755     0.25921E+01 
  42682.8377     0.25957E+01 
  42715.0998     0.25993E+01 
  42747.3620     0.26028E+01 
  42779.6242     0.26063E+01 
  42811.8863     0.26098E+01 
  42844.1485     0.26132E+01 
  42876.4106     0.26166E+01 
  42908.6728     0.26199E+01 
  42940.9350     0.26233E+01 
  42973.1971     0.26265E+01 
  43005.4593     0.26298E+01 
  43037.7214     0.26330E+01 
  43069.9836     0.26361E+01 
  43102.2458     0.26393E+01 
  43134.5079     0.26424E+01 
  43166.7701     0.26454E+01 
  43199.0322     0.26484E+01 
  43231.2944     0.26514E+01 
  43263.5566     0.26544E+01 
  43295.8187     0.26573E+01 
  43328.0809     0.26601E+01 
  43360.3430     0.26630E+01 
  43392.6052     0.26657E+01 
  43424.8674     0.26685E+01 
  43457.1295     0.26712E+01 
  43489.3917     0.26739E+01 
  43521.6538     0.26765E+01 
  43553.9160     0.26791E+01 
  43586.1782     0.26817E+01 
  43618.4403     0.26842E+01 
  43650.7025     0.26867E+01 
  43682.9646     0.26891E+01 
  43715.2268     0.26915E+01 
  43747.4890     0.26939E+01 
  43779.7511     0.26962E+01 
  43812.0133     0.26985E+01 
  43844.2754     0.27007E+01 
  43876.5376     0.27030E+01 
  43908.7998     0.27051E+01 
  43941.0619     0.27073E+01 
  43973.3241     0.27093E+01 
  44005.5862     0.27114E+01 
  44037.8484     0.27134E+01 
  44070.1106     0.27154E+01 
  44102.3727     0.27173E+01 
  44134.6349     0.27192E+01 
  44166.8970     0.27210E+01 
  44199.1592     0.27228E+01 
  44231.4214     0.27246E+01 
  44263.6835     0.27263E+01 
  44295.9457     0.27280E+01 
  44328.2078     0.27297E+01 
  44360.4700     0.27313E+01 
  44392.7322     0.27329E+01 
  44424.9943     0.27344E+01 
  44457.2565     0.27359E+01 
  44489.5186     0.27373E+01 
  44521.7808     0.27387E+01 
  44554.0430     0.27401E+01 
  44586.3051     0.27414E+01 
  44618.5673     0.27427E+01 
  44650.8294     0.27440E+01 
  44683.0916     0.27452E+01 
  44715.3538     0.27463E+01 
  44747.6159     0.27474E+01 
  44779.8781     0.27485E+01 
  44812.1402     0.27496E+01 
  44844.4024     0.27506E+01 
  44876.6646     0.27515E+01 
  44908.9267     0.27524E+01 
  44941.1889     0.27533E+01 
  44973.4510     0.27542E+01 
  45005.7132     0.27550E+01 
  45037.9754     0.27557E+01 
  45070.2375     0.27564E+01 
  45102.4997     0.27571E+01 
  45134.7618     0.27577E+01 
  45167.0240     0.27583E+01 
  45199.2862     0.27589E+01 
  45231.5483     0.27594E+01 
  45263.8105     0.27598E+01 
  45296.0726     0.27603E+01 
  45328.3348     0.27607E+01 
  45360.5970     0.27610E+01 
  45392.8591     0.27613E+01 
  45425.1213     0.27616E+01 
  45457.3834     0.27618E+01 
  45489.6456     0.27620E+01 
  45521.9078     0.27621E+01 
  45554.1699     0.27622E+01 
  45586.4321     0.27623E+01 
  45618.6942     0.27623E+01 
  45650.9564     0.27622E+01 
  45683.2186     0.27622E+01 
  45715.4807     0.27621E+01 
  45747.7429     0.27619E+01 
  45780.0050     0.27617E+01 
  45812.2672     0.27615E+01 
  45844.5294     0.27612E+01 
  45876.7915     0.27609E+01 
  45909.0537     0.27606E+01 
  45941.3158     0.27602E+01 
  45973.5780     0.27598E+01 
  46005.8402     0.27593E+01 
  46038.1023     0.27588E+01 
  46070.3645     0.27582E+01 
  46102.6266     0.27576E+01 
  46134.8888     0.27570E+01 
  46167.1510     0.27563E+01 
  46199.4131     0.27556E+01 
  46231.6753     0.27548E+01 
  46263.9374     0.27540E+01 
  46296.1996     0.27532E+01 
  46328.4618     0.27523E+01 
  46360.7239     0.27514E+01 
  46392.9861     0.27504E+01 
  46425.2482     0.27494E+01 
  46457.5104     0.27484E+01 
  46489.7726     0.27473E+01 
  46522.0347     0.27462E+01 
  46554.2969     0.27450E+01 
  46586.5590     0.27438E+01 
  46618.8212     0.27426E+01 
  46651.0834     0.27413E+01 
  46683.3455     0.27400E+01 
  46715.6077     0.27386E+01 
  46747.8698     0.27372E+01 
  46780.1320     0.27358E+01 
  46812.3942     0.27343E+01 
  46844.6563     0.27328E+01 
  46876.9185     0.27313E+01 
  46909.1806     0.27297E+01 
  46941.4428     0.27280E+01 
  46973.7050     0.27264E+01 
  47005.9671     0.27246E+01 
  47038.2293     0.27229E+01 
  47070.4914     0.27211E+01 
  47102.7536     0.27193E+01 
  47135.0158     0.27174E+01 
  47167.2779     0.27155E+01 
  47199.5401     0.27136E+01 
  47231.8022     0.27116E+01 
  47264.0644     0.27096E+01 
  47296.3266     0.27075E+01 
  47328.5887     0.27054E+01 
  47360.8509     0.27033E+01 
  47393.1130     0.27011E+01 
  47425.3752     0.26989E+01 
  47457.6374     0.26966E+01 
  47489.8995     0.26944E+01 
  47522.1617     0.26920E+01 
  47554.4238     0.26897E+01 
  47586.6860     0.26873E+01 
  47618.9482     0.26848E+01 
  47651.2103     0.26824E+01 
  47683.4725     0.26798E+01 
  47715.7346     0.26773E+01 
  47747.9968     0.26747E+01 
  47780.2590     0.26721E+01 
  47812.5211     0.26694E+01 
  47844.7833     0.26667E+01 
  47877.0454     0.26640E+01 
  47909.3076     0.26612E+01 
  47941.5698     0.26584E+01 
  47973.8319     0.26556E+01 
  48006.0941     0.26527E+01 
  48038.3562     0.26498E+01 
  48070.6184     0.26469E+01 
  48102.8806     0.26439E+01 
  48135.1427     0.26409E+01 
  48167.4049     0.26378E+01 
  48199.6670     0.26347E+01 
  48231.9292     0.26316E+01 
  48264.1914     0.26284E+01 
  48296.4535     0.26253E+01 
  48328.7157     0.26220E+01 
  48360.9778     0.26188E+01 
  48393.2400     0.26155E+01 
  48425.5022     0.26121E+01 
  48457.7643     0.26088E+01 
  48490.0265     0.26054E+01 
  48522.2886     0.26019E+01 
  48554.5508     0.25985E+01 
  48586.8130     0.25950E+01 
  48619.0751     0.25914E+01 
  48651.3373     0.25879E+01 
  48683.5994     0.25842E+01 
  48715.8616     0.25806E+01 
  48748.1238     0.25769E+01 
  48780.3859     0.25732E+01 
  48812.6481     0.25695E+01 
  48844.9102     0.25657E+01 
  48877.1724     0.25619E+01 
  48909.4346     0.25581E+01 
  48941.6967     0.25542E+01 
  48973.9589     0.25503E+01 
  49006.2210     0.25464E+01 
  49038.4832     0.25425E+01 
  49070.7454     0.25385E+01 
  49103.0075     0.25344E+01 
  49135.2697     0.25304E+01 
  49167.5318     0.25263E+01 
  49199.7940     0.25222E+01 
  49232.0562     0.25180E+01 
  49264.3183     0.25139E+01 
  49296.5805     0.25096E+01 
  49328.8426     0.25054E+01 
  49361.1048     0.25011E+01 
  49393.3670     0.24968E+01 
  49425.6291     0.24925E+01 
  49457.8913     0.24881E+01 
  49490.1534     0.24838E+01 
  49522.4156     0.24793E+01 
  49554.6778     0.24749E+01 
  49586.9399     0.24704E+01 
  49619.2021     0.24659E+01 
  49651.4642     0.24614E+01 
  49683.7264     0.24568E+01 
  49715.9886     0.24522E+01 
  49748.2507     0.24476E+01 
  49780.5129     0.24429E+01 
  49812.7750     0.24383E+01 
  49845.0372     0.24335E+01 
  49877.2994     0.24288E+01 
  49909.5615     0.24241E+01 
  49941.8237     0.24193E+01 
  49974.0858     0.24144E+01 
  50006.3480     0.24096E+01 
  50038.6102     0.24047E+01 
  50070.8723     0.23998E+01 
  50103.1345     0.23949E+01 
  50135.3966     0.23900E+01 
  50167.6588     0.23850E+01 
  50199.9210     0.23800E+01 
  50232.1831     0.23750E+01 
  50264.4453     0.23699E+01 
  50296.7074     0.23648E+01 
  50328.9696     0.23597E+01 
  50361.2318     0.23546E+01 
  50393.4939     0.23494E+01 
  50425.7561     0.23443E+01 
  50458.0182     0.23391E+01 
  50490.2804     0.23338E+01 
  50522.5426     0.23286E+01 
  50554.8047     0.23233E+01 
  50587.0669     0.23180E+01 
  50619.3290     0.23127E+01 
  50651.5912     0.23073E+01 
  50683.8534     0.23020E+01 
  50716.1155     0.22966E+01 
  50748.3777     0.22911E+01 
  50780.6398     0.22857E+01 
  50812.9020     0.22802E+01 
  50845.1642     0.22747E+01 
  50877.4263     0.22692E+01 
  50909.6885     0.22637E+01 
  50941.9506     0.22582E+01 
  50974.2128     0.22526E+01 
  51006.4750     0.22470E+01 
  51038.7371     0.22414E+01 
  51070.9993     0.22357E+01 
  51103.2614     0.22301E+01 
  51135.5236     0.22244E+01 
  51167.7858     0.22187E+01 
  51200.0479     0.22130E+01 
  51232.3101     0.22072E+01 
  51264.5722     0.22015E+01 
  51296.8344     0.21957E+01 
  51329.0966     0.21899E+01 
  51361.3587     0.21841E+01 
  51393.6209     0.21782E+01 
  51425.8830     0.21724E+01 
  51458.1452     0.21665E+01 
  51490.4074     0.21606E+01 
  51522.6695     0.21547E+01 
  51554.9317     0.21487E+01 
  51587.1938     0.21428E+01 
  51619.4560     0.21368E+01 
  51651.7182     0.21308E+01 
  51683.9803     0.21248E+01 
  51716.2425     0.21188E+01 
  51748.5046     0.21127E+01 
  51780.7668     0.21067E+01 
  51813.0290     0.21006E+01 
  51845.2911     0.20945E+01 
  51877.5533     0.20884E+01 
  51909.8154     0.20823E+01 
  51942.0776     0.20761E+01 
  51974.3398     0.20700E+01 
  52006.6019     0.20638E+01 
  52038.8641     0.20576E+01 
  52071.1262     0.20514E+01 
  52103.3884     0.20452E+01 
  52135.6506     0.20390E+01 
  52167.9127     0.20327E+01 
  52200.1749     0.20265E+01 
  52232.4370     0.20202E+01 
  52264.6992     0.20139E+01 
  52296.9614     0.20076E+01 
  52329.2235     0.20013E+01 
  52361.4857     0.19949E+01 
  52393.7478     0.19886E+01 
  52426.0100     0.19822E+01 
  52458.2722     0.19758E+01 
  52490.5343     0.19695E+01 
  52522.7965     0.19631E+01 
  52555.0586     0.19567E+01 
  52587.3208     0.19502E+01 
  52619.5830     0.19438E+01 
  52651.8451     0.19374E+01 
  52684.1073     0.19309E+01 
  52716.3694     0.19244E+01 
  52748.6316     0.19179E+01 
  52780.8938     0.19115E+01 
  52813.1559     0.19050E+01 
  52845.4181     0.18984E+01 
  52877.6802     0.18919E+01 
  52909.9424     0.18854E+01 
  52942.2046     0.18788E+01 
  52974.4667     0.18723E+01 
  53006.7289     0.18657E+01 
  53038.9910     0.18592E+01 
  53071.2532     0.18526E+01 
  53103.5154     0.18460E+01 
  53135.7775     0.18394E+01 
  53168.0397     0.18328E+01 
  53200.3018     0.18262E+01 
  53232.5640     0.18196E+01 
  53264.8262     0.18129E+01 
  53297.0883     0.18063E+01 
  53329.3505     0.17996E+01 
  53361.6126     0.17930E+01 
  53393.8748     0.17863E+01 
  53426.1370     0.17797E+01 
  53458.3991     0.17730E+01 
  53490.6613     0.17663E+01 
  53522.9234     0.17596E+01 
  53555.1856     0.17529E+01 
  53587.4478     0.17462E+01 
  53619.7099     0.17395E+01 
  53651.9721     0.17328E+01 
  53684.2342     0.17261E+01 
  53716.4964     0.17194E+01 
  53748.7586     0.17127E+01 
  53781.0207     0.17060E+01 
  53813.2829     0.16992E+01 
  53845.5450     0.16925E+01 
  53877.8072     0.16858E+01 
  53910.0694     0.16790E+01 
  53942.3315     0.16723E+01 
  53974.5937     0.16655E+01 
  54006.8558     0.16588E+01 
  54039.1180     0.16520E+01 
  54071.3802     0.16453E+01 
  54103.6423     0.16385E+01 
  54135.9045     0.16317E+01 
  54168.1666     0.16250E+01 
  54200.4288     0.16182E+01 
  54232.6910     0.16115E+01 
  54264.9531     0.16047E+01 
  54297.2153     0.15979E+01 
  54329.4774     0.15912E+01 
  54361.7396     0.15844E+01 
  54394.0018     0.15776E+01 
  54426.2639     0.15709E+01 
  54458.5261     0.15641E+01 
  54490.7882     0.15573E+01 
  54523.0504     0.15505E+01 
  54555.3126     0.15438E+01 
  54587.5747     0.15370E+01 
  54619.8369     0.15303E+01 
  54652.0990     0.15235E+01 
  54684.3612     0.15167E+01 
  54716.6234     0.15100E+01 
  54748.8855     0.15032E+01 
  54781.1477     0.14965E+01 
  54813.4098     0.14897E+01 
  54845.6720     0.14830E+01 
  54877.9342     0.14762E+01 
  54910.1963     0.14695E+01 
  54942.4585     0.14628E+01 
  54974.7206     0.14560E+01 
  55006.9828     0.14493E+01 
  55039.2450     0.14426E+01 
  55071.5071     0.14359E+01 
  55103.7693     0.14291E+01 
  55136.0314     0.14224E+01 
  55168.2936     0.14157E+01 
  55200.5558     0.14090E+01 
  55232.8179     0.14023E+01 
  55265.0801     0.13957E+01 
  55297.3422     0.13890E+01 
  55329.6044     0.13823E+01 
  55361.8666     0.13756E+01 
  55394.1287     0.13690E+01 
  55426.3909     0.13623E+01 
  55458.6530     0.13557E+01 
  55490.9152     0.13491E+01 
  55523.1774     0.13424E+01 
  55555.4395     0.13358E+01 
  55587.7017     0.13292E+01 
  55619.9638     0.13226E+01 
  55652.2260     0.13160E+01 
  55684.4882     0.13094E+01 
  55716.7503     0.13029E+01 
  55749.0125     0.12963E+01 
  55781.2746     0.12898E+01 
  55813.5368     0.12832E+01 
  55845.7990     0.12767E+01 
  55878.0611     0.12702E+01 
  55910.3233     0.12637E+01 
  55942.5854     0.12572E+01 
  55974.8476     0.12507E+01 
  56007.1098     0.12442E+01 
  56039.3719     0.12378E+01 
  56071.6341     0.12313E+01 
  56103.8962     0.12249E+01 
  56136.1584     0.12185E+01 
  56168.4206     0.12121E+01 
  56200.6827     0.12057E+01 
  56232.9449     0.11993E+01 
  56265.2070     0.11929E+01 
  56297.4692     0.11866E+01 
  56329.7314     0.11803E+01 
  56361.9935     0.11740E+01 
  56394.2557     0.11677E+01 
  56426.5178     0.11614E+01 
  56458.7800     0.11551E+01 
  56491.0422     0.11489E+01 
  56523.3043     0.11426E+01 
  56555.5665     0.11364E+01 
  56587.8286     0.11302E+01 
  56620.0908     0.11240E+01 
  56652.3530     0.11179E+01 
  56684.6151     0.11117E+01 
  56716.8773     0.11056E+01 
  56749.1394     0.10995E+01 
  56781.4016     0.10934E+01 
  56813.6638     0.10874E+01 
  56845.9259     0.10813E+01 
  56878.1881     0.10753E+01 
  56910.4502     0.10693E+01 
  56942.7124     0.10633E+01 
  56974.9746     0.10573E+01 
  57007.2367     0.10514E+01 
  57039.4989     0.10455E+01 
  57071.7610     0.10396E+01 
  57104.0232     0.10337E+01 
  57136.2854     0.10279E+01 
  57168.5475     0.10220E+01 
  57200.8097     0.10162E+01 
  57233.0718     0.10105E+01 
  57265.3340     0.10047E+01 
  57297.5962     0.99899E+00 
  57329.8583     0.99329E+00 
  57362.1205     0.98761E+00 
  57394.3826     0.98196E+00 
  57426.6448     0.97634E+00 
  57458.9070     0.97074E+00 
  57491.1691     0.96517E+00 
  57523.4313     0.95963E+00 
  57555.6934     0.95412E+00 
  57587.9556     0.94863E+00 
  57620.2178     0.94317E+00 
  57652.4799     0.93775E+00 
  57684.7421     0.93235E+00 
  57717.0042     0.92698E+00 
  57749.2664     0.92164E+00 
  57781.5286     0.91633E+00 
  57813.7907     0.91106E+00 
  57846.0529     0.90581E+00 
  57878.3150     0.90060E+00 
  57910.5772     0.89542E+00 
  57942.8394     0.89027E+00 
  57975.1015     0.88515E+00 
  58007.3637     0.88007E+00 
  58039.6258     0.87502E+00 
  58071.8880     0.87001E+00 
  58104.1502     0.86503E+00 
  58136.4123     0.86008E+00 
  58168.6745     0.85518E+00 
  58200.9366     0.85030E+00 
  58233.1988     0.84547E+00 
  58265.4610     0.84067E+00 
  58297.7231     0.83591E+00 
  58329.9853     0.83118E+00 
  58362.2474     0.82649E+00 
  58394.5096     0.82185E+00 
  58426.7718     0.81724E+00 
  58459.0339     0.81267E+00 
  58491.2961     0.80814E+00 
  58523.5582     0.80365E+00 
  58555.8204     0.79921E+00 
  58588.0826     0.79480E+00 
  58620.3447     0.79044E+00 
  58652.6069     0.78612E+00 
  58684.8690     0.78184E+00 
  58717.1312     0.77760E+00 
  58749.3934     0.77341E+00 
  58781.6555     0.76927E+00 
  58813.9177     0.76516E+00 
  58846.1798     0.76111E+00 
  58878.4420     0.75710E+00 
  58910.7042     0.75313E+00 
  58942.9663     0.74921E+00 
  58975.2285     0.74534E+00 
  59007.4906     0.74152E+00 
  59039.7528     0.73775E+00 
  59072.0150     0.73402E+00 
  59104.2771     0.73035E+00 
  59136.5393     0.72672E+00 
  59168.8014     0.72315E+00 
  59201.0636     0.71963E+00 
  59233.3258     0.71615E+00 
  59265.5879     0.71273E+00 
  59297.8501     0.70937E+00 
  59330.1122     0.70605E+00 
  59362.3744     0.70279E+00 
  59394.6366     0.69959E+00 
  59426.8987     0.69644E+00 
  59459.1609     0.69334E+00 
  59491.4230     0.69030E+00 
  59523.6852     0.68732E+00 
  59555.9474     0.68440E+00 
  59588.2095     0.68153E+00 
  59620.4717     0.67872E+00 
  59652.7338     0.67597E+00 
  59684.9960     0.67328E+00 
  59717.2582     0.67065E+00 
  59749.5203     0.66808E+00 
  59781.7825     0.66558E+00 
  59814.0446     0.66313E+00 
  59846.3068     0.66075E+00 
  59878.5690     0.65843E+00 
  59910.8311     0.65618E+00 
  59943.0933     0.65399E+00 
  59975.3554     0.65186E+00 
  60007.6176     0.64980E+00 
  60039.8798     0.64781E+00 
  60072.1419     0.64589E+00 
  60104.4041     0.64403E+00 
  60136.6662     0.64224E+00 
  60168.9284     0.64052E+00 
  60201.1906     0.63887E+00 
  60233.4527     0.63729E+00 
  60265.7149     0.63579E+00 
  60297.9770     0.63435E+00 
  60330.2392     0.63299E+00 
  60362.5014     0.63170E+00 
  60394.7635     0.63048E+00 
  60427.0257     0.62934E+00 
  60459.2878     0.62828E+00 
  60491.5500     0.62729E+00 
  60523.8122     0.62637E+00 
  60556.0743     0.62554E+00 
  60588.3365     0.62478E+00 
  60620.5986     0.62410E+00 
  60652.8608     0.62351E+00 
  60685.1230     0.62299E+00 
  60717.3851     0.62255E+00 
  60749.6473     0.62220E+00 
  60781.9094     0.62192E+00 
  60814.1716     0.62174E+00 
  60846.4338     0.62163E+00 
  60878.6959     0.62161E+00 
  60910.9581     0.62168E+00 
  60943.2202     0.62183E+00 
  60975.4824     0.62207E+00 
  61007.7446     0.62240E+00 
  61040.0067     0.62282E+00 
  61072.2689     0.62333E+00 
  61104.5310     0.62392E+00 
  61136.7932     0.62461E+00 
  61169.0554     0.62539E+00 
  61201.3175     0.62627E+00 
  61233.5797     0.62723E+00 
  61265.8418     0.62830E+00 
  61298.1040     0.62945E+00 
  61330.3662     0.63071E+00 
  61362.6283     0.63206E+00 
  61394.8905     0.63351E+00 
  61427.1526     0.63505E+00 
  61459.4148     0.63670E+00 
  61491.6770     0.63845E+00 
  61523.9391     0.64030E+00 
  61556.2013     0.64225E+00 
  61588.4634     0.64430E+00 
  61620.7256     0.64646E+00 
  61652.9878     0.64872E+00 
  61685.2499     0.65109E+00 
  61717.5121     0.65356E+00 
  61749.7742     0.65614E+00 
  61782.0364     0.65883E+00 
  61814.2986     0.66163E+00 
  61846.5607     0.66454E+00 
  61878.8229     0.66756E+00 
  61911.0850     0.67069E+00 
  61943.3472     0.67394E+00 
  61975.6094     0.67730E+00 
  62007.8715     0.68077E+00 
  62040.1337     0.68436E+00 
  62072.3958     0.68807E+00 
  62104.6580     0.69189E+00 
  62136.9202     0.69583E+00 
  62169.1823     0.69989E+00 
  62201.4445     0.70407E+00 
  62233.7066     0.70838E+00 
  62265.9688     0.71280E+00 
  62298.2310     0.71735E+00 
  62330.4931     0.72202E+00 
  62362.7553     0.72682E+00 
  62395.0174     0.73174E+00 
  62427.2796     0.73679E+00 
  62459.5418     0.74197E+00 
  62491.8039     0.74728E+00 
  62524.0661     0.75272E+00 
  62556.3282     0.75829E+00 
  62588.5904     0.76399E+00 
  62620.8526     0.76982E+00 
  62653.1147     0.77579E+00 
  62685.3769     0.78189E+00 
  62717.6390     0.78813E+00 
  62749.9012     0.79451E+00 
  62782.1634     0.80102E+00 
  62814.4255     0.80768E+00 
  62846.6877     0.81447E+00 
  62878.9498     0.82141E+00 
  62911.2120     0.82849E+00 
  62943.4742     0.83571E+00 
  62975.7363     0.84307E+00 
  63007.9985     0.85058E+00 
  63040.2606     0.85824E+00 
  63072.5228     0.86605E+00 
  63104.7850     0.87400E+00 
  63137.0471     0.88210E+00 
  63169.3093     0.89036E+00 
  63201.5714     0.89877E+00 
  63233.8336     0.90732E+00 
  63266.0958     0.91604E+00 
  63298.3579     0.92491E+00 
  63330.6201     0.93393E+00 
  63362.8822     0.94311E+00 
  63395.1444     0.95245E+00 
  63427.4066     0.96195E+00 
  63459.6687     0.97161E+00 
  63491.9309     0.98144E+00 
  63524.1930     0.99142E+00 
  63556.4552     0.10016E+01 
  63588.7174     0.10119E+01 
  63620.9795     0.10224E+01 
  63653.2417     0.10330E+01 
  63685.5038     0.10438E+01 
  63717.7660     0.10548E+01 
  63750.0282     0.10660E+01 
  63782.2903     0.10773E+01 
  63814.5525     0.10888E+01 
  63846.8146     0.11005E+01 
  63879.0768     0.11123E+01 
  63911.3390     0.11243E+01 
  63943.6011     0.11365E+01 
  63975.8633     0.11489E+01 
  64008.1254     0.11615E+01 
  64040.3876     0.11742E+01 
  64072.6498     0.11871E+01 
  64104.9119     0.12003E+01 
  64137.1741     0.12135E+01 
  64169.4362     0.12270E+01 
  64201.6984     0.12407E+01 
  64233.9606     0.12545E+01 
  64266.2227     0.12686E+01 
  64298.4849     0.12828E+01 
  64330.7470     0.12972E+01 
  64363.0092     0.13118E+01 
  64395.2714     0.13266E+01 
  64427.5335     0.13416E+01 
  64459.7957     0.13568E+01 
  64492.0578     0.13722E+01 
  64524.3200     0.13878E+01 
  64556.5822     0.14036E+01 
  64588.8443     0.14196E+01 
  64621.1065     0.14358E+01 
  64653.3686     0.14522E+01 
  64685.6308     0.14688E+01 
  64717.8930     0.14856E+01 
  64750.1551     0.15026E+01 
  64782.4173     0.15198E+01 
  64814.6794     0.15373E+01 
  64846.9416     0.15549E+01 
  64879.2038     0.15727E+01 
  64911.4659     0.15908E+01 
  64943.7281     0.16091E+01 
  64975.9902     0.16276E+01 
  65008.2524     0.16463E+01 
  65040.5146     0.16652E+01 
  65072.7767     0.16843E+01 
  65105.0389     0.17037E+01 
  65137.3010     0.17233E+01 
  65169.5632     0.17431E+01 
  65201.8254     0.17631E+01 
  65234.0875     0.17833E+01 
  65266.3497     0.18038E+01 
  65298.6118     0.18245E+01 
  65330.8740     0.18454E+01 
  65363.1362     0.18666E+01 
  65395.3983     0.18880E+01 
  65427.6605     0.19096E+01 
  65459.9226     0.19314E+01 
  65492.1848     0.19535E+01 
  65524.4470     0.19758E+01 
  65556.7091     0.19984E+01 
  65588.9713     0.20212E+01 
  65621.2334     0.20442E+01 
  65653.4956     0.20674E+01 
  65685.7578     0.20909E+01 
  65718.0199     0.21147E+01 
  65750.2821     0.21387E+01 
  65782.5442     0.21629E+01 
  65814.8064     0.21874E+01 
  65847.0686     0.22121E+01 
  65879.3307     0.22371E+01 
  65911.5929     0.22623E+01 
  65943.8550     0.22877E+01 
  65976.1172     0.23134E+01 
  66008.3794     0.23394E+01 
  66040.6415     0.23656E+01 
  66072.9037     0.23921E+01 
  66105.1658     0.24188E+01 
  66137.4280     0.24458E+01 
  66169.6902     0.24730E+01 
  66201.9523     0.25005E+01 
  66234.2145     0.25283E+01 
  66266.4766     0.25563E+01 
  66298.7388     0.25846E+01 
  66331.0010     0.26131E+01 
  66363.2631     0.26419E+01 
  66395.5253     0.26710E+01 
  66427.7874     0.27003E+01 
  66460.0496     0.27299E+01 
  66492.3118     0.27598E+01 
  66524.5739     0.27899E+01 
  66556.8361     0.28203E+01 
  66589.0982     0.28510E+01 
  66621.3604     0.28819E+01 
  66653.6226     0.29131E+01 
  66685.8847     0.29446E+01 
  66718.1469     0.29764E+01 
  66750.4090     0.30084E+01 
  66782.6712     0.30407E+01 
  66814.9334     0.30733E+01 
  66847.1955     0.31062E+01 
  66879.4577     0.31394E+01 
  66911.7198     0.31728E+01 
  66943.9820     0.32065E+01 
  66976.2442     0.32405E+01 
  67008.5063     0.32748E+01 
  67040.7685     0.33093E+01 
  67073.0306     0.33442E+01 
  67105.2928     0.33793E+01 
  67137.5550     0.34148E+01 
  67169.8171     0.34505E+01 
  67202.0793     0.34865E+01 
  67234.3414     0.35228E+01 
  67266.6036     0.35593E+01 
  67298.8658     0.35962E+01 
  67331.1279     0.36334E+01 
  67363.3901     0.36708E+01 
  67395.6522     0.37086E+01 
  67427.9144     0.37466E+01 
  67460.1766     0.37850E+01 
  67492.4387     0.38236E+01 
  67524.7009     0.38626E+01 
  67556.9630     0.39018E+01 
  67589.2252     0.39413E+01 
  67621.4874     0.39812E+01 
  67653.7495     0.40213E+01 
  67686.0117     0.40618E+01 
  67718.2738     0.41025E+01 
  67750.5360     0.41435E+01 
  67782.7982     0.41849E+01 
  67815.0603     0.42265E+01 
  67847.3225     0.42685E+01 
  67879.5846     0.43108E+01 
  67911.8468     0.43533E+01 
  67944.1090     0.43962E+01 
  67976.3711     0.44394E+01 
  68008.6333     0.44829E+01 
  68040.8954     0.45267E+01 
  68073.1576     0.45708E+01 
  68105.4198     0.46153E+01 
  68137.6819     0.46600E+01 
  68169.9441     0.47051E+01 
  68202.2062     0.47504E+01 
  68234.4684     0.47961E+01 
  68266.7306     0.48421E+01 
  68298.9927     0.48884E+01 
  68331.2549     0.49350E+01 
  68363.5170     0.49820E+01 
  68395.7792     0.50292E+01 
  68428.0414     0.50768E+01 
  68460.3035     0.51247E+01 
  68492.5657     0.51729E+01 
  68524.8278     0.52214E+01 
  68557.0900     0.52702E+01 
  68589.3522     0.53194E+01 
  68621.6143     0.53689E+01 
  68653.8765     0.54187E+01 
  68686.1386     0.54688E+01 
  68718.4008     0.55192E+01 
  68750.6630     0.55700E+01 
  68782.9251     0.56211E+01 
  68815.1873     0.56725E+01 
  68847.4494     0.57242E+01 
  68879.7116     0.57763E+01 
  68911.9738     0.58287E+01 
  68944.2359     0.58814E+01 
  68976.4981     0.59344E+01 
  69008.7602     0.59877E+01 
  69041.0224     0.60414E+01 
  69073.2846     0.60954E+01 
  69105.5467     0.61497E+01 
  69137.8089     0.62044E+01 
  69170.0710     0.62593E+01 
  69202.3332     0.63146E+01 
  69234.5954     0.63703E+01 
  69266.8575     0.64262E+01 
  69299.1197     0.64825E+01 
  69331.3818     0.65391E+01 
  69363.6440     0.65960E+01 
  69395.9062     0.66533E+01 
  69428.1683     0.67109E+01 
  69460.4305     0.67688E+01 
  69492.6926     0.68270E+01 
  69524.9548     0.68856E+01 
  69557.2170     0.69445E+01 
  69589.4791     0.70037E+01 
  69621.7413     0.70632E+01 
  69654.0034     0.71231E+01 
  69686.2656     0.71833E+01 
  69718.5278     0.72438E+01 
  69750.7899     0.73046E+01 
  69783.0521     0.73658E+01 
  69815.3142     0.74273E+01 
  69847.5764     0.74892E+01 
  69879.8386     0.75513E+01 
  69912.1007     0.76138E+01 
  69944.3629     0.76766E+01 
  69976.6250     0.77397E+01 
  70008.8872     0.78032E+01 
  70041.1494     0.78670E+01 
  70073.4115     0.79311E+01 
  70105.6737     0.79955E+01 
  70137.9358     0.80603E+01 
  70170.1980     0.81254E+01 
  70202.4602     0.81908E+01 
  70234.7223     0.82565E+01 
  70266.9845     0.83226E+01 
  70299.2466     0.83889E+01 
  70331.5088     0.84556E+01 
  70363.7710     0.85227E+01 
  70396.0331     0.85900E+01 
  70428.2953     0.86577E+01 
  70460.5574     0.87257E+01 
  70492.8196     0.87940E+01 
  70525.0818     0.88626E+01 
  70557.3439     0.89315E+01 
  70589.6061     0.90008E+01 
  70621.8682     0.90704E+01 
  70654.1304     0.91403E+01 
  70686.3926     0.92105E+01 
  70718.6547     0.92811E+01 
  70750.9169     0.93519E+01 
  70783.1790     0.94231E+01 
  70815.4412     0.94946E+01 
  70847.7034     0.95664E+01 
  70879.9655     0.96385E+01 
  70912.2277     0.97109E+01 
  70944.4898     0.97837E+01 
  70976.7520     0.98567E+01 
  71009.0142     0.99301E+01 
  71041.2763     0.10004E+02 
  71073.5385     0.10078E+02 
  71105.8006     0.10152E+02 
  71138.0628     0.10227E+02 
  71170.3250     0.10302E+02 
  71202.5871     0.10377E+02 
  71234.8493     0.10452E+02 
  71267.1114     0.10528E+02 
  71299.3736     0.10604E+02 
  71331.6358     0.10681E+02 
  71363.8979     0.10757E+02 
  71396.1601     0.10834E+02 
  71428.4222     0.10912E+02 
  71460.6844     0.10989E+02 
  71492.9466     0.11067E+02 
  71525.2087     0.11145E+02 
  71557.4709     0.11224E+02 
  71589.7330     0.11303E+02 
  71621.9952     0.11382E+02 
  71654.2574     0.11461E+02 
  71686.5195     0.11541E+02 
  71718.7817     0.11621E+02 
  71751.0438     0.11701E+02 
  71783.3060     0.11782E+02 
  71815.5682     0.11863E+02 
  71847.8303     0.11944E+02 
  71880.0925     0.12025E+02 
  71912.3546     0.12107E+02 
  71944.6168     0.12189E+02 
  71976.8790     0.12271E+02 
  72009.1411     0.12353E+02 
  72041.4033     0.12436E+02 
  72073.6654     0.12519E+02 
  72105.9276     0.12603E+02 
  72138.1898     0.12686E+02 
  72170.4519     0.12770E+02 
  72202.7141     0.12854E+02 
  72234.9762     0.12939E+02 
  72267.2384     0.13023E+02 
  72299.5006     0.13108E+02 
  72331.7627     0.13194E+02 
  72364.0249     0.13279E+02 
  72396.2870     0.13365E+02 
  72428.5492     0.13451E+02 
  72460.8114     0.13537E+02 
  72493.0735     0.13624E+02 
  72525.3357     0.13710E+02 
  72557.5978     0.13797E+02 
  72589.8600     0.13885E+02 
