  32262.1600     0.19231E+01 
  32294.4222     0.19406E+01 
  32326.6843     0.19582E+01 
  32358.9465     0.19759E+01 
  32391.2086     0.19937E+01 
  32423.4708     0.20117E+01 
  32455.7330     0.20297E+01 
  32487.9951     0.20478E+01 
  32520.2573     0.20660E+01 
  32552.5194     0.20844E+01 
  32584.7816     0.21028E+01 
  32617.0438     0.21213E+01 
  32649.3059     0.21399E+01 
  32681.5681     0.21587E+01 
  32713.8302     0.21775E+01 
  32746.0924     0.21964E+01 
  32778.3546     0.22155E+01 
  32810.6167     0.22346E+01 
  32842.8789     0.22539E+01 
  32875.1410     0.22732E+01 
  32907.4032     0.22927E+01 
  32939.6654     0.23122E+01 
  32971.9275     0.23318E+01 
  33004.1897     0.23516E+01 
  33036.4518     0.23714E+01 
  33068.7140     0.23914E+01 
  33100.9762     0.24114E+01 
  33133.2383     0.24316E+01 
  33165.5005     0.24518E+01 
  33197.7626     0.24722E+01 
  33230.0248     0.24926E+01 
  33262.2870     0.25131E+01 
  33294.5491     0.25338E+01 
  33326.8113     0.25545E+01 
  33359.0734     0.25754E+01 
  33391.3356     0.25963E+01 
  33423.5978     0.26173E+01 
  33455.8599     0.26385E+01 
  33488.1221     0.26597E+01 
  33520.3842     0.26810E+01 
  33552.6464     0.27024E+01 
  33584.9086     0.27239E+01 
  33617.1707     0.27455E+01 
  33649.4329     0.27673E+01 
  33681.6950     0.27891E+01 
  33713.9572     0.28109E+01 
  33746.2194     0.28329E+01 
  33778.4815     0.28550E+01 
  33810.7437     0.28772E+01 
  33843.0058     0.28995E+01 
  33875.2680     0.29218E+01 
  33907.5302     0.29443E+01 
  33939.7923     0.29668E+01 
  33972.0545     0.29895E+01 
  34004.3166     0.30122E+01 
  34036.5788     0.30350E+01 
  34068.8410     0.30580E+01 
  34101.1031     0.30810E+01 
  34133.3653     0.31040E+01 
  34165.6274     0.31272E+01 
  34197.8896     0.31505E+01 
  34230.1518     0.31739E+01 
  34262.4139     0.31973E+01 
  34294.6761     0.32208E+01 
  34326.9382     0.32445E+01 
  34359.2004     0.32682E+01 
  34391.4626     0.32919E+01 
  34423.7247     0.33158E+01 
  34455.9869     0.33398E+01 
  34488.2490     0.33638E+01 
  34520.5112     0.33879E+01 
  34552.7734     0.34122E+01 
  34585.0355     0.34364E+01 
  34617.2977     0.34608E+01 
  34649.5598     0.34853E+01 
  34681.8220     0.35098E+01 
  34714.0842     0.35344E+01 
  34746.3463     0.35591E+01 
  34778.6085     0.35839E+01 
  34810.8706     0.36087E+01 
  34843.1328     0.36337E+01 
  34875.3950     0.36587E+01 
  34907.6571     0.36837E+01 
  34939.9193     0.37089E+01 
  34972.1814     0.37341E+01 
  35004.4436     0.37594E+01 
  35036.7058     0.37848E+01 
  35068.9679     0.38102E+01 
  35101.2301     0.38357E+01 
  35133.4922     0.38613E+01 
  35165.7544     0.38870E+01 
  35198.0166     0.39127E+01 
  35230.2787     0.39385E+01 
  35262.5409     0.39644E+01 
  35294.8030     0.39903E+01 
  35327.0652     0.40163E+01 
  35359.3274     0.40424E+01 
  35391.5895     0.40685E+01 
  35423.8517     0.40947E+01 
  35456.1138     0.41209E+01 
  35488.3760     0.41473E+01 
  35520.6382     0.41736E+01 
  35552.9003     0.42001E+01 
  35585.1625     0.42266E+01 
  35617.4246     0.42531E+01 
  35649.6868     0.42797E+01 
  35681.9490     0.43064E+01 
  35714.2111     0.43331E+01 
  35746.4733     0.43599E+01 
  35778.7354     0.43868E+01 
  35810.9976     0.44137E+01 
  35843.2598     0.44406E+01 
  35875.5219     0.44676E+01 
  35907.7841     0.44947E+01 
  35940.0462     0.45217E+01 
  35972.3084     0.45489E+01 
  36004.5706     0.45761E+01 
  36036.8327     0.46033E+01 
  36069.0949     0.46306E+01 
  36101.3570     0.46580E+01 
  36133.6192     0.46853E+01 
  36165.8814     0.47128E+01 
  36198.1435     0.47402E+01 
  36230.4057     0.47677E+01 
  36262.6678     0.47953E+01 
  36294.9300     0.48228E+01 
  36327.1922     0.48505E+01 
  36359.4543     0.48781E+01 
  36391.7165     0.49058E+01 
  36423.9786     0.49336E+01 
  36456.2408     0.49613E+01 
  36488.5030     0.49891E+01 
  36520.7651     0.50169E+01 
  36553.0273     0.50448E+01 
  36585.2894     0.50727E+01 
  36617.5516     0.51006E+01 
  36649.8138     0.51286E+01 
  36682.0759     0.51565E+01 
  36714.3381     0.51845E+01 
  36746.6002     0.52126E+01 
  36778.8624     0.52406E+01 
  36811.1246     0.52687E+01 
  36843.3867     0.52968E+01 
  36875.6489     0.53249E+01 
  36907.9110     0.53530E+01 
  36940.1732     0.53811E+01 
  36972.4354     0.54093E+01 
  37004.6975     0.54375E+01 
  37036.9597     0.54657E+01 
  37069.2218     0.54939E+01 
  37101.4840     0.55221E+01 
  37133.7462     0.55503E+01 
  37166.0083     0.55786E+01 
  37198.2705     0.56068E+01 
  37230.5326     0.56351E+01 
  37262.7948     0.56633E+01 
  37295.0570     0.56916E+01 
  37327.3191     0.57199E+01 
  37359.5813     0.57482E+01 
  37391.8434     0.57764E+01 
  37424.1056     0.58047E+01 
  37456.3678     0.58330E+01 
  37488.6299     0.58612E+01 
  37520.8921     0.58895E+01 
  37553.1542     0.59178E+01 
  37585.4164     0.59460E+01 
  37617.6786     0.59743E+01 
  37649.9407     0.60025E+01 
  37682.2029     0.60308E+01 
  37714.4650     0.60590E+01 
  37746.7272     0.60872E+01 
  37778.9894     0.61154E+01 
  37811.2515     0.61436E+01 
  37843.5137     0.61717E+01 
  37875.7758     0.61999E+01 
  37908.0380     0.62280E+01 
  37940.3002     0.62561E+01 
  37972.5623     0.62842E+01 
  38004.8245     0.63123E+01 
  38037.0866     0.63403E+01 
  38069.3488     0.63683E+01 
  38101.6110     0.63963E+01 
  38133.8731     0.64243E+01 
  38166.1353     0.64523E+01 
  38198.3974     0.64802E+01 
  38230.6596     0.65080E+01 
  38262.9218     0.65359E+01 
  38295.1839     0.65637E+01 
  38327.4461     0.65915E+01 
  38359.7082     0.66192E+01 
  38391.9704     0.66469E+01 
  38424.2326     0.66746E+01 
  38456.4947     0.67022E+01 
  38488.7569     0.67298E+01 
  38521.0190     0.67573E+01 
  38553.2812     0.67848E+01 
  38585.5434     0.68123E+01 
  38617.8055     0.68397E+01 
  38650.0677     0.68671E+01 
  38682.3298     0.68944E+01 
  38714.5920     0.69216E+01 
  38746.8542     0.69488E+01 
  38779.1163     0.69760E+01 
  38811.3785     0.70031E+01 
  38843.6406     0.70301E+01 
  38875.9028     0.70571E+01 
  38908.1650     0.70841E+01 
  38940.4271     0.71109E+01 
  38972.6893     0.71377E+01 
  39004.9514     0.71645E+01 
  39037.2136     0.71912E+01 
  39069.4758     0.72178E+01 
  39101.7379     0.72444E+01 
  39134.0001     0.72709E+01 
  39166.2622     0.72973E+01 
  39198.5244     0.73236E+01 
  39230.7866     0.73499E+01 
  39263.0487     0.73761E+01 
  39295.3109     0.74023E+01 
  39327.5730     0.74283E+01 
  39359.8352     0.74543E+01 
  39392.0974     0.74802E+01 
  39424.3595     0.75060E+01 
  39456.6217     0.75318E+01 
  39488.8838     0.75575E+01 
  39521.1460     0.75830E+01 
  39553.4082     0.76085E+01 
  39585.6703     0.76340E+01 
  39617.9325     0.76593E+01 
  39650.1946     0.76845E+01 
  39682.4568     0.77097E+01 
  39714.7190     0.77348E+01 
  39746.9811     0.77597E+01 
  39779.2433     0.77846E+01 
  39811.5054     0.78094E+01 
  39843.7676     0.78341E+01 
  39876.0298     0.78587E+01 
  39908.2919     0.78832E+01 
  39940.5541     0.79076E+01 
  39972.8162     0.79319E+01 
  40005.0784     0.79561E+01 
  40037.3406     0.79802E+01 
  40069.6027     0.80042E+01 
  40101.8649     0.80281E+01 
  40134.1270     0.80519E+01 
  40166.3892     0.80756E+01 
  40198.6514     0.80991E+01 
  40230.9135     0.81226E+01 
  40263.1757     0.81460E+01 
  40295.4378     0.81692E+01 
  40327.7000     0.81923E+01 
  40359.9622     0.82153E+01 
  40392.2243     0.82382E+01 
  40424.4865     0.82610E+01 
  40456.7486     0.82837E+01 
  40489.0108     0.83062E+01 
  40521.2730     0.83287E+01 
  40553.5351     0.83510E+01 
  40585.7973     0.83732E+01 
  40618.0594     0.83952E+01 
  40650.3216     0.84172E+01 
  40682.5838     0.84390E+01 
  40714.8459     0.84607E+01 
  40747.1081     0.84822E+01 
  40779.3702     0.85037E+01 
  40811.6324     0.85250E+01 
  40843.8946     0.85461E+01 
  40876.1567     0.85672E+01 
  40908.4189     0.85881E+01 
  40940.6810     0.86089E+01 
  40972.9432     0.86295E+01 
  41005.2054     0.86500E+01 
  41037.4675     0.86704E+01 
  41069.7297     0.86906E+01 
  41101.9918     0.87107E+01 
  41134.2540     0.87306E+01 
  41166.5162     0.87504E+01 
  41198.7783     0.87701E+01 
  41231.0405     0.87896E+01 
  41263.3026     0.88090E+01 
  41295.5648     0.88282E+01 
  41327.8270     0.88473E+01 
  41360.0891     0.88663E+01 
  41392.3513     0.88851E+01 
  41424.6134     0.89037E+01 
  41456.8756     0.89222E+01 
  41489.1378     0.89406E+01 
  41521.3999     0.89587E+01 
  41553.6621     0.89768E+01 
  41585.9242     0.89947E+01 
  41618.1864     0.90124E+01 
  41650.4486     0.90300E+01 
  41682.7107     0.90474E+01 
  41714.9729     0.90647E+01 
  41747.2350     0.90818E+01 
  41779.4972     0.90987E+01 
  41811.7594     0.91155E+01 
  41844.0215     0.91322E+01 
  41876.2837     0.91486E+01 
  41908.5458     0.91649E+01 
  41940.8080     0.91811E+01 
  41973.0702     0.91971E+01 
  42005.3323     0.92129E+01 
  42037.5945     0.92285E+01 
  42069.8566     0.92440E+01 
  42102.1188     0.92594E+01 
  42134.3810     0.92745E+01 
  42166.6431     0.92895E+01 
  42198.9053     0.93043E+01 
  42231.1674     0.93190E+01 
  42263.4296     0.93334E+01 
  42295.6918     0.93477E+01 
  42327.9539     0.93619E+01 
  42360.2161     0.93758E+01 
  42392.4782     0.93896E+01 
  42424.7404     0.94033E+01 
  42457.0026     0.94167E+01 
  42489.2647     0.94300E+01 
  42521.5269     0.94431E+01 
  42553.7890     0.94560E+01 
  42586.0512     0.94687E+01 
  42618.3134     0.94813E+01 
  42650.5755     0.94937E+01 
  42682.8377     0.95059E+01 
  42715.0998     0.95179E+01 
  42747.3620     0.95298E+01 
  42779.6242     0.95414E+01 
  42811.8863     0.95529E+01 
  42844.1485     0.95642E+01 
  42876.4106     0.95753E+01 
  42908.6728     0.95863E+01 
  42940.9350     0.95970E+01 
  42973.1971     0.96076E+01 
  43005.4593     0.96180E+01 
  43037.7214     0.96282E+01 
  43069.9836     0.96383E+01 
  43102.2458     0.96481E+01 
  43134.5079     0.96578E+01 
  43166.7701     0.96672E+01 
  43199.0322     0.96765E+01 
  43231.2944     0.96856E+01 
  43263.5566     0.96945E+01 
  43295.8187     0.97032E+01 
  43328.0809     0.97118E+01 
  43360.3430     0.97201E+01 
  43392.6052     0.97283E+01 
  43424.8674     0.97363E+01 
  43457.1295     0.97440E+01 
  43489.3917     0.97516E+01 
  43521.6538     0.97590E+01 
  43553.9160     0.97662E+01 
  43586.1782     0.97733E+01 
  43618.4403     0.97801E+01 
  43650.7025     0.97867E+01 
  43682.9646     0.97932E+01 
  43715.2268     0.97994E+01 
  43747.4890     0.98055E+01 
  43779.7511     0.98114E+01 
  43812.0133     0.98171E+01 
  43844.2754     0.98226E+01 
  43876.5376     0.98279E+01 
  43908.7998     0.98330E+01 
  43941.0619     0.98379E+01 
  43973.3241     0.98426E+01 
  44005.5862     0.98471E+01 
  44037.8484     0.98515E+01 
  44070.1106     0.98556E+01 
  44102.3727     0.98596E+01 
  44134.6349     0.98633E+01 
  44166.8970     0.98669E+01 
  44199.1592     0.98702E+01 
  44231.4214     0.98734E+01 
  44263.6835     0.98764E+01 
  44295.9457     0.98792E+01 
  44328.2078     0.98818E+01 
  44360.4700     0.98842E+01 
  44392.7322     0.98864E+01 
  44424.9943     0.98884E+01 
  44457.2565     0.98902E+01 
  44489.5186     0.98919E+01 
  44521.7808     0.98933E+01 
  44554.0430     0.98945E+01 
  44586.3051     0.98956E+01 
  44618.5673     0.98964E+01 
  44650.8294     0.98971E+01 
  44683.0916     0.98976E+01 
  44715.3538     0.98978E+01 
  44747.6159     0.98979E+01 
  44779.8781     0.98978E+01 
  44812.1402     0.98975E+01 
  44844.4024     0.98970E+01 
  44876.6646     0.98963E+01 
  44908.9267     0.98954E+01 
  44941.1889     0.98944E+01 
  44973.4510     0.98931E+01 
  45005.7132     0.98916E+01 
  45037.9754     0.98900E+01 
  45070.2375     0.98881E+01 
  45102.4997     0.98861E+01 
  45134.7618     0.98839E+01 
  45167.0240     0.98815E+01 
  45199.2862     0.98789E+01 
  45231.5483     0.98761E+01 
  45263.8105     0.98731E+01 
  45296.0726     0.98699E+01 
  45328.3348     0.98666E+01 
  45360.5970     0.98630E+01 
  45392.8591     0.98593E+01 
  45425.1213     0.98553E+01 
  45457.3834     0.98512E+01 
  45489.6456     0.98469E+01 
  45521.9078     0.98424E+01 
  45554.1699     0.98378E+01 
  45586.4321     0.98329E+01 
  45618.6942     0.98279E+01 
  45650.9564     0.98226E+01 
  45683.2186     0.98172E+01 
  45715.4807     0.98116E+01 
  45747.7429     0.98058E+01 
  45780.0050     0.97998E+01 
  45812.2672     0.97937E+01 
  45844.5294     0.97873E+01 
  45876.7915     0.97808E+01 
  45909.0537     0.97741E+01 
  45941.3158     0.97672E+01 
  45973.5780     0.97601E+01 
  46005.8402     0.97529E+01 
  46038.1023     0.97455E+01 
  46070.3645     0.97379E+01 
  46102.6266     0.97301E+01 
  46134.8888     0.97221E+01 
  46167.1510     0.97140E+01 
  46199.4131     0.97056E+01 
  46231.6753     0.96971E+01 
  46263.9374     0.96885E+01 
  46296.1996     0.96796E+01 
  46328.4618     0.96706E+01 
  46360.7239     0.96614E+01 
  46392.9861     0.96520E+01 
  46425.2482     0.96425E+01 
  46457.5104     0.96327E+01 
  46489.7726     0.96228E+01 
  46522.0347     0.96128E+01 
  46554.2969     0.96025E+01 
  46586.5590     0.95921E+01 
  46618.8212     0.95815E+01 
  46651.0834     0.95708E+01 
  46683.3455     0.95599E+01 
  46715.6077     0.95488E+01 
  46747.8698     0.95375E+01 
  46780.1320     0.95261E+01 
  46812.3942     0.95145E+01 
  46844.6563     0.95028E+01 
  46876.9185     0.94909E+01 
  46909.1806     0.94788E+01 
  46941.4428     0.94666E+01 
  46973.7050     0.94542E+01 
  47005.9671     0.94416E+01 
  47038.2293     0.94289E+01 
  47070.4914     0.94160E+01 
  47102.7536     0.94029E+01 
  47135.0158     0.93897E+01 
  47167.2779     0.93764E+01 
  47199.5401     0.93629E+01 
  47231.8022     0.93492E+01 
  47264.0644     0.93354E+01 
  47296.3266     0.93214E+01 
  47328.5887     0.93072E+01 
  47360.8509     0.92930E+01 
  47393.1130     0.92785E+01 
  47425.3752     0.92639E+01 
  47457.6374     0.92492E+01 
  47489.8995     0.92343E+01 
  47522.1617     0.92192E+01 
  47554.4238     0.92041E+01 
  47586.6860     0.91887E+01 
  47618.9482     0.91732E+01 
  47651.2103     0.91576E+01 
  47683.4725     0.91418E+01 
  47715.7346     0.91259E+01 
  47747.9968     0.91098E+01 
  47780.2590     0.90936E+01 
  47812.5211     0.90773E+01 
  47844.7833     0.90608E+01 
  47877.0454     0.90442E+01 
  47909.3076     0.90274E+01 
  47941.5698     0.90105E+01 
  47973.8319     0.89935E+01 
  48006.0941     0.89763E+01 
  48038.3562     0.89590E+01 
  48070.6184     0.89416E+01 
  48102.8806     0.89240E+01 
  48135.1427     0.89063E+01 
  48167.4049     0.88885E+01 
  48199.6670     0.88705E+01 
  48231.9292     0.88524E+01 
  48264.1914     0.88342E+01 
  48296.4535     0.88158E+01 
  48328.7157     0.87973E+01 
  48360.9778     0.87787E+01 
  48393.2400     0.87600E+01 
  48425.5022     0.87411E+01 
  48457.7643     0.87222E+01 
  48490.0265     0.87031E+01 
  48522.2886     0.86839E+01 
  48554.5508     0.86645E+01 
  48586.8130     0.86451E+01 
  48619.0751     0.86255E+01 
  48651.3373     0.86058E+01 
  48683.5994     0.85860E+01 
  48715.8616     0.85661E+01 
  48748.1238     0.85460E+01 
  48780.3859     0.85259E+01 
  48812.6481     0.85056E+01 
  48844.9102     0.84852E+01 
  48877.1724     0.84647E+01 
  48909.4346     0.84442E+01 
  48941.6967     0.84235E+01 
  48973.9589     0.84026E+01 
  49006.2210     0.83817E+01 
  49038.4832     0.83607E+01 
  49070.7454     0.83396E+01 
  49103.0075     0.83184E+01 
  49135.2697     0.82970E+01 
  49167.5318     0.82756E+01 
  49199.7940     0.82541E+01 
  49232.0562     0.82324E+01 
  49264.3183     0.82107E+01 
  49296.5805     0.81889E+01 
  49328.8426     0.81670E+01 
  49361.1048     0.81450E+01 
  49393.3670     0.81229E+01 
  49425.6291     0.81007E+01 
  49457.8913     0.80784E+01 
  49490.1534     0.80560E+01 
  49522.4156     0.80335E+01 
  49554.6778     0.80109E+01 
  49586.9399     0.79883E+01 
  49619.2021     0.79656E+01 
  49651.4642     0.79427E+01 
  49683.7264     0.79198E+01 
  49715.9886     0.78968E+01 
  49748.2507     0.78738E+01 
  49780.5129     0.78506E+01 
  49812.7750     0.78274E+01 
  49845.0372     0.78040E+01 
  49877.2994     0.77806E+01 
  49909.5615     0.77572E+01 
  49941.8237     0.77336E+01 
  49974.0858     0.77100E+01 
  50006.3480     0.76863E+01 
  50038.6102     0.76625E+01 
  50070.8723     0.76387E+01 
  50103.1345     0.76148E+01 
  50135.3966     0.75908E+01 
  50167.6588     0.75667E+01 
  50199.9210     0.75426E+01 
  50232.1831     0.75184E+01 
  50264.4453     0.74941E+01 
  50296.7074     0.74698E+01 
  50328.9696     0.74454E+01 
  50361.2318     0.74210E+01 
  50393.4939     0.73965E+01 
  50425.7561     0.73719E+01 
  50458.0182     0.73472E+01 
  50490.2804     0.73225E+01 
  50522.5426     0.72978E+01 
  50554.8047     0.72730E+01 
  50587.0669     0.72481E+01 
  50619.3290     0.72232E+01 
  50651.5912     0.71982E+01 
  50683.8534     0.71732E+01 
  50716.1155     0.71481E+01 
  50748.3777     0.71229E+01 
  50780.6398     0.70978E+01 
  50812.9020     0.70725E+01 
  50845.1642     0.70472E+01 
  50877.4263     0.70219E+01 
  50909.6885     0.69965E+01 
  50941.9506     0.69711E+01 
  50974.2128     0.69456E+01 
  51006.4750     0.69201E+01 
  51038.7371     0.68946E+01 
  51070.9993     0.68690E+01 
  51103.2614     0.68433E+01 
  51135.5236     0.68177E+01 
  51167.7858     0.67920E+01 
  51200.0479     0.67662E+01 
  51232.3101     0.67404E+01 
  51264.5722     0.67146E+01 
  51296.8344     0.66887E+01 
  51329.0966     0.66628E+01 
  51361.3587     0.66369E+01 
  51393.6209     0.66110E+01 
  51425.8830     0.65850E+01 
  51458.1452     0.65590E+01 
  51490.4074     0.65329E+01 
  51522.6695     0.65068E+01 
  51554.9317     0.64807E+01 
  51587.1938     0.64546E+01 
  51619.4560     0.64284E+01 
  51651.7182     0.64023E+01 
  51683.9803     0.63761E+01 
  51716.2425     0.63498E+01 
  51748.5046     0.63236E+01 
  51780.7668     0.62973E+01 
  51813.0290     0.62710E+01 
  51845.2911     0.62447E+01 
  51877.5533     0.62184E+01 
  51909.8154     0.61921E+01 
  51942.0776     0.61657E+01 
  51974.3398     0.61393E+01 
  52006.6019     0.61130E+01 
  52038.8641     0.60866E+01 
  52071.1262     0.60601E+01 
  52103.3884     0.60337E+01 
  52135.6506     0.60073E+01 
  52167.9127     0.59808E+01 
  52200.1749     0.59544E+01 
  52232.4370     0.59279E+01 
  52264.6992     0.59014E+01 
  52296.9614     0.58750E+01 
  52329.2235     0.58485E+01 
  52361.4857     0.58220E+01 
  52393.7478     0.57955E+01 
  52426.0100     0.57690E+01 
  52458.2722     0.57425E+01 
  52490.5343     0.57160E+01 
  52522.7965     0.56895E+01 
  52555.0586     0.56630E+01 
  52587.3208     0.56365E+01 
  52619.5830     0.56100E+01 
  52651.8451     0.55835E+01 
  52684.1073     0.55570E+01 
  52716.3694     0.55305E+01 
  52748.6316     0.55041E+01 
  52780.8938     0.54776E+01 
  52813.1559     0.54511E+01 
  52845.4181     0.54246E+01 
  52877.6802     0.53982E+01 
  52909.9424     0.53717E+01 
  52942.2046     0.53453E+01 
  52974.4667     0.53189E+01 
  53006.7289     0.52925E+01 
  53038.9910     0.52661E+01 
  53071.2532     0.52397E+01 
  53103.5154     0.52133E+01 
  53135.7775     0.51869E+01 
  53168.0397     0.51606E+01 
  53200.3018     0.51343E+01 
  53232.5640     0.51080E+01 
  53264.8262     0.50817E+01 
  53297.0883     0.50554E+01 
  53329.3505     0.50291E+01 
  53361.6126     0.50029E+01 
  53393.8748     0.49767E+01 
  53426.1370     0.49505E+01 
  53458.3991     0.49243E+01 
  53490.6613     0.48981E+01 
  53522.9234     0.48720E+01 
  53555.1856     0.48459E+01 
  53587.4478     0.48198E+01 
  53619.7099     0.47937E+01 
  53651.9721     0.47677E+01 
  53684.2342     0.47417E+01 
  53716.4964     0.47157E+01 
  53748.7586     0.46898E+01 
  53781.0207     0.46639E+01 
  53813.2829     0.46380E+01 
  53845.5450     0.46121E+01 
  53877.8072     0.45863E+01 
  53910.0694     0.45605E+01 
  53942.3315     0.45347E+01 
  53974.5937     0.45090E+01 
  54006.8558     0.44832E+01 
  54039.1180     0.44576E+01 
  54071.3802     0.44319E+01 
  54103.6423     0.44063E+01 
  54135.9045     0.43808E+01 
  54168.1666     0.43552E+01 
  54200.4288     0.43298E+01 
  54232.6910     0.43043E+01 
  54264.9531     0.42789E+01 
  54297.2153     0.42535E+01 
  54329.4774     0.42282E+01 
  54361.7396     0.42029E+01 
  54394.0018     0.41776E+01 
  54426.2639     0.41524E+01 
  54458.5261     0.41272E+01 
  54490.7882     0.41021E+01 
  54523.0504     0.40770E+01 
  54555.3126     0.40519E+01 
  54587.5747     0.40269E+01 
  54619.8369     0.40020E+01 
  54652.0990     0.39771E+01 
  54684.3612     0.39522E+01 
  54716.6234     0.39274E+01 
  54748.8855     0.39026E+01 
  54781.1477     0.38779E+01 
  54813.4098     0.38532E+01 
  54845.6720     0.38286E+01 
  54877.9342     0.38040E+01 
  54910.1963     0.37794E+01 
  54942.4585     0.37550E+01 
  54974.7206     0.37305E+01 
  55006.9828     0.37061E+01 
  55039.2450     0.36818E+01 
  55071.5071     0.36575E+01 
  55103.7693     0.36333E+01 
  55136.0314     0.36091E+01 
  55168.2936     0.35850E+01 
  55200.5558     0.35610E+01 
  55232.8179     0.35369E+01 
  55265.0801     0.35130E+01 
  55297.3422     0.34891E+01 
  55329.6044     0.34653E+01 
  55361.8666     0.34415E+01 
  55394.1287     0.34177E+01 
  55426.3909     0.33941E+01 
  55458.6530     0.33705E+01 
  55490.9152     0.33469E+01 
  55523.1774     0.33234E+01 
  55555.4395     0.33000E+01 
  55587.7017     0.32766E+01 
  55619.9638     0.32533E+01 
  55652.2260     0.32300E+01 
  55684.4882     0.32068E+01 
  55716.7503     0.31837E+01 
  55749.0125     0.31606E+01 
  55781.2746     0.31376E+01 
  55813.5368     0.31147E+01 
  55845.7990     0.30918E+01 
  55878.0611     0.30690E+01 
  55910.3233     0.30463E+01 
  55942.5854     0.30236E+01 
  55974.8476     0.30010E+01 
  56007.1098     0.29784E+01 
  56039.3719     0.29559E+01 
  56071.6341     0.29335E+01 
  56103.8962     0.29112E+01 
  56136.1584     0.28889E+01 
  56168.4206     0.28667E+01 
  56200.6827     0.28445E+01 
  56232.9449     0.28224E+01 
  56265.2070     0.28004E+01 
  56297.4692     0.27785E+01 
  56329.7314     0.27566E+01 
  56361.9935     0.27348E+01 
  56394.2557     0.27131E+01 
  56426.5178     0.26915E+01 
  56458.7800     0.26699E+01 
  56491.0422     0.26484E+01 
  56523.3043     0.26269E+01 
  56555.5665     0.26056E+01 
  56587.8286     0.25843E+01 
  56620.0908     0.25631E+01 
  56652.3530     0.25419E+01 
  56684.6151     0.25209E+01 
  56716.8773     0.24999E+01 
  56749.1394     0.24790E+01 
  56781.4016     0.24582E+01 
  56813.6638     0.24374E+01 
  56845.9259     0.24167E+01 
  56878.1881     0.23961E+01 
  56910.4502     0.23756E+01 
  56942.7124     0.23551E+01 
  56974.9746     0.23348E+01 
  57007.2367     0.23145E+01 
  57039.4989     0.22943E+01 
  57071.7610     0.22742E+01 
  57104.0232     0.22541E+01 
  57136.2854     0.22341E+01 
  57168.5475     0.22143E+01 
  57200.8097     0.21945E+01 
  57233.0718     0.21747E+01 
  57265.3340     0.21551E+01 
  57297.5962     0.21355E+01 
  57329.8583     0.21161E+01 
  57362.1205     0.20967E+01 
  57394.3826     0.20774E+01 
  57426.6448     0.20582E+01 
  57458.9070     0.20390E+01 
  57491.1691     0.20200E+01 
  57523.4313     0.20010E+01 
  57555.6934     0.19822E+01 
  57587.9556     0.19634E+01 
  57620.2178     0.19447E+01 
  57652.4799     0.19261E+01 
  57684.7421     0.19076E+01 
  57717.0042     0.18891E+01 
  57749.2664     0.18708E+01 
  57781.5286     0.18526E+01 
  57813.7907     0.18344E+01 
  57846.0529     0.18163E+01 
  57878.3150     0.17984E+01 
  57910.5772     0.17805E+01 
  57942.8394     0.17627E+01 
  57975.1015     0.17450E+01 
  58007.3637     0.17274E+01 
  58039.6258     0.17099E+01 
  58071.8880     0.16925E+01 
  58104.1502     0.16751E+01 
  58136.4123     0.16579E+01 
  58168.6745     0.16408E+01 
  58200.9366     0.16237E+01 
  58233.1988     0.16068E+01 
  58265.4610     0.15900E+01 
  58297.7231     0.15732E+01 
  58329.9853     0.15566E+01 
  58362.2474     0.15400E+01 
  58394.5096     0.15236E+01 
  58426.7718     0.15073E+01 
  58459.0339     0.14910E+01 
  58491.2961     0.14749E+01 
  58523.5582     0.14588E+01 
  58555.8204     0.14429E+01 
  58588.0826     0.14271E+01 
  58620.3447     0.14113E+01 
  58652.6069     0.13957E+01 
  58684.8690     0.13802E+01 
  58717.1312     0.13648E+01 
  58749.3934     0.13495E+01 
  58781.6555     0.13343E+01 
  58813.9177     0.13192E+01 
  58846.1798     0.13042E+01 
  58878.4420     0.12893E+01 
  58910.7042     0.12746E+01 
  58942.9663     0.12599E+01 
  58975.2285     0.12454E+01 
  59007.4906     0.12309E+01 
  59039.7528     0.12166E+01 
  59072.0150     0.12024E+01 
  59104.2771     0.11883E+01 
  59136.5393     0.11743E+01 
  59168.8014     0.11604E+01 
  59201.0636     0.11467E+01 
  59233.3258     0.11331E+01 
  59265.5879     0.11195E+01 
  59297.8501     0.11061E+01 
  59330.1122     0.10929E+01 
  59362.3744     0.10797E+01 
  59394.6366     0.10666E+01 
  59426.8987     0.10537E+01 
  59459.1609     0.10409E+01 
  59491.4230     0.10282E+01 
  59523.6852     0.10157E+01 
  59555.9474     0.10033E+01 
  59588.2095     0.99095E+00 
  59620.4717     0.97877E+00 
  59652.7338     0.96671E+00 
  59684.9960     0.95479E+00 
  59717.2582     0.94299E+00 
  59749.5203     0.93132E+00 
  59781.7825     0.91978E+00 
  59814.0446     0.90837E+00 
  59846.3068     0.89709E+00 
  59878.5690     0.88595E+00 
  59910.8311     0.87494E+00 
  59943.0933     0.86407E+00 
  59975.3554     0.85333E+00 
  60007.6176     0.84272E+00 
  60039.8798     0.83226E+00 
  60072.1419     0.82193E+00 
  60104.4041     0.81175E+00 
  60136.6662     0.80170E+00 
  60168.9284     0.79180E+00 
  60201.1906     0.78204E+00 
  60233.4527     0.77242E+00 
  60265.7149     0.76295E+00 
  60297.9770     0.75362E+00 
  60330.2392     0.74444E+00 
  60362.5014     0.73541E+00 
  60394.7635     0.72653E+00 
  60427.0257     0.71780E+00 
  60459.2878     0.70923E+00 
  60491.5500     0.70080E+00 
  60523.8122     0.69253E+00 
  60556.0743     0.68442E+00 
  60588.3365     0.67646E+00 
  60620.5986     0.66866E+00 
  60652.8608     0.66102E+00 
  60685.1230     0.65354E+00 
  60717.3851     0.64622E+00 
  60749.6473     0.63906E+00 
  60781.9094     0.63207E+00 
  60814.1716     0.62525E+00 
  60846.4338     0.61859E+00 
  60878.6959     0.61210E+00 
  60910.9581     0.60578E+00 
  60943.2202     0.59963E+00 
  60975.4824     0.59366E+00 
  61007.7446     0.58786E+00 
  61040.0067     0.58223E+00 
  61072.2689     0.57678E+00 
  61104.5310     0.57151E+00 
  61136.7932     0.56642E+00 
  61169.0554     0.56152E+00 
  61201.3175     0.55679E+00 
  61233.5797     0.55225E+00 
  61265.8418     0.54790E+00 
  61298.1040     0.54373E+00 
  61330.3662     0.53976E+00 
  61362.6283     0.53598E+00 
  61394.8905     0.53239E+00 
  61427.1526     0.52899E+00 
  61459.4148     0.52579E+00 
  61491.6770     0.52279E+00 
  61523.9391     0.51999E+00 
  61556.2013     0.51739E+00 
  61588.4634     0.51499E+00 
  61620.7256     0.51280E+00 
  61652.9878     0.51082E+00 
  61685.2499     0.50905E+00 
  61717.5121     0.50748E+00 
  61749.7742     0.50613E+00 
  61782.0364     0.50500E+00 
  61814.2986     0.50408E+00 
  61846.5607     0.50338E+00 
  61878.8229     0.50290E+00 
  61911.0850     0.50264E+00 
  61943.3472     0.50261E+00 
  61975.6094     0.50281E+00 
  62007.8715     0.50323E+00 
  62040.1337     0.50388E+00 
  62072.3958     0.50477E+00 
  62104.6580     0.50590E+00 
  62136.9202     0.50726E+00 
  62169.1823     0.50886E+00 
  62201.4445     0.51070E+00 
  62233.7066     0.51278E+00 
  62265.9688     0.51511E+00 
  62298.2310     0.51770E+00 
  62330.4931     0.52053E+00 
  62362.7553     0.52361E+00 
  62395.0174     0.52695E+00 
  62427.2796     0.53055E+00 
  62459.5418     0.53441E+00 
  62491.8039     0.53853E+00 
  62524.0661     0.54292E+00 
  62556.3282     0.54757E+00 
  62588.5904     0.55250E+00 
  62620.8526     0.55769E+00 
  62653.1147     0.56317E+00 
  62685.3769     0.56892E+00 
  62717.6390     0.57495E+00 
  62749.9012     0.58127E+00 
  62782.1634     0.58787E+00 
  62814.4255     0.59476E+00 
  62846.6877     0.60194E+00 
  62878.9498     0.60941E+00 
  62911.2120     0.61718E+00 
  62943.4742     0.62526E+00 
  62975.7363     0.63363E+00 
  63007.9985     0.64231E+00 
  63040.2606     0.65130E+00 
  63072.5228     0.66059E+00 
  63104.7850     0.67021E+00 
  63137.0471     0.68014E+00 
  63169.3093     0.69039E+00 
  63201.5714     0.70096E+00 
  63233.8336     0.71186E+00 
  63266.0958     0.72309E+00 
  63298.3579     0.73465E+00 
  63330.6201     0.74654E+00 
  63362.8822     0.75878E+00 
  63395.1444     0.77135E+00 
  63427.4066     0.78427E+00 
  63459.6687     0.79754E+00 
  63491.9309     0.81116E+00 
  63524.1930     0.82514E+00 
  63556.4552     0.83947E+00 
  63588.7174     0.85416E+00 
  63620.9795     0.86922E+00 
  63653.2417     0.88465E+00 
  63685.5038     0.90045E+00 
  63717.7660     0.91662E+00 
  63750.0282     0.93317E+00 
  63782.2903     0.95011E+00 
  63814.5525     0.96743E+00 
  63846.8146     0.98514E+00 
  63879.0768     0.10032E+01 
  63911.3390     0.10217E+01 
  63943.6011     0.10406E+01 
  63975.8633     0.10599E+01 
  64008.1254     0.10797E+01 
  64040.3876     0.10998E+01 
  64072.6498     0.11203E+01 
  64104.9119     0.11413E+01 
  64137.1741     0.11626E+01 
  64169.4362     0.11845E+01 
  64201.6984     0.12067E+01 
  64233.9606     0.12294E+01 
  64266.2227     0.12525E+01 
  64298.4849     0.12760E+01 
  64330.7470     0.13000E+01 
  64363.0092     0.13245E+01 
  64395.2714     0.13494E+01 
  64427.5335     0.13747E+01 
  64459.7957     0.14006E+01 
  64492.0578     0.14268E+01 
  64524.3200     0.14536E+01 
  64556.5822     0.14808E+01 
  64588.8443     0.15086E+01 
  64621.1065     0.15368E+01 
  64653.3686     0.15655E+01 
  64685.6308     0.15946E+01 
  64717.8930     0.16243E+01 
  64750.1551     0.16545E+01 
  64782.4173     0.16852E+01 
  64814.6794     0.17164E+01 
  64846.9416     0.17481E+01 
  64879.2038     0.17803E+01 
  64911.4659     0.18131E+01 
  64943.7281     0.18464E+01 
  64975.9902     0.18802E+01 
  65008.2524     0.19145E+01 
  65040.5146     0.19494E+01 
  65072.7767     0.19849E+01 
  65105.0389     0.20209E+01 
  65137.3010     0.20574E+01 
  65169.5632     0.20945E+01 
  65201.8254     0.21322E+01 
  65234.0875     0.21705E+01 
  65266.3497     0.22093E+01 
  65298.6118     0.22487E+01 
  65330.8740     0.22887E+01 
  65363.1362     0.23292E+01 
  65395.3983     0.23704E+01 
  65427.6605     0.24122E+01 
  65459.9226     0.24546E+01 
  65492.1848     0.24976E+01 
  65524.4470     0.25412E+01 
  65556.7091     0.25854E+01 
  65588.9713     0.26302E+01 
  65621.2334     0.26757E+01 
  65653.4956     0.27218E+01 
  65685.7578     0.27686E+01 
  65718.0199     0.28160E+01 
  65750.2821     0.28640E+01 
  65782.5442     0.29128E+01 
  65814.8064     0.29621E+01 
  65847.0686     0.30122E+01 
  65879.3307     0.30629E+01 
  65911.5929     0.31143E+01 
  65943.8550     0.31663E+01 
  65976.1172     0.32191E+01 
  66008.3794     0.32725E+01 
  66040.6415     0.33267E+01 
  66072.9037     0.33816E+01 
  66105.1658     0.34371E+01 
  66137.4280     0.34934E+01 
  66169.6902     0.35504E+01 
  66201.9523     0.36081E+01 
  66234.2145     0.36666E+01 
  66266.4766     0.37258E+01 
  66298.7388     0.37857E+01 
  66331.0010     0.38464E+01 
  66363.2631     0.39079E+01 
  66395.5253     0.39701E+01 
  66427.7874     0.40331E+01 
  66460.0496     0.40968E+01 
  66492.3118     0.41613E+01 
  66524.5739     0.42266E+01 
  66556.8361     0.42927E+01 
  66589.0982     0.43596E+01 
  66621.3604     0.44273E+01 
  66653.6226     0.44958E+01 
  66685.8847     0.45651E+01 
  66718.1469     0.46352E+01 
  66750.4090     0.47062E+01 
  66782.6712     0.47779E+01 
  66814.9334     0.48505E+01 
  66847.1955     0.49240E+01 
  66879.4577     0.49983E+01 
  66911.7198     0.50734E+01 
  66943.9820     0.51494E+01 
  66976.2442     0.52263E+01 
  67008.5063     0.53041E+01 
  67040.7685     0.53827E+01 
  67073.0306     0.54622E+01 
  67105.2928     0.55426E+01 
  67137.5550     0.56238E+01 
  67169.8171     0.57060E+01 
  67202.0793     0.57891E+01 
  67234.3414     0.58731E+01 
  67266.6036     0.59580E+01 
  67298.8658     0.60439E+01 
  67331.1279     0.61307E+01 
  67363.3901     0.62184E+01 
  67395.6522     0.63070E+01 
  67427.9144     0.63966E+01 
  67460.1766     0.64872E+01 
  67492.4387     0.65787E+01 
  67524.7009     0.66711E+01 
  67556.9630     0.67646E+01 
  67589.2252     0.68590E+01 
  67621.4874     0.69544E+01 
  67653.7495     0.70508E+01 
  67686.0117     0.71482E+01 
  67718.2738     0.72466E+01 
  67750.5360     0.73460E+01 
  67782.7982     0.74465E+01 
  67815.0603     0.75479E+01 
  67847.3225     0.76504E+01 
  67879.5846     0.77539E+01 
  67911.8468     0.78584E+01 
  67944.1090     0.79640E+01 
  67976.3711     0.80706E+01 
  68008.6333     0.81783E+01 
  68040.8954     0.82871E+01 
  68073.1576     0.83969E+01 
  68105.4198     0.85078E+01 
  68137.6819     0.86197E+01 
  68169.9441     0.87328E+01 
  68202.2062     0.88469E+01 
  68234.4684     0.89622E+01 
  68266.7306     0.90785E+01 
  68298.9927     0.91960E+01 
  68331.2549     0.93146E+01 
  68363.5170     0.94343E+01 
  68395.7792     0.95551E+01 
  68428.0414     0.96770E+01 
  68460.3035     0.98001E+01 
  68492.5657     0.99244E+01 
  68524.8278     0.10050E+02 
  68557.0900     0.10176E+02 
  68589.3522     0.10304E+02 
  68621.6143     0.10433E+02 
  68653.8765     0.10563E+02 
  68686.1386     0.10694E+02 
  68718.4008     0.10827E+02 
  68750.6630     0.10960E+02 
  68782.9251     0.11095E+02 
  68815.1873     0.11231E+02 
  68847.4494     0.11368E+02 
  68879.7116     0.11507E+02 
  68911.9738     0.11646E+02 
  68944.2359     0.11787E+02 
  68976.4981     0.11929E+02 
  69008.7602     0.12072E+02 
  69041.0224     0.12217E+02 
  69073.2846     0.12363E+02 
  69105.5467     0.12510E+02 
  69137.8089     0.12658E+02 
  69170.0710     0.12808E+02 
  69202.3332     0.12959E+02 
  69234.5954     0.13111E+02 
  69266.8575     0.13264E+02 
  69299.1197     0.13419E+02 
  69331.3818     0.13575E+02 
  69363.6440     0.13732E+02 
  69395.9062     0.13890E+02 
  69428.1683     0.14050E+02 
  69460.4305     0.14211E+02 
  69492.6926     0.14374E+02 
  69524.9548     0.14538E+02 
  69557.2170     0.14703E+02 
  69589.4791     0.14869E+02 
  69621.7413     0.15037E+02 
  69654.0034     0.15206E+02 
  69686.2656     0.15376E+02 
  69718.5278     0.15548E+02 
  69750.7899     0.15721E+02 
  69783.0521     0.15896E+02 
  69815.3142     0.16072E+02 
  69847.5764     0.16249E+02 
  69879.8386     0.16427E+02 
  69912.1007     0.16607E+02 
  69944.3629     0.16788E+02 
  69976.6250     0.16971E+02 
  70008.8872     0.17155E+02 
  70041.1494     0.17341E+02 
  70073.4115     0.17527E+02 
  70105.6737     0.17716E+02 
  70137.9358     0.17905E+02 
  70170.1980     0.18096E+02 
  70202.4602     0.18289E+02 
  70234.7223     0.18483E+02 
  70266.9845     0.18678E+02 
  70299.2466     0.18875E+02 
  70331.5088     0.19073E+02 
  70363.7710     0.19272E+02 
  70396.0331     0.19473E+02 
  70428.2953     0.19676E+02 
  70460.5574     0.19879E+02 
  70492.8196     0.20085E+02 
  70525.0818     0.20291E+02 
  70557.3439     0.20499E+02 
  70589.6061     0.20709E+02 
  70621.8682     0.20920E+02 
  70654.1304     0.21132E+02 
  70686.3926     0.21346E+02 
  70718.6547     0.21562E+02 
  70750.9169     0.21779E+02 
  70783.1790     0.21997E+02 
  70815.4412     0.22217E+02 
  70847.7034     0.22438E+02 
  70879.9655     0.22661E+02 
  70912.2277     0.22885E+02 
  70944.4898     0.23111E+02 
  70976.7520     0.23338E+02 
  71009.0142     0.23566E+02 
  71041.2763     0.23796E+02 
  71073.5385     0.24028E+02 
  71105.8006     0.24261E+02 
  71138.0628     0.24496E+02 
  71170.3250     0.24732E+02 
  71202.5871     0.24969E+02 
  71234.8493     0.25208E+02 
  71267.1114     0.25449E+02 
  71299.3736     0.25691E+02 
  71331.6358     0.25934E+02 
  71363.8979     0.26179E+02 
  71396.1601     0.26425E+02 
  71428.4222     0.26673E+02 
  71460.6844     0.26923E+02 
  71492.9466     0.27174E+02 
  71525.2087     0.27426E+02 
  71557.4709     0.27680E+02 
  71589.7330     0.27936E+02 
  71621.9952     0.28193E+02 
  71654.2574     0.28451E+02 
  71686.5195     0.28711E+02 
  71718.7817     0.28972E+02 
  71751.0438     0.29235E+02 
  71783.3060     0.29500E+02 
  71815.5682     0.29766E+02 
  71847.8303     0.30033E+02 
  71880.0925     0.30302E+02 
  71912.3546     0.30572E+02 
  71944.6168     0.30844E+02 
  71976.8790     0.31118E+02 
  72009.1411     0.31393E+02 
  72041.4033     0.31669E+02 
  72073.6654     0.31947E+02 
  72105.9276     0.32226E+02 
  72138.1898     0.32507E+02 
  72170.4519     0.32790E+02 
  72202.7141     0.33073E+02 
  72234.9762     0.33359E+02 
  72267.2384     0.33645E+02 
  72299.5006     0.33934E+02 
  72331.7627     0.34223E+02 
  72364.0249     0.34515E+02 
  72396.2870     0.34807E+02 
  72428.5492     0.35102E+02 
  72460.8114     0.35397E+02 
  72493.0735     0.35694E+02 
  72525.3357     0.35993E+02 
  72557.5978     0.36293E+02 
  72589.8600     0.36595E+02 
