  32262.1600     0.68902E-03 
  32294.4222     0.69760E-03 
  32326.6843     0.70625E-03 
  32358.9465     0.71497E-03 
  32391.2086     0.72377E-03 
  32423.4708     0.73263E-03 
  32455.7330     0.74157E-03 
  32487.9951     0.75058E-03 
  32520.2573     0.75967E-03 
  32552.5194     0.76882E-03 
  32584.7816     0.77805E-03 
  32617.0438     0.78736E-03 
  32649.3059     0.79673E-03 
  32681.5681     0.80618E-03 
  32713.8302     0.81570E-03 
  32746.0924     0.82529E-03 
  32778.3546     0.83496E-03 
  32810.6167     0.84470E-03 
  32842.8789     0.85451E-03 
  32875.1410     0.86439E-03 
  32907.4032     0.87435E-03 
  32939.6654     0.88438E-03 
  32971.9275     0.89448E-03 
  33004.1897     0.90465E-03 
  33036.4518     0.91489E-03 
  33068.7140     0.92521E-03 
  33100.9762     0.93560E-03 
  33133.2383     0.94606E-03 
  33165.5005     0.95659E-03 
  33197.7626     0.96719E-03 
  33230.0248     0.97786E-03 
  33262.2870     0.98861E-03 
  33294.5491     0.99942E-03 
  33326.8113     0.10103E-02 
  33359.0734     0.10213E-02 
  33391.3356     0.10323E-02 
  33423.5978     0.10434E-02 
  33455.8599     0.10545E-02 
  33488.1221     0.10658E-02 
  33520.3842     0.10771E-02 
  33552.6464     0.10885E-02 
  33584.9086     0.10999E-02 
  33617.1707     0.11114E-02 
  33649.4329     0.11230E-02 
  33681.6950     0.11346E-02 
  33713.9572     0.11463E-02 
  33746.2194     0.11581E-02 
  33778.4815     0.11700E-02 
  33810.7437     0.11819E-02 
  33843.0058     0.11939E-02 
  33875.2680     0.12059E-02 
  33907.5302     0.12180E-02 
  33939.7923     0.12302E-02 
  33972.0545     0.12424E-02 
  34004.3166     0.12547E-02 
  34036.5788     0.12671E-02 
  34068.8410     0.12795E-02 
  34101.1031     0.12920E-02 
  34133.3653     0.13045E-02 
  34165.6274     0.13172E-02 
  34197.8896     0.13298E-02 
  34230.1518     0.13426E-02 
  34262.4139     0.13554E-02 
  34294.6761     0.13682E-02 
  34326.9382     0.13811E-02 
  34359.2004     0.13941E-02 
  34391.4626     0.14071E-02 
  34423.7247     0.14202E-02 
  34455.9869     0.14333E-02 
  34488.2490     0.14465E-02 
  34520.5112     0.14598E-02 
  34552.7734     0.14731E-02 
  34585.0355     0.14865E-02 
  34617.2977     0.14999E-02 
  34649.5598     0.15134E-02 
  34681.8220     0.15269E-02 
  34714.0842     0.15405E-02 
  34746.3463     0.15541E-02 
  34778.6085     0.15678E-02 
  34810.8706     0.15815E-02 
  34843.1328     0.15953E-02 
  34875.3950     0.16091E-02 
  34907.6571     0.16230E-02 
  34939.9193     0.16369E-02 
  34972.1814     0.16508E-02 
  35004.4436     0.16648E-02 
  35036.7058     0.16789E-02 
  35068.9679     0.16930E-02 
  35101.2301     0.17071E-02 
  35133.4922     0.17213E-02 
  35165.7544     0.17355E-02 
  35198.0166     0.17498E-02 
  35230.2787     0.17641E-02 
  35262.5409     0.17785E-02 
  35294.8030     0.17928E-02 
  35327.0652     0.18073E-02 
  35359.3274     0.18217E-02 
  35391.5895     0.18362E-02 
  35423.8517     0.18507E-02 
  35456.1138     0.18653E-02 
  35488.3760     0.18799E-02 
  35520.6382     0.18945E-02 
  35552.9003     0.19092E-02 
  35585.1625     0.19239E-02 
  35617.4246     0.19386E-02 
  35649.6868     0.19533E-02 
  35681.9490     0.19681E-02 
  35714.2111     0.19829E-02 
  35746.4733     0.19977E-02 
  35778.7354     0.20126E-02 
  35810.9976     0.20275E-02 
  35843.2598     0.20424E-02 
  35875.5219     0.20573E-02 
  35907.7841     0.20722E-02 
  35940.0462     0.20872E-02 
  35972.3084     0.21022E-02 
  36004.5706     0.21172E-02 
  36036.8327     0.21322E-02 
  36069.0949     0.21472E-02 
  36101.3570     0.21623E-02 
  36133.6192     0.21773E-02 
  36165.8814     0.21924E-02 
  36198.1435     0.22075E-02 
  36230.4057     0.22226E-02 
  36262.6678     0.22377E-02 
  36294.9300     0.22528E-02 
  36327.1922     0.22679E-02 
  36359.4543     0.22831E-02 
  36391.7165     0.22982E-02 
  36423.9786     0.23134E-02 
  36456.2408     0.23285E-02 
  36488.5030     0.23437E-02 
  36520.7651     0.23588E-02 
  36553.0273     0.23740E-02 
  36585.2894     0.23891E-02 
  36617.5516     0.24043E-02 
  36649.8138     0.24194E-02 
  36682.0759     0.24345E-02 
  36714.3381     0.24497E-02 
  36746.6002     0.24648E-02 
  36778.8624     0.24799E-02 
  36811.1246     0.24951E-02 
  36843.3867     0.25102E-02 
  36875.6489     0.25253E-02 
  36907.9110     0.25403E-02 
  36940.1732     0.25554E-02 
  36972.4354     0.25705E-02 
  37004.6975     0.25855E-02 
  37036.9597     0.26005E-02 
  37069.2218     0.26155E-02 
  37101.4840     0.26305E-02 
  37133.7462     0.26455E-02 
  37166.0083     0.26605E-02 
  37198.2705     0.26754E-02 
  37230.5326     0.26903E-02 
  37262.7948     0.27052E-02 
  37295.0570     0.27200E-02 
  37327.3191     0.27349E-02 
  37359.5813     0.27497E-02 
  37391.8434     0.27644E-02 
  37424.1056     0.27792E-02 
  37456.3678     0.27939E-02 
  37488.6299     0.28086E-02 
  37520.8921     0.28232E-02 
  37553.1542     0.28379E-02 
  37585.4164     0.28524E-02 
  37617.6786     0.28670E-02 
  37649.9407     0.28815E-02 
  37682.2029     0.28960E-02 
  37714.4650     0.29104E-02 
  37746.7272     0.29248E-02 
  37778.9894     0.29391E-02 
  37811.2515     0.29534E-02 
  37843.5137     0.29677E-02 
  37875.7758     0.29819E-02 
  37908.0380     0.29961E-02 
  37940.3002     0.30102E-02 
  37972.5623     0.30243E-02 
  38004.8245     0.30383E-02 
  38037.0866     0.30522E-02 
  38069.3488     0.30662E-02 
  38101.6110     0.30800E-02 
  38133.8731     0.30938E-02 
  38166.1353     0.31076E-02 
  38198.3974     0.31213E-02 
  38230.6596     0.31349E-02 
  38262.9218     0.31485E-02 
  38295.1839     0.31621E-02 
  38327.4461     0.31755E-02 
  38359.7082     0.31889E-02 
  38391.9704     0.32023E-02 
  38424.2326     0.32156E-02 
  38456.4947     0.32288E-02 
  38488.7569     0.32419E-02 
  38521.0190     0.32550E-02 
  38553.2812     0.32680E-02 
  38585.5434     0.32810E-02 
  38617.8055     0.32938E-02 
  38650.0677     0.33067E-02 
  38682.3298     0.33194E-02 
  38714.5920     0.33321E-02 
  38746.8542     0.33446E-02 
  38779.1163     0.33572E-02 
  38811.3785     0.33696E-02 
  38843.6406     0.33820E-02 
  38875.9028     0.33942E-02 
  38908.1650     0.34065E-02 
  38940.4271     0.34186E-02 
  38972.6893     0.34306E-02 
  39004.9514     0.34426E-02 
  39037.2136     0.34545E-02 
  39069.4758     0.34663E-02 
  39101.7379     0.34780E-02 
  39134.0001     0.34896E-02 
  39166.2622     0.35012E-02 
  39198.5244     0.35127E-02 
  39230.7866     0.35240E-02 
  39263.0487     0.35353E-02 
  39295.3109     0.35465E-02 
  39327.5730     0.35576E-02 
  39359.8352     0.35687E-02 
  39392.0974     0.35796E-02 
  39424.3595     0.35904E-02 
  39456.6217     0.36012E-02 
  39488.8838     0.36118E-02 
  39521.1460     0.36224E-02 
  39553.4082     0.36328E-02 
  39585.6703     0.36432E-02 
  39617.9325     0.36534E-02 
  39650.1946     0.36636E-02 
  39682.4568     0.36737E-02 
  39714.7190     0.36836E-02 
  39746.9811     0.36935E-02 
  39779.2433     0.37033E-02 
  39811.5054     0.37130E-02 
  39843.7676     0.37225E-02 
  39876.0298     0.37320E-02 
  39908.2919     0.37413E-02 
  39940.5541     0.37506E-02 
  39972.8162     0.37598E-02 
  40005.0784     0.37688E-02 
  40037.3406     0.37777E-02 
  40069.6027     0.37866E-02 
  40101.8649     0.37953E-02 
  40134.1270     0.38039E-02 
  40166.3892     0.38124E-02 
  40198.6514     0.38208E-02 
  40230.9135     0.38291E-02 
  40263.1757     0.38373E-02 
  40295.4378     0.38454E-02 
  40327.7000     0.38533E-02 
  40359.9622     0.38612E-02 
  40392.2243     0.38689E-02 
  40424.4865     0.38766E-02 
  40456.7486     0.38841E-02 
  40489.0108     0.38915E-02 
  40521.2730     0.38988E-02 
  40553.5351     0.39059E-02 
  40585.7973     0.39130E-02 
  40618.0594     0.39199E-02 
  40650.3216     0.39268E-02 
  40682.5838     0.39335E-02 
  40714.8459     0.39401E-02 
  40747.1081     0.39465E-02 
  40779.3702     0.39529E-02 
  40811.6324     0.39591E-02 
  40843.8946     0.39653E-02 
  40876.1567     0.39713E-02 
  40908.4189     0.39772E-02 
  40940.6810     0.39829E-02 
  40972.9432     0.39886E-02 
  41005.2054     0.39941E-02 
  41037.4675     0.39995E-02 
  41069.7297     0.40048E-02 
  41101.9918     0.40100E-02 
  41134.2540     0.40150E-02 
  41166.5162     0.40200E-02 
  41198.7783     0.40248E-02 
  41231.0405     0.40295E-02 
  41263.3026     0.40340E-02 
  41295.5648     0.40385E-02 
  41327.8270     0.40428E-02 
  41360.0891     0.40470E-02 
  41392.3513     0.40511E-02 
  41424.6134     0.40550E-02 
  41456.8756     0.40589E-02 
  41489.1378     0.40626E-02 
  41521.3999     0.40662E-02 
  41553.6621     0.40696E-02 
  41585.9242     0.40730E-02 
  41618.1864     0.40762E-02 
  41650.4486     0.40793E-02 
  41682.7107     0.40823E-02 
  41714.9729     0.40852E-02 
  41747.2350     0.40879E-02 
  41779.4972     0.40905E-02 
  41811.7594     0.40930E-02 
  41844.0215     0.40953E-02 
  41876.2837     0.40976E-02 
  41908.5458     0.40997E-02 
  41940.8080     0.41017E-02 
  41973.0702     0.41036E-02 
  42005.3323     0.41053E-02 
  42037.5945     0.41069E-02 
  42069.8566     0.41085E-02 
  42102.1188     0.41098E-02 
  42134.3810     0.41111E-02 
  42166.6431     0.41122E-02 
  42198.9053     0.41132E-02 
  42231.1674     0.41141E-02 
  42263.4296     0.41149E-02 
  42295.6918     0.41156E-02 
  42327.9539     0.41161E-02 
  42360.2161     0.41165E-02 
  42392.4782     0.41168E-02 
  42424.7404     0.41170E-02 
  42457.0026     0.41170E-02 
  42489.2647     0.41169E-02 
  42521.5269     0.41167E-02 
  42553.7890     0.41164E-02 
  42586.0512     0.41160E-02 
  42618.3134     0.41154E-02 
  42650.5755     0.41148E-02 
  42682.8377     0.41140E-02 
  42715.0998     0.41131E-02 
  42747.3620     0.41120E-02 
  42779.6242     0.41109E-02 
  42811.8863     0.41096E-02 
  42844.1485     0.41082E-02 
  42876.4106     0.41068E-02 
  42908.6728     0.41051E-02 
  42940.9350     0.41034E-02 
  42973.1971     0.41016E-02 
  43005.4593     0.40996E-02 
  43037.7214     0.40975E-02 
  43069.9836     0.40953E-02 
  43102.2458     0.40930E-02 
  43134.5079     0.40906E-02 
  43166.7701     0.40881E-02 
  43199.0322     0.40854E-02 
  43231.2944     0.40827E-02 
  43263.5566     0.40798E-02 
  43295.8187     0.40768E-02 
  43328.0809     0.40737E-02 
  43360.3430     0.40705E-02 
  43392.6052     0.40672E-02 
  43424.8674     0.40638E-02 
  43457.1295     0.40602E-02 
  43489.3917     0.40566E-02 
  43521.6538     0.40529E-02 
  43553.9160     0.40490E-02 
  43586.1782     0.40450E-02 
  43618.4403     0.40410E-02 
  43650.7025     0.40368E-02 
  43682.9646     0.40325E-02 
  43715.2268     0.40281E-02 
  43747.4890     0.40236E-02 
  43779.7511     0.40190E-02 
  43812.0133     0.40143E-02 
  43844.2754     0.40095E-02 
  43876.5376     0.40046E-02 
  43908.7998     0.39996E-02 
  43941.0619     0.39945E-02 
  43973.3241     0.39893E-02 
  44005.5862     0.39839E-02 
  44037.8484     0.39785E-02 
  44070.1106     0.39730E-02 
  44102.3727     0.39674E-02 
  44134.6349     0.39617E-02 
  44166.8970     0.39559E-02 
  44199.1592     0.39500E-02 
  44231.4214     0.39440E-02 
  44263.6835     0.39379E-02 
  44295.9457     0.39317E-02 
  44328.2078     0.39255E-02 
  44360.4700     0.39191E-02 
  44392.7322     0.39126E-02 
  44424.9943     0.39061E-02 
  44457.2565     0.38994E-02 
  44489.5186     0.38927E-02 
  44521.7808     0.38859E-02 
  44554.0430     0.38790E-02 
  44586.3051     0.38720E-02 
  44618.5673     0.38649E-02 
  44650.8294     0.38577E-02 
  44683.0916     0.38504E-02 
  44715.3538     0.38431E-02 
  44747.6159     0.38357E-02 
  44779.8781     0.38281E-02 
  44812.1402     0.38205E-02 
  44844.4024     0.38129E-02 
  44876.6646     0.38051E-02 
  44908.9267     0.37973E-02 
  44941.1889     0.37893E-02 
  44973.4510     0.37813E-02 
  45005.7132     0.37732E-02 
  45037.9754     0.37651E-02 
  45070.2375     0.37569E-02 
  45102.4997     0.37485E-02 
  45134.7618     0.37401E-02 
  45167.0240     0.37317E-02 
  45199.2862     0.37231E-02 
  45231.5483     0.37145E-02 
  45263.8105     0.37058E-02 
  45296.0726     0.36971E-02 
  45328.3348     0.36883E-02 
  45360.5970     0.36794E-02 
  45392.8591     0.36704E-02 
  45425.1213     0.36613E-02 
  45457.3834     0.36522E-02 
  45489.6456     0.36431E-02 
  45521.9078     0.36338E-02 
  45554.1699     0.36245E-02 
  45586.4321     0.36151E-02 
  45618.6942     0.36057E-02 
  45650.9564     0.35962E-02 
  45683.2186     0.35866E-02 
  45715.4807     0.35770E-02 
  45747.7429     0.35673E-02 
  45780.0050     0.35576E-02 
  45812.2672     0.35478E-02 
  45844.5294     0.35379E-02 
  45876.7915     0.35280E-02 
  45909.0537     0.35180E-02 
  45941.3158     0.35080E-02 
  45973.5780     0.34979E-02 
  46005.8402     0.34877E-02 
  46038.1023     0.34775E-02 
  46070.3645     0.34673E-02 
  46102.6266     0.34570E-02 
  46134.8888     0.34466E-02 
  46167.1510     0.34362E-02 
  46199.4131     0.34257E-02 
  46231.6753     0.34152E-02 
  46263.9374     0.34047E-02 
  46296.1996     0.33941E-02 
  46328.4618     0.33834E-02 
  46360.7239     0.33727E-02 
  46392.9861     0.33620E-02 
  46425.2482     0.33512E-02 
  46457.5104     0.33403E-02 
  46489.7726     0.33294E-02 
  46522.0347     0.33185E-02 
  46554.2969     0.33076E-02 
  46586.5590     0.32966E-02 
  46618.8212     0.32855E-02 
  46651.0834     0.32744E-02 
  46683.3455     0.32633E-02 
  46715.6077     0.32522E-02 
  46747.8698     0.32410E-02 
  46780.1320     0.32297E-02 
  46812.3942     0.32184E-02 
  46844.6563     0.32071E-02 
  46876.9185     0.31958E-02 
  46909.1806     0.31844E-02 
  46941.4428     0.31730E-02 
  46973.7050     0.31616E-02 
  47005.9671     0.31501E-02 
  47038.2293     0.31386E-02 
  47070.4914     0.31271E-02 
  47102.7536     0.31155E-02 
  47135.0158     0.31040E-02 
  47167.2779     0.30923E-02 
  47199.5401     0.30807E-02 
  47231.8022     0.30690E-02 
  47264.0644     0.30574E-02 
  47296.3266     0.30456E-02 
  47328.5887     0.30339E-02 
  47360.8509     0.30221E-02 
  47393.1130     0.30104E-02 
  47425.3752     0.29986E-02 
  47457.6374     0.29867E-02 
  47489.8995     0.29749E-02 
  47522.1617     0.29630E-02 
  47554.4238     0.29511E-02 
  47586.6860     0.29392E-02 
  47618.9482     0.29273E-02 
  47651.2103     0.29154E-02 
  47683.4725     0.29034E-02 
  47715.7346     0.28914E-02 
  47747.9968     0.28795E-02 
  47780.2590     0.28675E-02 
  47812.5211     0.28554E-02 
  47844.7833     0.28434E-02 
  47877.0454     0.28314E-02 
  47909.3076     0.28193E-02 
  47941.5698     0.28073E-02 
  47973.8319     0.27952E-02 
  48006.0941     0.27831E-02 
  48038.3562     0.27710E-02 
  48070.6184     0.27589E-02 
  48102.8806     0.27468E-02 
  48135.1427     0.27347E-02 
  48167.4049     0.27226E-02 
  48199.6670     0.27105E-02 
  48231.9292     0.26984E-02 
  48264.1914     0.26862E-02 
  48296.4535     0.26741E-02 
  48328.7157     0.26620E-02 
  48360.9778     0.26498E-02 
  48393.2400     0.26377E-02 
  48425.5022     0.26255E-02 
  48457.7643     0.26134E-02 
  48490.0265     0.26013E-02 
  48522.2886     0.25891E-02 
  48554.5508     0.25770E-02 
  48586.8130     0.25648E-02 
  48619.0751     0.25527E-02 
  48651.3373     0.25405E-02 
  48683.5994     0.25284E-02 
  48715.8616     0.25163E-02 
  48748.1238     0.25042E-02 
  48780.3859     0.24920E-02 
  48812.6481     0.24799E-02 
  48844.9102     0.24678E-02 
  48877.1724     0.24557E-02 
  48909.4346     0.24436E-02 
  48941.6967     0.24315E-02 
  48973.9589     0.24194E-02 
  49006.2210     0.24074E-02 
  49038.4832     0.23953E-02 
  49070.7454     0.23833E-02 
  49103.0075     0.23712E-02 
  49135.2697     0.23592E-02 
  49167.5318     0.23472E-02 
  49199.7940     0.23351E-02 
  49232.0562     0.23232E-02 
  49264.3183     0.23112E-02 
  49296.5805     0.22992E-02 
  49328.8426     0.22872E-02 
  49361.1048     0.22753E-02 
  49393.3670     0.22634E-02 
  49425.6291     0.22515E-02 
  49457.8913     0.22396E-02 
  49490.1534     0.22277E-02 
  49522.4156     0.22158E-02 
  49554.6778     0.22040E-02 
  49586.9399     0.21921E-02 
  49619.2021     0.21803E-02 
  49651.4642     0.21685E-02 
  49683.7264     0.21567E-02 
  49715.9886     0.21450E-02 
  49748.2507     0.21332E-02 
  49780.5129     0.21215E-02 
  49812.7750     0.21098E-02 
  49845.0372     0.20981E-02 
  49877.2994     0.20865E-02 
  49909.5615     0.20748E-02 
  49941.8237     0.20632E-02 
  49974.0858     0.20516E-02 
  50006.3480     0.20400E-02 
  50038.6102     0.20285E-02 
  50070.8723     0.20170E-02 
  50103.1345     0.20055E-02 
  50135.3966     0.19940E-02 
  50167.6588     0.19825E-02 
  50199.9210     0.19711E-02 
  50232.1831     0.19597E-02 
  50264.4453     0.19483E-02 
  50296.7074     0.19370E-02 
  50328.9696     0.19256E-02 
  50361.2318     0.19143E-02 
  50393.4939     0.19031E-02 
  50425.7561     0.18918E-02 
  50458.0182     0.18806E-02 
  50490.2804     0.18694E-02 
  50522.5426     0.18582E-02 
  50554.8047     0.18471E-02 
  50587.0669     0.18360E-02 
  50619.3290     0.18249E-02 
  50651.5912     0.18139E-02 
  50683.8534     0.18028E-02 
  50716.1155     0.17918E-02 
  50748.3777     0.17809E-02 
  50780.6398     0.17699E-02 
  50812.9020     0.17590E-02 
  50845.1642     0.17482E-02 
  50877.4263     0.17373E-02 
  50909.6885     0.17265E-02 
  50941.9506     0.17157E-02 
  50974.2128     0.17050E-02 
  51006.4750     0.16943E-02 
  51038.7371     0.16836E-02 
  51070.9993     0.16729E-02 
  51103.2614     0.16623E-02 
  51135.5236     0.16517E-02 
  51167.7858     0.16412E-02 
  51200.0479     0.16307E-02 
  51232.3101     0.16202E-02 
  51264.5722     0.16097E-02 
  51296.8344     0.15993E-02 
  51329.0966     0.15889E-02 
  51361.3587     0.15786E-02 
  51393.6209     0.15683E-02 
  51425.8830     0.15580E-02 
  51458.1452     0.15477E-02 
  51490.4074     0.15375E-02 
  51522.6695     0.15273E-02 
  51554.9317     0.15172E-02 
  51587.1938     0.15071E-02 
  51619.4560     0.14970E-02 
  51651.7182     0.14870E-02 
  51683.9803     0.14770E-02 
  51716.2425     0.14670E-02 
  51748.5046     0.14571E-02 
  51780.7668     0.14472E-02 
  51813.0290     0.14373E-02 
  51845.2911     0.14275E-02 
  51877.5533     0.14177E-02 
  51909.8154     0.14080E-02 
  51942.0776     0.13983E-02 
  51974.3398     0.13886E-02 
  52006.6019     0.13790E-02 
  52038.8641     0.13694E-02 
  52071.1262     0.13598E-02 
  52103.3884     0.13503E-02 
  52135.6506     0.13408E-02 
  52167.9127     0.13314E-02 
  52200.1749     0.13220E-02 
  52232.4370     0.13126E-02 
  52264.6992     0.13033E-02 
  52296.9614     0.12940E-02 
  52329.2235     0.12847E-02 
  52361.4857     0.12755E-02 
  52393.7478     0.12663E-02 
  52426.0100     0.12572E-02 
  52458.2722     0.12481E-02 
  52490.5343     0.12390E-02 
  52522.7965     0.12300E-02 
  52555.0586     0.12210E-02 
  52587.3208     0.12121E-02 
  52619.5830     0.12032E-02 
  52651.8451     0.11943E-02 
  52684.1073     0.11855E-02 
  52716.3694     0.11767E-02 
  52748.6316     0.11679E-02 
  52780.8938     0.11592E-02 
  52813.1559     0.11505E-02 
  52845.4181     0.11419E-02 
  52877.6802     0.11333E-02 
  52909.9424     0.11248E-02 
  52942.2046     0.11162E-02 
  52974.4667     0.11078E-02 
  53006.7289     0.10993E-02 
  53038.9910     0.10909E-02 
  53071.2532     0.10826E-02 
  53103.5154     0.10742E-02 
  53135.7775     0.10660E-02 
  53168.0397     0.10577E-02 
  53200.3018     0.10495E-02 
  53232.5640     0.10413E-02 
  53264.8262     0.10332E-02 
  53297.0883     0.10251E-02 
  53329.3505     0.10171E-02 
  53361.6126     0.10091E-02 
  53393.8748     0.10011E-02 
  53426.1370     0.99318E-03 
  53458.3991     0.98529E-03 
  53490.6613     0.97744E-03 
  53522.9234     0.96963E-03 
  53555.1856     0.96186E-03 
  53587.4478     0.95413E-03 
  53619.7099     0.94643E-03 
  53651.9721     0.93878E-03 
  53684.2342     0.93117E-03 
  53716.4964     0.92359E-03 
  53748.7586     0.91605E-03 
  53781.0207     0.90855E-03 
  53813.2829     0.90109E-03 
  53845.5450     0.89367E-03 
  53877.8072     0.88629E-03 
  53910.0694     0.87895E-03 
  53942.3315     0.87165E-03 
  53974.5937     0.86438E-03 
  54006.8558     0.85716E-03 
  54039.1180     0.84997E-03 
  54071.3802     0.84282E-03 
  54103.6423     0.83571E-03 
  54135.9045     0.82863E-03 
  54168.1666     0.82160E-03 
  54200.4288     0.81461E-03 
  54232.6910     0.80765E-03 
  54264.9531     0.80073E-03 
  54297.2153     0.79385E-03 
  54329.4774     0.78700E-03 
  54361.7396     0.78020E-03 
  54394.0018     0.77343E-03 
  54426.2639     0.76670E-03 
  54458.5261     0.76001E-03 
  54490.7882     0.75336E-03 
  54523.0504     0.74674E-03 
  54555.3126     0.74016E-03 
  54587.5747     0.73362E-03 
  54619.8369     0.72712E-03 
  54652.0990     0.72065E-03 
  54684.3612     0.71422E-03 
  54716.6234     0.70783E-03 
  54748.8855     0.70148E-03 
  54781.1477     0.69516E-03 
  54813.4098     0.68888E-03 
  54845.6720     0.68263E-03 
  54877.9342     0.67643E-03 
  54910.1963     0.67026E-03 
  54942.4585     0.66412E-03 
  54974.7206     0.65802E-03 
  55006.9828     0.65196E-03 
  55039.2450     0.64594E-03 
  55071.5071     0.63995E-03 
  55103.7693     0.63399E-03 
  55136.0314     0.62808E-03 
  55168.2936     0.62220E-03 
  55200.5558     0.61635E-03 
  55232.8179     0.61054E-03 
  55265.0801     0.60477E-03 
  55297.3422     0.59903E-03 
  55329.6044     0.59332E-03 
  55361.8666     0.58765E-03 
  55394.1287     0.58202E-03 
  55426.3909     0.57642E-03 
  55458.6530     0.57086E-03 
  55490.9152     0.56533E-03 
  55523.1774     0.55984E-03 
  55555.4395     0.55438E-03 
  55587.7017     0.54895E-03 
  55619.9638     0.54356E-03 
  55652.2260     0.53820E-03 
  55684.4882     0.53288E-03 
  55716.7503     0.52759E-03 
  55749.0125     0.52234E-03 
  55781.2746     0.51712E-03 
  55813.5368     0.51193E-03 
  55845.7990     0.50678E-03 
  55878.0611     0.50166E-03 
  55910.3233     0.49657E-03 
  55942.5854     0.49152E-03 
  55974.8476     0.48650E-03 
  56007.1098     0.48151E-03 
  56039.3719     0.47655E-03 
  56071.6341     0.47163E-03 
  56103.8962     0.46674E-03 
  56136.1584     0.46189E-03 
  56168.4206     0.45706E-03 
  56200.6827     0.45227E-03 
  56232.9449     0.44751E-03 
  56265.2070     0.44278E-03 
  56297.4692     0.43809E-03 
  56329.7314     0.43342E-03 
  56361.9935     0.42879E-03 
  56394.2557     0.42419E-03 
  56426.5178     0.41962E-03 
  56458.7800     0.41508E-03 
  56491.0422     0.41057E-03 
  56523.3043     0.40609E-03 
  56555.5665     0.40165E-03 
  56587.8286     0.39723E-03 
  56620.0908     0.39285E-03 
  56652.3530     0.38850E-03 
  56684.6151     0.38417E-03 
  56716.8773     0.37988E-03 
  56749.1394     0.37562E-03 
  56781.4016     0.37138E-03 
  56813.6638     0.36718E-03 
  56845.9259     0.36301E-03 
  56878.1881     0.35887E-03 
  56910.4502     0.35475E-03 
  56942.7124     0.35067E-03 
  56974.9746     0.34661E-03 
  57007.2367     0.34259E-03 
  57039.4989     0.33859E-03 
  57071.7610     0.33462E-03 
  57104.0232     0.33068E-03 
  57136.2854     0.32677E-03 
  57168.5475     0.32289E-03 
  57200.8097     0.31904E-03 
  57233.0718     0.31521E-03 
  57265.3340     0.31142E-03 
  57297.5962     0.30765E-03 
  57329.8583     0.30391E-03 
  57362.1205     0.30020E-03 
  57394.3826     0.29651E-03 
  57426.6448     0.29285E-03 
  57458.9070     0.28922E-03 
  57491.1691     0.28562E-03 
  57523.4313     0.28205E-03 
  57555.6934     0.27850E-03 
  57587.9556     0.27498E-03 
  57620.2178     0.27148E-03 
  57652.4799     0.26802E-03 
  57684.7421     0.26458E-03 
  57717.0042     0.26116E-03 
  57749.2664     0.25778E-03 
  57781.5286     0.25442E-03 
  57813.7907     0.25108E-03 
  57846.0529     0.24777E-03 
  57878.3150     0.24449E-03 
  57910.5772     0.24123E-03 
  57942.8394     0.23800E-03 
  57975.1015     0.23480E-03 
  58007.3637     0.23162E-03 
  58039.6258     0.22846E-03 
  58071.8880     0.22533E-03 
  58104.1502     0.22223E-03 
  58136.4123     0.21915E-03 
  58168.6745     0.21610E-03 
  58200.9366     0.21307E-03 
  58233.1988     0.21007E-03 
  58265.4610     0.20709E-03 
  58297.7231     0.20414E-03 
  58329.9853     0.20121E-03 
  58362.2474     0.19830E-03 
  58394.5096     0.19542E-03 
  58426.7718     0.19256E-03 
  58459.0339     0.18973E-03 
  58491.2961     0.18692E-03 
  58523.5582     0.18414E-03 
  58555.8204     0.18138E-03 
  58588.0826     0.17864E-03 
  58620.3447     0.17593E-03 
  58652.6069     0.17324E-03 
  58684.8690     0.17057E-03 
  58717.1312     0.16793E-03 
  58749.3934     0.16531E-03 
  58781.6555     0.16271E-03 
  58813.9177     0.16014E-03 
  58846.1798     0.15759E-03 
  58878.4420     0.15506E-03 
  58910.7042     0.15256E-03 
  58942.9663     0.15007E-03 
  58975.2285     0.14761E-03 
  59007.4906     0.14518E-03 
  59039.7528     0.14276E-03 
  59072.0150     0.14037E-03 
  59104.2771     0.13800E-03 
  59136.5393     0.13566E-03 
  59168.8014     0.13333E-03 
  59201.0636     0.13103E-03 
  59233.3258     0.12875E-03 
  59265.5879     0.12649E-03 
  59297.8501     0.12425E-03 
  59330.1122     0.12204E-03 
  59362.3744     0.11985E-03 
  59394.6366     0.11767E-03 
  59426.8987     0.11552E-03 
  59459.1609     0.11340E-03 
  59491.4230     0.11129E-03 
  59523.6852     0.10920E-03 
  59555.9474     0.10714E-03 
  59588.2095     0.10510E-03 
  59620.4717     0.10308E-03 
  59652.7338     0.10108E-03 
  59684.9960     0.99099E-04 
  59717.2582     0.97142E-04 
  59749.5203     0.95206E-04 
  59781.7825     0.93290E-04 
  59814.0446     0.91396E-04 
  59846.3068     0.89523E-04 
  59878.5690     0.87670E-04 
  59910.8311     0.85839E-04 
  59943.0933     0.84028E-04 
  59975.3554     0.82238E-04 
  60007.6176     0.80469E-04 
  60039.8798     0.78720E-04 
  60072.1419     0.76993E-04 
  60104.4041     0.75286E-04 
  60136.6662     0.73599E-04 
  60168.9284     0.71933E-04 
  60201.1906     0.70288E-04 
  60233.4527     0.68663E-04 
  60265.7149     0.67059E-04 
  60297.9770     0.65476E-04 
  60330.2392     0.63912E-04 
  60362.5014     0.62370E-04 
  60394.7635     0.60848E-04 
  60427.0257     0.59346E-04 
  60459.2878     0.57865E-04 
  60491.5500     0.56404E-04 
  60523.8122     0.54964E-04 
  60556.0743     0.53545E-04 
  60588.3365     0.52145E-04 
  60620.5986     0.50767E-04 
  60652.8608     0.49408E-04 
  60685.1230     0.48071E-04 
  60717.3851     0.46754E-04 
  60749.6473     0.45457E-04 
  60781.9094     0.44181E-04 
  60814.1716     0.42925E-04 
  60846.4338     0.41691E-04 
  60878.6959     0.40476E-04 
  60910.9581     0.39283E-04 
  60943.2202     0.38110E-04 
  60975.4824     0.36958E-04 
  61007.7446     0.35826E-04 
  61040.0067     0.34716E-04 
  61072.2689     0.33626E-04 
  61104.5310     0.32557E-04 
  61136.7932     0.31510E-04 
  61169.0554     0.30483E-04 
  61201.3175     0.29477E-04 
  61233.5797     0.28493E-04 
  61265.8418     0.27529E-04 
  61298.1040     0.26587E-04 
  61330.3662     0.25667E-04 
  61362.6283     0.24767E-04 
  61394.8905     0.23890E-04 
  61427.1526     0.23034E-04 
  61459.4148     0.22199E-04 
  61491.6770     0.21387E-04 
  61523.9391     0.20596E-04 
  61556.2013     0.19827E-04 
  61588.4634     0.19080E-04 
  61620.7256     0.18356E-04 
  61652.9878     0.17654E-04 
  61685.2499     0.16974E-04 
  61717.5121     0.16317E-04 
  61749.7742     0.15682E-04 
  61782.0364     0.15070E-04 
  61814.2986     0.14481E-04 
  61846.5607     0.13915E-04 
  61878.8229     0.13373E-04 
  61911.0850     0.12854E-04 
  61943.3472     0.12358E-04 
  61975.6094     0.11886E-04 
  62007.8715     0.11438E-04 
  62040.1337     0.11014E-04 
  62072.3958     0.10614E-04 
  62104.6580     0.10238E-04 
  62136.9202     0.98873E-05 
  62169.1823     0.95611E-05 
  62201.4445     0.92598E-05 
  62233.7066     0.89837E-05 
  62265.9688     0.87329E-05 
  62298.2310     0.85077E-05 
  62330.4931     0.83084E-05 
  62362.7553     0.81350E-05 
  62395.0174     0.79879E-05 
  62427.2796     0.78673E-05 
  62459.5418     0.77735E-05 
  62491.8039     0.77067E-05 
  62524.0661     0.76671E-05 
  62556.3282     0.76551E-05 
  62588.5904     0.76709E-05 
  62620.8526     0.77148E-05 
  62653.1147     0.77871E-05 
  62685.3769     0.78881E-05 
  62717.6390     0.80180E-05 
  62749.9012     0.81772E-05 
  62782.1634     0.83661E-05 
  62814.4255     0.85849E-05 
  62846.6877     0.88340E-05 
  62878.9498     0.91137E-05 
  62911.2120     0.94244E-05 
  62943.4742     0.97664E-05 
  62975.7363     0.10140E-04 
  63007.9985     0.10546E-04 
  63040.2606     0.10984E-04 
  63072.5228     0.11456E-04 
  63104.7850     0.11960E-04 
  63137.0471     0.12498E-04 
  63169.3093     0.13070E-04 
  63201.5714     0.13677E-04 
  63233.8336     0.14319E-04 
  63266.0958     0.14996E-04 
  63298.3579     0.15710E-04 
  63330.6201     0.16459E-04 
  63362.8822     0.17246E-04 
  63395.1444     0.18070E-04 
  63427.4066     0.18932E-04 
  63459.6687     0.19832E-04 
  63491.9309     0.20771E-04 
  63524.1930     0.21750E-04 
  63556.4552     0.22768E-04 
  63588.7174     0.23828E-04 
  63620.9795     0.24928E-04 
  63653.2417     0.26070E-04 
  63685.5038     0.27255E-04 
  63717.7660     0.28483E-04 
  63750.0282     0.29754E-04 
  63782.2903     0.31070E-04 
  63814.5525     0.32430E-04 
  63846.8146     0.33836E-04 
  63879.0768     0.35289E-04 
  63911.3390     0.36788E-04 
  63943.6011     0.38335E-04 
  63975.8633     0.39931E-04 
  64008.1254     0.41575E-04 
  64040.3876     0.43270E-04 
  64072.6498     0.45015E-04 
  64104.9119     0.46812E-04 
  64137.1741     0.48661E-04 
  64169.4362     0.50563E-04 
  64201.6984     0.52519E-04 
  64233.9606     0.54530E-04 
  64266.2227     0.56597E-04 
  64298.4849     0.58720E-04 
  64330.7470     0.60900E-04 
  64363.0092     0.63139E-04 
  64395.2714     0.65437E-04 
  64427.5335     0.67796E-04 
  64459.7957     0.70216E-04 
  64492.0578     0.72697E-04 
  64524.3200     0.75243E-04 
  64556.5822     0.77852E-04 
  64588.8443     0.80527E-04 
  64621.1065     0.83268E-04 
  64653.3686     0.86077E-04 
  64685.6308     0.88954E-04 
  64717.8930     0.91901E-04 
  64750.1551     0.94919E-04 
  64782.4173     0.98009E-04 
  64814.6794     0.10117E-03 
  64846.9416     0.10441E-03 
  64879.2038     0.10772E-03 
  64911.4659     0.11111E-03 
  64943.7281     0.11458E-03 
  64975.9902     0.11813E-03 
  65008.2524     0.12176E-03 
  65040.5146     0.12547E-03 
  65072.7767     0.12926E-03 
  65105.0389     0.13314E-03 
  65137.3010     0.13711E-03 
  65169.5632     0.14116E-03 
  65201.8254     0.14531E-03 
  65234.0875     0.14954E-03 
  65266.3497     0.15387E-03 
  65298.6118     0.15829E-03 
  65330.8740     0.16281E-03 
  65363.1362     0.16742E-03 
  65395.3983     0.17213E-03 
  65427.6605     0.17694E-03 
  65459.9226     0.18186E-03 
  65492.1848     0.18688E-03 
  65524.4470     0.19200E-03 
  65556.7091     0.19723E-03 
  65588.9713     0.20257E-03 
  65621.2334     0.20802E-03 
  65653.4956     0.21359E-03 
  65685.7578     0.21927E-03 
  65718.0199     0.22506E-03 
  65750.2821     0.23098E-03 
  65782.5442     0.23701E-03 
  65814.8064     0.24317E-03 
  65847.0686     0.24945E-03 
  65879.3307     0.25586E-03 
  65911.5929     0.26240E-03 
  65943.8550     0.26907E-03 
  65976.1172     0.27587E-03 
  66008.3794     0.28281E-03 
  66040.6415     0.28988E-03 
  66072.9037     0.29710E-03 
  66105.1658     0.30445E-03 
  66137.4280     0.31195E-03 
  66169.6902     0.31960E-03 
  66201.9523     0.32740E-03 
  66234.2145     0.33535E-03 
  66266.4766     0.34346E-03 
  66298.7388     0.35172E-03 
  66331.0010     0.36014E-03 
  66363.2631     0.36872E-03 
  66395.5253     0.37747E-03 
  66427.7874     0.38638E-03 
  66460.0496     0.39546E-03 
  66492.3118     0.40472E-03 
  66524.5739     0.41416E-03 
  66556.8361     0.42377E-03 
  66589.0982     0.43356E-03 
  66621.3604     0.44354E-03 
  66653.6226     0.45370E-03 
  66685.8847     0.46405E-03 
  66718.1469     0.47460E-03 
  66750.4090     0.48535E-03 
  66782.6712     0.49629E-03 
  66814.9334     0.50743E-03 
  66847.1955     0.51879E-03 
  66879.4577     0.53035E-03 
  66911.7198     0.54212E-03 
  66943.9820     0.55411E-03 
  66976.2442     0.56631E-03 
  67008.5063     0.57874E-03 
  67040.7685     0.59140E-03 
  67073.0306     0.60428E-03 
  67105.2928     0.61740E-03 
  67137.5550     0.63075E-03 
  67169.8171     0.64434E-03 
  67202.0793     0.65818E-03 
  67234.3414     0.67227E-03 
  67266.6036     0.68660E-03 
  67298.8658     0.70119E-03 
  67331.1279     0.71604E-03 
  67363.3901     0.73115E-03 
  67395.6522     0.74653E-03 
  67427.9144     0.76218E-03 
  67460.1766     0.77811E-03 
  67492.4387     0.79431E-03 
  67524.7009     0.81079E-03 
  67556.9630     0.82757E-03 
  67589.2252     0.84463E-03 
  67621.4874     0.86199E-03 
  67653.7495     0.87965E-03 
  67686.0117     0.89761E-03 
  67718.2738     0.91588E-03 
  67750.5360     0.93447E-03 
  67782.7982     0.95337E-03 
  67815.0603     0.97259E-03 
  67847.3225     0.99214E-03 
  67879.5846     0.10120E-02 
  67911.8468     0.10322E-02 
  67944.1090     0.10528E-02 
  67976.3711     0.10737E-02 
  68008.6333     0.10950E-02 
  68040.8954     0.11166E-02 
  68073.1576     0.11385E-02 
  68105.4198     0.11609E-02 
  68137.6819     0.11836E-02 
  68169.9441     0.12066E-02 
  68202.2062     0.12301E-02 
  68234.4684     0.12539E-02 
  68266.7306     0.12782E-02 
  68298.9927     0.13028E-02 
  68331.2549     0.13278E-02 
  68363.5170     0.13533E-02 
  68395.7792     0.13791E-02 
  68428.0414     0.14054E-02 
  68460.3035     0.14321E-02 
  68492.5657     0.14592E-02 
  68524.8278     0.14867E-02 
  68557.0900     0.15147E-02 
  68589.3522     0.15431E-02 
  68621.6143     0.15720E-02 
  68653.8765     0.16014E-02 
  68686.1386     0.16312E-02 
  68718.4008     0.16614E-02 
  68750.6630     0.16922E-02 
  68782.9251     0.17234E-02 
  68815.1873     0.17551E-02 
  68847.4494     0.17873E-02 
  68879.7116     0.18200E-02 
  68911.9738     0.18532E-02 
  68944.2359     0.18869E-02 
  68976.4981     0.19211E-02 
  69008.7602     0.19558E-02 
  69041.0224     0.19911E-02 
  69073.2846     0.20269E-02 
  69105.5467     0.20632E-02 
  69137.8089     0.21001E-02 
  69170.0710     0.21376E-02 
  69202.3332     0.21756E-02 
  69234.5954     0.22141E-02 
  69266.8575     0.22533E-02 
  69299.1197     0.22930E-02 
  69331.3818     0.23333E-02 
  69363.6440     0.23742E-02 
  69395.9062     0.24156E-02 
  69428.1683     0.24577E-02 
  69460.4305     0.25004E-02 
  69492.6926     0.25438E-02 
  69524.9548     0.25877E-02 
  69557.2170     0.26323E-02 
  69589.4791     0.26775E-02 
  69621.7413     0.27234E-02 
  69654.0034     0.27699E-02 
  69686.2656     0.28170E-02 
  69718.5278     0.28649E-02 
  69750.7899     0.29134E-02 
  69783.0521     0.29625E-02 
  69815.3142     0.30124E-02 
  69847.5764     0.30630E-02 
  69879.8386     0.31142E-02 
  69912.1007     0.31662E-02 
  69944.3629     0.32189E-02 
  69976.6250     0.32723E-02 
  70008.8872     0.33264E-02 
  70041.1494     0.33813E-02 
  70073.4115     0.34369E-02 
  70105.6737     0.34932E-02 
  70137.9358     0.35503E-02 
  70170.1980     0.36082E-02 
  70202.4602     0.36668E-02 
  70234.7223     0.37262E-02 
  70266.9845     0.37864E-02 
  70299.2466     0.38474E-02 
  70331.5088     0.39092E-02 
  70363.7710     0.39717E-02 
  70396.0331     0.40351E-02 
  70428.2953     0.40993E-02 
  70460.5574     0.41644E-02 
  70492.8196     0.42302E-02 
  70525.0818     0.42969E-02 
  70557.3439     0.43645E-02 
  70589.6061     0.44329E-02 
  70621.8682     0.45021E-02 
  70654.1304     0.45723E-02 
  70686.3926     0.46433E-02 
  70718.6547     0.47152E-02 
  70750.9169     0.47879E-02 
  70783.1790     0.48616E-02 
  70815.4412     0.49361E-02 
  70847.7034     0.50116E-02 
  70879.9655     0.50880E-02 
  70912.2277     0.51653E-02 
  70944.4898     0.52435E-02 
  70976.7520     0.53227E-02 
  71009.0142     0.54028E-02 
  71041.2763     0.54839E-02 
  71073.5385     0.55659E-02 
  71105.8006     0.56488E-02 
  71138.0628     0.57328E-02 
  71170.3250     0.58177E-02 
  71202.5871     0.59036E-02 
  71234.8493     0.59904E-02 
  71267.1114     0.60783E-02 
  71299.3736     0.61672E-02 
  71331.6358     0.62571E-02 
  71363.8979     0.63479E-02 
  71396.1601     0.64398E-02 
  71428.4222     0.65328E-02 
  71460.6844     0.66267E-02 
  71492.9466     0.67217E-02 
  71525.2087     0.68178E-02 
  71557.4709     0.69148E-02 
  71589.7330     0.70130E-02 
  71621.9952     0.71122E-02 
  71654.2574     0.72124E-02 
  71686.5195     0.73137E-02 
  71718.7817     0.74161E-02 
  71751.0438     0.75196E-02 
  71783.3060     0.76242E-02 
  71815.5682     0.77299E-02 
  71847.8303     0.78366E-02 
  71880.0925     0.79445E-02 
  71912.3546     0.80534E-02 
  71944.6168     0.81635E-02 
  71976.8790     0.82747E-02 
  72009.1411     0.83870E-02 
  72041.4033     0.85005E-02 
  72073.6654     0.86150E-02 
  72105.9276     0.87307E-02 
  72138.1898     0.88476E-02 
  72170.4519     0.89656E-02 
  72202.7141     0.90847E-02 
  72234.9762     0.92050E-02 
  72267.2384     0.93264E-02 
  72299.5006     0.94490E-02 
  72331.7627     0.95728E-02 
  72364.0249     0.96977E-02 
  72396.2870     0.98239E-02 
  72428.5492     0.99511E-02 
  72460.8114     0.10080E-01 
  72493.0735     0.10209E-01 
  72525.3357     0.10340E-01 
  72557.5978     0.10472E-01 
  72589.8600     0.10605E-01 
