  32262.1600     0.95741E-03 
  32294.4222     0.96581E-03 
  32326.6843     0.97425E-03 
  32358.9465     0.98273E-03 
  32391.2086     0.99126E-03 
  32423.4708     0.99984E-03 
  32455.7330     0.10085E-02 
  32487.9951     0.10171E-02 
  32520.2573     0.10258E-02 
  32552.5194     0.10346E-02 
  32584.7816     0.10434E-02 
  32617.0438     0.10522E-02 
  32649.3059     0.10611E-02 
  32681.5681     0.10700E-02 
  32713.8302     0.10790E-02 
  32746.0924     0.10880E-02 
  32778.3546     0.10970E-02 
  32810.6167     0.11061E-02 
  32842.8789     0.11153E-02 
  32875.1410     0.11245E-02 
  32907.4032     0.11337E-02 
  32939.6654     0.11430E-02 
  32971.9275     0.11523E-02 
  33004.1897     0.11616E-02 
  33036.4518     0.11710E-02 
  33068.7140     0.11805E-02 
  33100.9762     0.11899E-02 
  33133.2383     0.11995E-02 
  33165.5005     0.12090E-02 
  33197.7626     0.12186E-02 
  33230.0248     0.12283E-02 
  33262.2870     0.12380E-02 
  33294.5491     0.12477E-02 
  33326.8113     0.12575E-02 
  33359.0734     0.12673E-02 
  33391.3356     0.12771E-02 
  33423.5978     0.12870E-02 
  33455.8599     0.12969E-02 
  33488.1221     0.13069E-02 
  33520.3842     0.13169E-02 
  33552.6464     0.13270E-02 
  33584.9086     0.13371E-02 
  33617.1707     0.13472E-02 
  33649.4329     0.13573E-02 
  33681.6950     0.13675E-02 
  33713.9572     0.13778E-02 
  33746.2194     0.13881E-02 
  33778.4815     0.13984E-02 
  33810.7437     0.14087E-02 
  33843.0058     0.14191E-02 
  33875.2680     0.14296E-02 
  33907.5302     0.14400E-02 
  33939.7923     0.14505E-02 
  33972.0545     0.14611E-02 
  34004.3166     0.14717E-02 
  34036.5788     0.14823E-02 
  34068.8410     0.14929E-02 
  34101.1031     0.15036E-02 
  34133.3653     0.15143E-02 
  34165.6274     0.15251E-02 
  34197.8896     0.15359E-02 
  34230.1518     0.15467E-02 
  34262.4139     0.15575E-02 
  34294.6761     0.15684E-02 
  34326.9382     0.15794E-02 
  34359.2004     0.15903E-02 
  34391.4626     0.16013E-02 
  34423.7247     0.16123E-02 
  34455.9869     0.16234E-02 
  34488.2490     0.16345E-02 
  34520.5112     0.16456E-02 
  34552.7734     0.16567E-02 
  34585.0355     0.16679E-02 
  34617.2977     0.16791E-02 
  34649.5598     0.16904E-02 
  34681.8220     0.17016E-02 
  34714.0842     0.17129E-02 
  34746.3463     0.17243E-02 
  34778.6085     0.17356E-02 
  34810.8706     0.17470E-02 
  34843.1328     0.17584E-02 
  34875.3950     0.17699E-02 
  34907.6571     0.17813E-02 
  34939.9193     0.17928E-02 
  34972.1814     0.18044E-02 
  35004.4436     0.18159E-02 
  35036.7058     0.18275E-02 
  35068.9679     0.18391E-02 
  35101.2301     0.18507E-02 
  35133.4922     0.18624E-02 
  35165.7544     0.18741E-02 
  35198.0166     0.18858E-02 
  35230.2787     0.18975E-02 
  35262.5409     0.19092E-02 
  35294.8030     0.19210E-02 
  35327.0652     0.19328E-02 
  35359.3274     0.19446E-02 
  35391.5895     0.19565E-02 
  35423.8517     0.19683E-02 
  35456.1138     0.19802E-02 
  35488.3760     0.19921E-02 
  35520.6382     0.20040E-02 
  35552.9003     0.20160E-02 
  35585.1625     0.20279E-02 
  35617.4246     0.20399E-02 
  35649.6868     0.20519E-02 
  35681.9490     0.20640E-02 
  35714.2111     0.20760E-02 
  35746.4733     0.20880E-02 
  35778.7354     0.21001E-02 
  35810.9976     0.21122E-02 
  35843.2598     0.21243E-02 
  35875.5219     0.21364E-02 
  35907.7841     0.21486E-02 
  35940.0462     0.21607E-02 
  35972.3084     0.21729E-02 
  36004.5706     0.21850E-02 
  36036.8327     0.21972E-02 
  36069.0949     0.22094E-02 
  36101.3570     0.22216E-02 
  36133.6192     0.22339E-02 
  36165.8814     0.22461E-02 
  36198.1435     0.22584E-02 
  36230.4057     0.22706E-02 
  36262.6678     0.22829E-02 
  36294.9300     0.22952E-02 
  36327.1922     0.23075E-02 
  36359.4543     0.23198E-02 
  36391.7165     0.23321E-02 
  36423.9786     0.23444E-02 
  36456.2408     0.23567E-02 
  36488.5030     0.23690E-02 
  36520.7651     0.23813E-02 
  36553.0273     0.23937E-02 
  36585.2894     0.24060E-02 
  36617.5516     0.24184E-02 
  36649.8138     0.24307E-02 
  36682.0759     0.24431E-02 
  36714.3381     0.24554E-02 
  36746.6002     0.24678E-02 
  36778.8624     0.24802E-02 
  36811.1246     0.24925E-02 
  36843.3867     0.25049E-02 
  36875.6489     0.25173E-02 
  36907.9110     0.25296E-02 
  36940.1732     0.25420E-02 
  36972.4354     0.25544E-02 
  37004.6975     0.25667E-02 
  37036.9597     0.25791E-02 
  37069.2218     0.25914E-02 
  37101.4840     0.26038E-02 
  37133.7462     0.26161E-02 
  37166.0083     0.26285E-02 
  37198.2705     0.26408E-02 
  37230.5326     0.26532E-02 
  37262.7948     0.26655E-02 
  37295.0570     0.26778E-02 
  37327.3191     0.26902E-02 
  37359.5813     0.27025E-02 
  37391.8434     0.27148E-02 
  37424.1056     0.27271E-02 
  37456.3678     0.27394E-02 
  37488.6299     0.27516E-02 
  37520.8921     0.27639E-02 
  37553.1542     0.27762E-02 
  37585.4164     0.27884E-02 
  37617.6786     0.28006E-02 
  37649.9407     0.28129E-02 
  37682.2029     0.28251E-02 
  37714.4650     0.28373E-02 
  37746.7272     0.28495E-02 
  37778.9894     0.28616E-02 
  37811.2515     0.28738E-02 
  37843.5137     0.28859E-02 
  37875.7758     0.28981E-02 
  37908.0380     0.29102E-02 
  37940.3002     0.29223E-02 
  37972.5623     0.29343E-02 
  38004.8245     0.29464E-02 
  38037.0866     0.29584E-02 
  38069.3488     0.29704E-02 
  38101.6110     0.29824E-02 
  38133.8731     0.29944E-02 
  38166.1353     0.30064E-02 
  38198.3974     0.30183E-02 
  38230.6596     0.30302E-02 
  38262.9218     0.30421E-02 
  38295.1839     0.30540E-02 
  38327.4461     0.30658E-02 
  38359.7082     0.30776E-02 
  38391.9704     0.30894E-02 
  38424.2326     0.31012E-02 
  38456.4947     0.31130E-02 
  38488.7569     0.31247E-02 
  38521.0190     0.31364E-02 
  38553.2812     0.31480E-02 
  38585.5434     0.31597E-02 
  38617.8055     0.31713E-02 
  38650.0677     0.31829E-02 
  38682.3298     0.31944E-02 
  38714.5920     0.32059E-02 
  38746.8542     0.32174E-02 
  38779.1163     0.32289E-02 
  38811.3785     0.32403E-02 
  38843.6406     0.32517E-02 
  38875.9028     0.32631E-02 
  38908.1650     0.32744E-02 
  38940.4271     0.32857E-02 
  38972.6893     0.32970E-02 
  39004.9514     0.33082E-02 
  39037.2136     0.33194E-02 
  39069.4758     0.33306E-02 
  39101.7379     0.33417E-02 
  39134.0001     0.33528E-02 
  39166.2622     0.33638E-02 
  39198.5244     0.33748E-02 
  39230.7866     0.33858E-02 
  39263.0487     0.33967E-02 
  39295.3109     0.34076E-02 
  39327.5730     0.34185E-02 
  39359.8352     0.34293E-02 
  39392.0974     0.34401E-02 
  39424.3595     0.34508E-02 
  39456.6217     0.34615E-02 
  39488.8838     0.34722E-02 
  39521.1460     0.34828E-02 
  39553.4082     0.34933E-02 
  39585.6703     0.35038E-02 
  39617.9325     0.35143E-02 
  39650.1946     0.35247E-02 
  39682.4568     0.35351E-02 
  39714.7190     0.35455E-02 
  39746.9811     0.35558E-02 
  39779.2433     0.35660E-02 
  39811.5054     0.35762E-02 
  39843.7676     0.35863E-02 
  39876.0298     0.35964E-02 
  39908.2919     0.36065E-02 
  39940.5541     0.36165E-02 
  39972.8162     0.36265E-02 
  40005.0784     0.36364E-02 
  40037.3406     0.36462E-02 
  40069.6027     0.36560E-02 
  40101.8649     0.36658E-02 
  40134.1270     0.36755E-02 
  40166.3892     0.36851E-02 
  40198.6514     0.36947E-02 
  40230.9135     0.37042E-02 
  40263.1757     0.37137E-02 
  40295.4378     0.37232E-02 
  40327.7000     0.37325E-02 
  40359.9622     0.37419E-02 
  40392.2243     0.37511E-02 
  40424.4865     0.37603E-02 
  40456.7486     0.37695E-02 
  40489.0108     0.37786E-02 
  40521.2730     0.37876E-02 
  40553.5351     0.37966E-02 
  40585.7973     0.38055E-02 
  40618.0594     0.38144E-02 
  40650.3216     0.38232E-02 
  40682.5838     0.38320E-02 
  40714.8459     0.38406E-02 
  40747.1081     0.38493E-02 
  40779.3702     0.38578E-02 
  40811.6324     0.38663E-02 
  40843.8946     0.38748E-02 
  40876.1567     0.38832E-02 
  40908.4189     0.38915E-02 
  40940.6810     0.38998E-02 
  40972.9432     0.39080E-02 
  41005.2054     0.39161E-02 
  41037.4675     0.39242E-02 
  41069.7297     0.39322E-02 
  41101.9918     0.39401E-02 
  41134.2540     0.39480E-02 
  41166.5162     0.39558E-02 
  41198.7783     0.39635E-02 
  41231.0405     0.39712E-02 
  41263.3026     0.39788E-02 
  41295.5648     0.39864E-02 
  41327.8270     0.39939E-02 
  41360.0891     0.40013E-02 
  41392.3513     0.40086E-02 
  41424.6134     0.40159E-02 
  41456.8756     0.40231E-02 
  41489.1378     0.40302E-02 
  41521.3999     0.40373E-02 
  41553.6621     0.40443E-02 
  41585.9242     0.40512E-02 
  41618.1864     0.40581E-02 
  41650.4486     0.40649E-02 
  41682.7107     0.40716E-02 
  41714.9729     0.40783E-02 
  41747.2350     0.40849E-02 
  41779.4972     0.40914E-02 
  41811.7594     0.40978E-02 
  41844.0215     0.41042E-02 
  41876.2837     0.41105E-02 
  41908.5458     0.41167E-02 
  41940.8080     0.41228E-02 
  41973.0702     0.41289E-02 
  42005.3323     0.41349E-02 
  42037.5945     0.41409E-02 
  42069.8566     0.41467E-02 
  42102.1188     0.41525E-02 
  42134.3810     0.41582E-02 
  42166.6431     0.41638E-02 
  42198.9053     0.41694E-02 
  42231.1674     0.41749E-02 
  42263.4296     0.41803E-02 
  42295.6918     0.41856E-02 
  42327.9539     0.41909E-02 
  42360.2161     0.41961E-02 
  42392.4782     0.42012E-02 
  42424.7404     0.42062E-02 
  42457.0026     0.42112E-02 
  42489.2647     0.42160E-02 
  42521.5269     0.42208E-02 
  42553.7890     0.42256E-02 
  42586.0512     0.42302E-02 
  42618.3134     0.42348E-02 
  42650.5755     0.42393E-02 
  42682.8377     0.42437E-02 
  42715.0998     0.42480E-02 
  42747.3620     0.42523E-02 
  42779.6242     0.42565E-02 
  42811.8863     0.42606E-02 
  42844.1485     0.42646E-02 
  42876.4106     0.42685E-02 
  42908.6728     0.42724E-02 
  42940.9350     0.42762E-02 
  42973.1971     0.42799E-02 
  43005.4593     0.42835E-02 
  43037.7214     0.42871E-02 
  43069.9836     0.42906E-02 
  43102.2458     0.42940E-02 
  43134.5079     0.42973E-02 
  43166.7701     0.43005E-02 
  43199.0322     0.43036E-02 
  43231.2944     0.43067E-02 
  43263.5566     0.43097E-02 
  43295.8187     0.43126E-02 
  43328.0809     0.43155E-02 
  43360.3430     0.43182E-02 
  43392.6052     0.43209E-02 
  43424.8674     0.43235E-02 
  43457.1295     0.43260E-02 
  43489.3917     0.43284E-02 
  43521.6538     0.43308E-02 
  43553.9160     0.43330E-02 
  43586.1782     0.43352E-02 
  43618.4403     0.43373E-02 
  43650.7025     0.43394E-02 
  43682.9646     0.43413E-02 
  43715.2268     0.43432E-02 
  43747.4890     0.43450E-02 
  43779.7511     0.43467E-02 
  43812.0133     0.43483E-02 
  43844.2754     0.43498E-02 
  43876.5376     0.43513E-02 
  43908.7998     0.43527E-02 
  43941.0619     0.43540E-02 
  43973.3241     0.43552E-02 
  44005.5862     0.43563E-02 
  44037.8484     0.43574E-02 
  44070.1106     0.43583E-02 
  44102.3727     0.43592E-02 
  44134.6349     0.43601E-02 
  44166.8970     0.43608E-02 
  44199.1592     0.43614E-02 
  44231.4214     0.43620E-02 
  44263.6835     0.43625E-02 
  44295.9457     0.43629E-02 
  44328.2078     0.43632E-02 
  44360.4700     0.43635E-02 
  44392.7322     0.43636E-02 
  44424.9943     0.43637E-02 
  44457.2565     0.43637E-02 
  44489.5186     0.43637E-02 
  44521.7808     0.43635E-02 
  44554.0430     0.43633E-02 
  44586.3051     0.43630E-02 
  44618.5673     0.43626E-02 
  44650.8294     0.43621E-02 
  44683.0916     0.43615E-02 
  44715.3538     0.43609E-02 
  44747.6159     0.43602E-02 
  44779.8781     0.43594E-02 
  44812.1402     0.43585E-02 
  44844.4024     0.43575E-02 
  44876.6646     0.43565E-02 
  44908.9267     0.43554E-02 
  44941.1889     0.43542E-02 
  44973.4510     0.43529E-02 
  45005.7132     0.43516E-02 
  45037.9754     0.43502E-02 
  45070.2375     0.43487E-02 
  45102.4997     0.43471E-02 
  45134.7618     0.43454E-02 
  45167.0240     0.43437E-02 
  45199.2862     0.43418E-02 
  45231.5483     0.43400E-02 
  45263.8105     0.43380E-02 
  45296.0726     0.43359E-02 
  45328.3348     0.43338E-02 
  45360.5970     0.43316E-02 
  45392.8591     0.43293E-02 
  45425.1213     0.43269E-02 
  45457.3834     0.43245E-02 
  45489.6456     0.43220E-02 
  45521.9078     0.43194E-02 
  45554.1699     0.43167E-02 
  45586.4321     0.43140E-02 
  45618.6942     0.43112E-02 
  45650.9564     0.43083E-02 
  45683.2186     0.43053E-02 
  45715.4807     0.43023E-02 
  45747.7429     0.42992E-02 
  45780.0050     0.42960E-02 
  45812.2672     0.42927E-02 
  45844.5294     0.42894E-02 
  45876.7915     0.42859E-02 
  45909.0537     0.42825E-02 
  45941.3158     0.42789E-02 
  45973.5780     0.42753E-02 
  46005.8402     0.42715E-02 
  46038.1023     0.42678E-02 
  46070.3645     0.42639E-02 
  46102.6266     0.42600E-02 
  46134.8888     0.42560E-02 
  46167.1510     0.42519E-02 
  46199.4131     0.42478E-02 
  46231.6753     0.42436E-02 
  46263.9374     0.42393E-02 
  46296.1996     0.42349E-02 
  46328.4618     0.42305E-02 
  46360.7239     0.42260E-02 
  46392.9861     0.42214E-02 
  46425.2482     0.42168E-02 
  46457.5104     0.42121E-02 
  46489.7726     0.42073E-02 
  46522.0347     0.42025E-02 
  46554.2969     0.41976E-02 
  46586.5590     0.41926E-02 
  46618.8212     0.41876E-02 
  46651.0834     0.41824E-02 
  46683.3455     0.41773E-02 
  46715.6077     0.41720E-02 
  46747.8698     0.41667E-02 
  46780.1320     0.41613E-02 
  46812.3942     0.41559E-02 
  46844.6563     0.41503E-02 
  46876.9185     0.41448E-02 
  46909.1806     0.41391E-02 
  46941.4428     0.41334E-02 
  46973.7050     0.41276E-02 
  47005.9671     0.41218E-02 
  47038.2293     0.41159E-02 
  47070.4914     0.41099E-02 
  47102.7536     0.41039E-02 
  47135.0158     0.40978E-02 
  47167.2779     0.40917E-02 
  47199.5401     0.40854E-02 
  47231.8022     0.40792E-02 
  47264.0644     0.40728E-02 
  47296.3266     0.40664E-02 
  47328.5887     0.40599E-02 
  47360.8509     0.40534E-02 
  47393.1130     0.40468E-02 
  47425.3752     0.40402E-02 
  47457.6374     0.40335E-02 
  47489.8995     0.40267E-02 
  47522.1617     0.40199E-02 
  47554.4238     0.40130E-02 
  47586.6860     0.40061E-02 
  47618.9482     0.39991E-02 
  47651.2103     0.39920E-02 
  47683.4725     0.39849E-02 
  47715.7346     0.39778E-02 
  47747.9968     0.39705E-02 
  47780.2590     0.39632E-02 
  47812.5211     0.39559E-02 
  47844.7833     0.39485E-02 
  47877.0454     0.39411E-02 
  47909.3076     0.39336E-02 
  47941.5698     0.39260E-02 
  47973.8319     0.39184E-02 
  48006.0941     0.39107E-02 
  48038.3562     0.39030E-02 
  48070.6184     0.38953E-02 
  48102.8806     0.38874E-02 
  48135.1427     0.38796E-02 
  48167.4049     0.38716E-02 
  48199.6670     0.38637E-02 
  48231.9292     0.38556E-02 
  48264.1914     0.38476E-02 
  48296.4535     0.38394E-02 
  48328.7157     0.38313E-02 
  48360.9778     0.38230E-02 
  48393.2400     0.38148E-02 
  48425.5022     0.38064E-02 
  48457.7643     0.37981E-02 
  48490.0265     0.37897E-02 
  48522.2886     0.37812E-02 
  48554.5508     0.37727E-02 
  48586.8130     0.37641E-02 
  48619.0751     0.37555E-02 
  48651.3373     0.37469E-02 
  48683.5994     0.37382E-02 
  48715.8616     0.37294E-02 
  48748.1238     0.37206E-02 
  48780.3859     0.37118E-02 
  48812.6481     0.37029E-02 
  48844.9102     0.36940E-02 
  48877.1724     0.36851E-02 
  48909.4346     0.36761E-02 
  48941.6967     0.36670E-02 
  48973.9589     0.36579E-02 
  49006.2210     0.36488E-02 
  49038.4832     0.36396E-02 
  49070.7454     0.36304E-02 
  49103.0075     0.36212E-02 
  49135.2697     0.36119E-02 
  49167.5318     0.36026E-02 
  49199.7940     0.35932E-02 
  49232.0562     0.35838E-02 
  49264.3183     0.35743E-02 
  49296.5805     0.35649E-02 
  49328.8426     0.35553E-02 
  49361.1048     0.35458E-02 
  49393.3670     0.35362E-02 
  49425.6291     0.35266E-02 
  49457.8913     0.35169E-02 
  49490.1534     0.35072E-02 
  49522.4156     0.34975E-02 
  49554.6778     0.34877E-02 
  49586.9399     0.34779E-02 
  49619.2021     0.34681E-02 
  49651.4642     0.34582E-02 
  49683.7264     0.34483E-02 
  49715.9886     0.34384E-02 
  49748.2507     0.34284E-02 
  49780.5129     0.34184E-02 
  49812.7750     0.34084E-02 
  49845.0372     0.33983E-02 
  49877.2994     0.33882E-02 
  49909.5615     0.33781E-02 
  49941.8237     0.33679E-02 
  49974.0858     0.33578E-02 
  50006.3480     0.33476E-02 
  50038.6102     0.33373E-02 
  50070.8723     0.33271E-02 
  50103.1345     0.33168E-02 
  50135.3966     0.33064E-02 
  50167.6588     0.32961E-02 
  50199.9210     0.32857E-02 
  50232.1831     0.32753E-02 
  50264.4453     0.32649E-02 
  50296.7074     0.32544E-02 
  50328.9696     0.32440E-02 
  50361.2318     0.32335E-02 
  50393.4939     0.32229E-02 
  50425.7561     0.32124E-02 
  50458.0182     0.32018E-02 
  50490.2804     0.31912E-02 
  50522.5426     0.31806E-02 
  50554.8047     0.31700E-02 
  50587.0669     0.31593E-02 
  50619.3290     0.31486E-02 
  50651.5912     0.31379E-02 
  50683.8534     0.31272E-02 
  50716.1155     0.31165E-02 
  50748.3777     0.31057E-02 
  50780.6398     0.30949E-02 
  50812.9020     0.30841E-02 
  50845.1642     0.30733E-02 
  50877.4263     0.30625E-02 
  50909.6885     0.30516E-02 
  50941.9506     0.30407E-02 
  50974.2128     0.30298E-02 
  51006.4750     0.30189E-02 
  51038.7371     0.30080E-02 
  51070.9993     0.29971E-02 
  51103.2614     0.29861E-02 
  51135.5236     0.29751E-02 
  51167.7858     0.29642E-02 
  51200.0479     0.29532E-02 
  51232.3101     0.29421E-02 
  51264.5722     0.29311E-02 
  51296.8344     0.29201E-02 
  51329.0966     0.29090E-02 
  51361.3587     0.28980E-02 
  51393.6209     0.28869E-02 
  51425.8830     0.28758E-02 
  51458.1452     0.28647E-02 
  51490.4074     0.28536E-02 
  51522.6695     0.28424E-02 
  51554.9317     0.28313E-02 
  51587.1938     0.28202E-02 
  51619.4560     0.28090E-02 
  51651.7182     0.27978E-02 
  51683.9803     0.27867E-02 
  51716.2425     0.27755E-02 
  51748.5046     0.27643E-02 
  51780.7668     0.27531E-02 
  51813.0290     0.27419E-02 
  51845.2911     0.27307E-02 
  51877.5533     0.27195E-02 
  51909.8154     0.27082E-02 
  51942.0776     0.26970E-02 
  51974.3398     0.26858E-02 
  52006.6019     0.26745E-02 
  52038.8641     0.26633E-02 
  52071.1262     0.26520E-02 
  52103.3884     0.26408E-02 
  52135.6506     0.26295E-02 
  52167.9127     0.26183E-02 
  52200.1749     0.26070E-02 
  52232.4370     0.25957E-02 
  52264.6992     0.25844E-02 
  52296.9614     0.25732E-02 
  52329.2235     0.25619E-02 
  52361.4857     0.25506E-02 
  52393.7478     0.25393E-02 
  52426.0100     0.25280E-02 
  52458.2722     0.25167E-02 
  52490.5343     0.25055E-02 
  52522.7965     0.24942E-02 
  52555.0586     0.24829E-02 
  52587.3208     0.24716E-02 
  52619.5830     0.24603E-02 
  52651.8451     0.24490E-02 
  52684.1073     0.24378E-02 
  52716.3694     0.24265E-02 
  52748.6316     0.24152E-02 
  52780.8938     0.24039E-02 
  52813.1559     0.23927E-02 
  52845.4181     0.23814E-02 
  52877.6802     0.23701E-02 
  52909.9424     0.23589E-02 
  52942.2046     0.23476E-02 
  52974.4667     0.23363E-02 
  53006.7289     0.23251E-02 
  53038.9910     0.23138E-02 
  53071.2532     0.23026E-02 
  53103.5154     0.22914E-02 
  53135.7775     0.22801E-02 
  53168.0397     0.22689E-02 
  53200.3018     0.22577E-02 
  53232.5640     0.22465E-02 
  53264.8262     0.22353E-02 
  53297.0883     0.22241E-02 
  53329.3505     0.22129E-02 
  53361.6126     0.22017E-02 
  53393.8748     0.21905E-02 
  53426.1370     0.21794E-02 
  53458.3991     0.21682E-02 
  53490.6613     0.21571E-02 
  53522.9234     0.21459E-02 
  53555.1856     0.21348E-02 
  53587.4478     0.21237E-02 
  53619.7099     0.21125E-02 
  53651.9721     0.21014E-02 
  53684.2342     0.20904E-02 
  53716.4964     0.20793E-02 
  53748.7586     0.20682E-02 
  53781.0207     0.20571E-02 
  53813.2829     0.20461E-02 
  53845.5450     0.20351E-02 
  53877.8072     0.20240E-02 
  53910.0694     0.20130E-02 
  53942.3315     0.20020E-02 
  53974.5937     0.19910E-02 
  54006.8558     0.19801E-02 
  54039.1180     0.19691E-02 
  54071.3802     0.19582E-02 
  54103.6423     0.19472E-02 
  54135.9045     0.19363E-02 
  54168.1666     0.19254E-02 
  54200.4288     0.19145E-02 
  54232.6910     0.19036E-02 
  54264.9531     0.18928E-02 
  54297.2153     0.18819E-02 
  54329.4774     0.18711E-02 
  54361.7396     0.18603E-02 
  54394.0018     0.18495E-02 
  54426.2639     0.18387E-02 
  54458.5261     0.18279E-02 
  54490.7882     0.18172E-02 
  54523.0504     0.18064E-02 
  54555.3126     0.17957E-02 
  54587.5747     0.17850E-02 
  54619.8369     0.17743E-02 
  54652.0990     0.17637E-02 
  54684.3612     0.17530E-02 
  54716.6234     0.17424E-02 
  54748.8855     0.17318E-02 
  54781.1477     0.17212E-02 
  54813.4098     0.17106E-02 
  54845.6720     0.17000E-02 
  54877.9342     0.16895E-02 
  54910.1963     0.16790E-02 
  54942.4585     0.16685E-02 
  54974.7206     0.16580E-02 
  55006.9828     0.16475E-02 
  55039.2450     0.16371E-02 
  55071.5071     0.16267E-02 
  55103.7693     0.16163E-02 
  55136.0314     0.16059E-02 
  55168.2936     0.15956E-02 
  55200.5558     0.15852E-02 
  55232.8179     0.15749E-02 
  55265.0801     0.15646E-02 
  55297.3422     0.15544E-02 
  55329.6044     0.15441E-02 
  55361.8666     0.15339E-02 
  55394.1287     0.15237E-02 
  55426.3909     0.15135E-02 
  55458.6530     0.15034E-02 
  55490.9152     0.14932E-02 
  55523.1774     0.14831E-02 
  55555.4395     0.14730E-02 
  55587.7017     0.14630E-02 
  55619.9638     0.14529E-02 
  55652.2260     0.14429E-02 
  55684.4882     0.14329E-02 
  55716.7503     0.14229E-02 
  55749.0125     0.14130E-02 
  55781.2746     0.14031E-02 
  55813.5368     0.13932E-02 
  55845.7990     0.13833E-02 
  55878.0611     0.13735E-02 
  55910.3233     0.13637E-02 
  55942.5854     0.13539E-02 
  55974.8476     0.13441E-02 
  56007.1098     0.13344E-02 
  56039.3719     0.13247E-02 
  56071.6341     0.13150E-02 
  56103.8962     0.13053E-02 
  56136.1584     0.12957E-02 
  56168.4206     0.12861E-02 
  56200.6827     0.12765E-02 
  56232.9449     0.12670E-02 
  56265.2070     0.12574E-02 
  56297.4692     0.12480E-02 
  56329.7314     0.12385E-02 
  56361.9935     0.12291E-02 
  56394.2557     0.12196E-02 
  56426.5178     0.12103E-02 
  56458.7800     0.12009E-02 
  56491.0422     0.11916E-02 
  56523.3043     0.11823E-02 
  56555.5665     0.11730E-02 
  56587.8286     0.11638E-02 
  56620.0908     0.11546E-02 
  56652.3530     0.11454E-02 
  56684.6151     0.11363E-02 
  56716.8773     0.11272E-02 
  56749.1394     0.11181E-02 
  56781.4016     0.11090E-02 
  56813.6638     0.11000E-02 
  56845.9259     0.10910E-02 
  56878.1881     0.10821E-02 
  56910.4502     0.10731E-02 
  56942.7124     0.10642E-02 
  56974.9746     0.10554E-02 
  57007.2367     0.10465E-02 
  57039.4989     0.10377E-02 
  57071.7610     0.10290E-02 
  57104.0232     0.10202E-02 
  57136.2854     0.10115E-02 
  57168.5475     0.10029E-02 
  57200.8097     0.99423E-03 
  57233.0718     0.98563E-03 
  57265.3340     0.97706E-03 
  57297.5962     0.96853E-03 
  57329.8583     0.96003E-03 
  57362.1205     0.95156E-03 
  57394.3826     0.94313E-03 
  57426.6448     0.93473E-03 
  57458.9070     0.92637E-03 
  57491.1691     0.91805E-03 
  57523.4313     0.90976E-03 
  57555.6934     0.90150E-03 
  57587.9556     0.89328E-03 
  57620.2178     0.88510E-03 
  57652.4799     0.87696E-03 
  57684.7421     0.86885E-03 
  57717.0042     0.86077E-03 
  57749.2664     0.85274E-03 
  57781.5286     0.84474E-03 
  57813.7907     0.83678E-03 
  57846.0529     0.82885E-03 
  57878.3150     0.82097E-03 
  57910.5772     0.81312E-03 
  57942.8394     0.80531E-03 
  57975.1015     0.79754E-03 
  58007.3637     0.78981E-03 
  58039.6258     0.78212E-03 
  58071.8880     0.77447E-03 
  58104.1502     0.76686E-03 
  58136.4123     0.75928E-03 
  58168.6745     0.75175E-03 
  58200.9366     0.74426E-03 
  58233.1988     0.73681E-03 
  58265.4610     0.72940E-03 
  58297.7231     0.72203E-03 
  58329.9853     0.71470E-03 
  58362.2474     0.70742E-03 
  58394.5096     0.70017E-03 
  58426.7718     0.69297E-03 
  58459.0339     0.68582E-03 
  58491.2961     0.67870E-03 
  58523.5582     0.67163E-03 
  58555.8204     0.66460E-03 
  58588.0826     0.65762E-03 
  58620.3447     0.65068E-03 
  58652.6069     0.64378E-03 
  58684.8690     0.63693E-03 
  58717.1312     0.63013E-03 
  58749.3934     0.62337E-03 
  58781.6555     0.61665E-03 
  58813.9177     0.60999E-03 
  58846.1798     0.60337E-03 
  58878.4420     0.59679E-03 
  58910.7042     0.59026E-03 
  58942.9663     0.58378E-03 
  58975.2285     0.57735E-03 
  59007.4906     0.57097E-03 
  59039.7528     0.56463E-03 
  59072.0150     0.55835E-03 
  59104.2771     0.55211E-03 
  59136.5393     0.54593E-03 
  59168.8014     0.53979E-03 
  59201.0636     0.53370E-03 
  59233.3258     0.52767E-03 
  59265.5879     0.52168E-03 
  59297.8501     0.51575E-03 
  59330.1122     0.50987E-03 
  59362.3744     0.50404E-03 
  59394.6366     0.49827E-03 
  59426.8987     0.49255E-03 
  59459.1609     0.48688E-03 
  59491.4230     0.48126E-03 
  59523.6852     0.47570E-03 
  59555.9474     0.47020E-03 
  59588.2095     0.46475E-03 
  59620.4717     0.45936E-03 
  59652.7338     0.45402E-03 
  59684.9960     0.44874E-03 
  59717.2582     0.44352E-03 
  59749.5203     0.43836E-03 
  59781.7825     0.43325E-03 
  59814.0446     0.42821E-03 
  59846.3068     0.42322E-03 
  59878.5690     0.41829E-03 
  59910.8311     0.41342E-03 
  59943.0933     0.40862E-03 
  59975.3554     0.40387E-03 
  60007.6176     0.39919E-03 
  60039.8798     0.39457E-03 
  60072.1419     0.39001E-03 
  60104.4041     0.38552E-03 
  60136.6662     0.38109E-03 
  60168.9284     0.37672E-03 
  60201.1906     0.37242E-03 
  60233.4527     0.36819E-03 
  60265.7149     0.36402E-03 
  60297.9770     0.35992E-03 
  60330.2392     0.35589E-03 
  60362.5014     0.35193E-03 
  60394.7635     0.34803E-03 
  60427.0257     0.34421E-03 
  60459.2878     0.34045E-03 
  60491.5500     0.33677E-03 
  60523.8122     0.33315E-03 
  60556.0743     0.32961E-03 
  60588.3365     0.32614E-03 
  60620.5986     0.32275E-03 
  60652.8608     0.31943E-03 
  60685.1230     0.31619E-03 
  60717.3851     0.31302E-03 
  60749.6473     0.30992E-03 
  60781.9094     0.30691E-03 
  60814.1716     0.30397E-03 
  60846.4338     0.30111E-03 
  60878.6959     0.29833E-03 
  60910.9581     0.29563E-03 
  60943.2202     0.29301E-03 
  60975.4824     0.29047E-03 
  61007.7446     0.28802E-03 
  61040.0067     0.28565E-03 
  61072.2689     0.28336E-03 
  61104.5310     0.28116E-03 
  61136.7932     0.27904E-03 
  61169.0554     0.27701E-03 
  61201.3175     0.27507E-03 
  61233.5797     0.27321E-03 
  61265.8418     0.27145E-03 
  61298.1040     0.26977E-03 
  61330.3662     0.26819E-03 
  61362.6283     0.26670E-03 
  61394.8905     0.26530E-03 
  61427.1526     0.26399E-03 
  61459.4148     0.26278E-03 
  61491.6770     0.26167E-03 
  61523.9391     0.26065E-03 
  61556.2013     0.25973E-03 
  61588.4634     0.25890E-03 
  61620.7256     0.25818E-03 
  61652.9878     0.25756E-03 
  61685.2499     0.25703E-03 
  61717.5121     0.25662E-03 
  61749.7742     0.25630E-03 
  61782.0364     0.25609E-03 
  61814.2986     0.25599E-03 
  61846.5607     0.25599E-03 
  61878.8229     0.25610E-03 
  61911.0850     0.25632E-03 
  61943.3472     0.25665E-03 
  61975.6094     0.25709E-03 
  62007.8715     0.25764E-03 
  62040.1337     0.25831E-03 
  62072.3958     0.25909E-03 
  62104.6580     0.25998E-03 
  62136.9202     0.26100E-03 
  62169.1823     0.26213E-03 
  62201.4445     0.26338E-03 
  62233.7066     0.26475E-03 
  62265.9688     0.26625E-03 
  62298.2310     0.26786E-03 
  62330.4931     0.26961E-03 
  62362.7553     0.27147E-03 
  62395.0174     0.27347E-03 
  62427.2796     0.27559E-03 
  62459.5418     0.27784E-03 
  62491.8039     0.28022E-03 
  62524.0661     0.28274E-03 
  62556.3282     0.28539E-03 
  62588.5904     0.28817E-03 
  62620.8526     0.29109E-03 
  62653.1147     0.29415E-03 
  62685.3769     0.29735E-03 
  62717.6390     0.30068E-03 
  62749.9012     0.30416E-03 
  62782.1634     0.30779E-03 
  62814.4255     0.31155E-03 
  62846.6877     0.31547E-03 
  62878.9498     0.31953E-03 
  62911.2120     0.32374E-03 
  62943.4742     0.32810E-03 
  62975.7363     0.33262E-03 
  63007.9985     0.33729E-03 
  63040.2606     0.34211E-03 
  63072.5228     0.34709E-03 
  63104.7850     0.35223E-03 
  63137.0471     0.35753E-03 
  63169.3093     0.36300E-03 
  63201.5714     0.36862E-03 
  63233.8336     0.37441E-03 
  63266.0958     0.38037E-03 
  63298.3579     0.38650E-03 
  63330.6201     0.39279E-03 
  63362.8822     0.39926E-03 
  63395.1444     0.40590E-03 
  63427.4066     0.41272E-03 
  63459.6687     0.41972E-03 
  63491.9309     0.42689E-03 
  63524.1930     0.43424E-03 
  63556.4552     0.44178E-03 
  63588.7174     0.44950E-03 
  63620.9795     0.45741E-03 
  63653.2417     0.46550E-03 
  63685.5038     0.47378E-03 
  63717.7660     0.48226E-03 
  63750.0282     0.49093E-03 
  63782.2903     0.49979E-03 
  63814.5525     0.50886E-03 
  63846.8146     0.51812E-03 
  63879.0768     0.52758E-03 
  63911.3390     0.53724E-03 
  63943.6011     0.54711E-03 
  63975.8633     0.55719E-03 
  64008.1254     0.56748E-03 
  64040.3876     0.57797E-03 
  64072.6498     0.58868E-03 
  64104.9119     0.59961E-03 
  64137.1741     0.61075E-03 
  64169.4362     0.62211E-03 
  64201.6984     0.63369E-03 
  64233.9606     0.64550E-03 
  64266.2227     0.65753E-03 
  64298.4849     0.66979E-03 
  64330.7470     0.68227E-03 
  64363.0092     0.69499E-03 
  64395.2714     0.70795E-03 
  64427.5335     0.72114E-03 
  64459.7957     0.73456E-03 
  64492.0578     0.74823E-03 
  64524.3200     0.76214E-03 
  64556.5822     0.77630E-03 
  64588.8443     0.79070E-03 
  64621.1065     0.80536E-03 
  64653.3686     0.82026E-03 
  64685.6308     0.83542E-03 
  64717.8930     0.85083E-03 
  64750.1551     0.86651E-03 
  64782.4173     0.88244E-03 
  64814.6794     0.89864E-03 
  64846.9416     0.91510E-03 
  64879.2038     0.93183E-03 
  64911.4659     0.94884E-03 
  64943.7281     0.96611E-03 
  64975.9902     0.98366E-03 
  65008.2524     0.10015E-02 
  65040.5146     0.10196E-02 
  65072.7767     0.10380E-02 
  65105.0389     0.10567E-02 
  65137.3010     0.10756E-02 
  65169.5632     0.10949E-02 
  65201.8254     0.11144E-02 
  65234.0875     0.11343E-02 
  65266.3497     0.11544E-02 
  65298.6118     0.11748E-02 
  65330.8740     0.11956E-02 
  65363.1362     0.12166E-02 
  65395.3983     0.12380E-02 
  65427.6605     0.12596E-02 
  65459.9226     0.12816E-02 
  65492.1848     0.13039E-02 
  65524.4470     0.13265E-02 
  65556.7091     0.13494E-02 
  65588.9713     0.13727E-02 
  65621.2334     0.13962E-02 
  65653.4956     0.14201E-02 
  65685.7578     0.14444E-02 
  65718.0199     0.14689E-02 
  65750.2821     0.14938E-02 
  65782.5442     0.15191E-02 
  65814.8064     0.15447E-02 
  65847.0686     0.15706E-02 
  65879.3307     0.15969E-02 
  65911.5929     0.16235E-02 
  65943.8550     0.16505E-02 
  65976.1172     0.16778E-02 
  66008.3794     0.17055E-02 
  66040.6415     0.17336E-02 
  66072.9037     0.17620E-02 
  66105.1658     0.17908E-02 
  66137.4280     0.18199E-02 
  66169.6902     0.18494E-02 
  66201.9523     0.18793E-02 
  66234.2145     0.19096E-02 
  66266.4766     0.19403E-02 
  66298.7388     0.19713E-02 
  66331.0010     0.20027E-02 
  66363.2631     0.20345E-02 
  66395.5253     0.20667E-02 
  66427.7874     0.20993E-02 
  66460.0496     0.21323E-02 
  66492.3118     0.21657E-02 
  66524.5739     0.21995E-02 
  66556.8361     0.22337E-02 
  66589.0982     0.22683E-02 
  66621.3604     0.23033E-02 
  66653.6226     0.23388E-02 
  66685.8847     0.23746E-02 
  66718.1469     0.24109E-02 
  66750.4090     0.24476E-02 
  66782.6712     0.24847E-02 
  66814.9334     0.25223E-02 
  66847.1955     0.25603E-02 
  66879.4577     0.25987E-02 
  66911.7198     0.26375E-02 
  66943.9820     0.26768E-02 
  66976.2442     0.27165E-02 
  67008.5063     0.27567E-02 
  67040.7685     0.27974E-02 
  67073.0306     0.28384E-02 
  67105.2928     0.28800E-02 
  67137.5550     0.29220E-02 
  67169.8171     0.29644E-02 
  67202.0793     0.30073E-02 
  67234.3414     0.30507E-02 
  67266.6036     0.30946E-02 
  67298.8658     0.31389E-02 
  67331.1279     0.31837E-02 
  67363.3901     0.32290E-02 
  67395.6522     0.32747E-02 
  67427.9144     0.33209E-02 
  67460.1766     0.33677E-02 
  67492.4387     0.34149E-02 
  67524.7009     0.34626E-02 
  67556.9630     0.35108E-02 
  67589.2252     0.35595E-02 
  67621.4874     0.36087E-02 
  67653.7495     0.36583E-02 
  67686.0117     0.37086E-02 
  67718.2738     0.37593E-02 
  67750.5360     0.38105E-02 
  67782.7982     0.38622E-02 
  67815.0603     0.39145E-02 
  67847.3225     0.39672E-02 
  67879.5846     0.40205E-02 
  67911.8468     0.40744E-02 
  67944.1090     0.41287E-02 
  67976.3711     0.41836E-02 
  68008.6333     0.42390E-02 
  68040.8954     0.42949E-02 
  68073.1576     0.43514E-02 
  68105.4198     0.44085E-02 
  68137.6819     0.44660E-02 
  68169.9441     0.45241E-02 
  68202.2062     0.45828E-02 
  68234.4684     0.46420E-02 
  68266.7306     0.47018E-02 
  68298.9927     0.47621E-02 
  68331.2549     0.48230E-02 
  68363.5170     0.48845E-02 
  68395.7792     0.49465E-02 
  68428.0414     0.50091E-02 
  68460.3035     0.50723E-02 
  68492.5657     0.51360E-02 
  68524.8278     0.52003E-02 
  68557.0900     0.52652E-02 
  68589.3522     0.53306E-02 
  68621.6143     0.53967E-02 
  68653.8765     0.54633E-02 
  68686.1386     0.55306E-02 
  68718.4008     0.55984E-02 
  68750.6630     0.56668E-02 
  68782.9251     0.57358E-02 
  68815.1873     0.58054E-02 
  68847.4494     0.58756E-02 
  68879.7116     0.59464E-02 
  68911.9738     0.60178E-02 
  68944.2359     0.60898E-02 
  68976.4981     0.61624E-02 
  69008.7602     0.62356E-02 
  69041.0224     0.63095E-02 
  69073.2846     0.63839E-02 
  69105.5467     0.64590E-02 
  69137.8089     0.65347E-02 
  69170.0710     0.66110E-02 
  69202.3332     0.66880E-02 
  69234.5954     0.67655E-02 
  69266.8575     0.68437E-02 
  69299.1197     0.69226E-02 
  69331.3818     0.70020E-02 
  69363.6440     0.70821E-02 
  69395.9062     0.71629E-02 
  69428.1683     0.72442E-02 
  69460.4305     0.73262E-02 
  69492.6926     0.74089E-02 
  69524.9548     0.74922E-02 
  69557.2170     0.75761E-02 
  69589.4791     0.76607E-02 
  69621.7413     0.77459E-02 
  69654.0034     0.78318E-02 
  69686.2656     0.79184E-02 
  69718.5278     0.80056E-02 
  69750.7899     0.80934E-02 
  69783.0521     0.81819E-02 
  69815.3142     0.82711E-02 
  69847.5764     0.83609E-02 
  69879.8386     0.84514E-02 
  69912.1007     0.85425E-02 
  69944.3629     0.86344E-02 
  69976.6250     0.87268E-02 
  70008.8872     0.88200E-02 
  70041.1494     0.89138E-02 
  70073.4115     0.90083E-02 
  70105.6737     0.91035E-02 
  70137.9358     0.91993E-02 
  70170.1980     0.92958E-02 
  70202.4602     0.93930E-02 
  70234.7223     0.94908E-02 
  70266.9845     0.95894E-02 
  70299.2466     0.96886E-02 
  70331.5088     0.97885E-02 
  70363.7710     0.98890E-02 
  70396.0331     0.99903E-02 
  70428.2953     0.10092E-01 
  70460.5574     0.10195E-01 
  70492.8196     0.10298E-01 
  70525.0818     0.10402E-01 
  70557.3439     0.10507E-01 
  70589.6061     0.10612E-01 
  70621.8682     0.10718E-01 
  70654.1304     0.10825E-01 
  70686.3926     0.10932E-01 
  70718.6547     0.11040E-01 
  70750.9169     0.11149E-01 
  70783.1790     0.11259E-01 
  70815.4412     0.11369E-01 
  70847.7034     0.11480E-01 
  70879.9655     0.11591E-01 
  70912.2277     0.11703E-01 
  70944.4898     0.11816E-01 
  70976.7520     0.11930E-01 
  71009.0142     0.12044E-01 
  71041.2763     0.12159E-01 
  71073.5385     0.12275E-01 
  71105.8006     0.12391E-01 
  71138.0628     0.12508E-01 
  71170.3250     0.12626E-01 
  71202.5871     0.12745E-01 
  71234.8493     0.12864E-01 
  71267.1114     0.12984E-01 
  71299.3736     0.13104E-01 
  71331.6358     0.13225E-01 
  71363.8979     0.13347E-01 
  71396.1601     0.13470E-01 
  71428.4222     0.13593E-01 
  71460.6844     0.13717E-01 
  71492.9466     0.13842E-01 
  71525.2087     0.13967E-01 
  71557.4709     0.14093E-01 
  71589.7330     0.14220E-01 
  71621.9952     0.14347E-01 
  71654.2574     0.14475E-01 
  71686.5195     0.14604E-01 
  71718.7817     0.14733E-01 
  71751.0438     0.14863E-01 
  71783.3060     0.14994E-01 
  71815.5682     0.15126E-01 
  71847.8303     0.15258E-01 
  71880.0925     0.15391E-01 
  71912.3546     0.15524E-01 
  71944.6168     0.15658E-01 
  71976.8790     0.15793E-01 
  72009.1411     0.15928E-01 
  72041.4033     0.16065E-01 
  72073.6654     0.16201E-01 
  72105.9276     0.16339E-01 
  72138.1898     0.16477E-01 
  72170.4519     0.16616E-01 
  72202.7141     0.16755E-01 
  72234.9762     0.16895E-01 
  72267.2384     0.17036E-01 
  72299.5006     0.17178E-01 
  72331.7627     0.17320E-01 
  72364.0249     0.17462E-01 
  72396.2870     0.17606E-01 
  72428.5492     0.17750E-01 
  72460.8114     0.17895E-01 
  72493.0735     0.18040E-01 
  72525.3357     0.18186E-01 
  72557.5978     0.18332E-01 
  72589.8600     0.18480E-01 
