  32262.1600     0.18917E-02 
  32294.4222     0.19165E-02 
  32326.6843     0.19414E-02 
  32358.9465     0.19666E-02 
  32391.2086     0.19921E-02 
  32423.4708     0.20177E-02 
  32455.7330     0.20436E-02 
  32487.9951     0.20697E-02 
  32520.2573     0.20960E-02 
  32552.5194     0.21226E-02 
  32584.7816     0.21494E-02 
  32617.0438     0.21764E-02 
  32649.3059     0.22036E-02 
  32681.5681     0.22311E-02 
  32713.8302     0.22588E-02 
  32746.0924     0.22867E-02 
  32778.3546     0.23149E-02 
  32810.6167     0.23433E-02 
  32842.8789     0.23719E-02 
  32875.1410     0.24008E-02 
  32907.4032     0.24298E-02 
  32939.6654     0.24591E-02 
  32971.9275     0.24887E-02 
  33004.1897     0.25185E-02 
  33036.4518     0.25484E-02 
  33068.7140     0.25787E-02 
  33100.9762     0.26091E-02 
  33133.2383     0.26398E-02 
  33165.5005     0.26707E-02 
  33197.7626     0.27018E-02 
  33230.0248     0.27332E-02 
  33262.2870     0.27648E-02 
  33294.5491     0.27966E-02 
  33326.8113     0.28287E-02 
  33359.0734     0.28609E-02 
  33391.3356     0.28934E-02 
  33423.5978     0.29261E-02 
  33455.8599     0.29591E-02 
  33488.1221     0.29922E-02 
  33520.3842     0.30256E-02 
  33552.6464     0.30592E-02 
  33584.9086     0.30930E-02 
  33617.1707     0.31271E-02 
  33649.4329     0.31613E-02 
  33681.6950     0.31958E-02 
  33713.9572     0.32305E-02 
  33746.2194     0.32655E-02 
  33778.4815     0.33006E-02 
  33810.7437     0.33359E-02 
  33843.0058     0.33715E-02 
  33875.2680     0.34073E-02 
  33907.5302     0.34433E-02 
  33939.7923     0.34795E-02 
  33972.0545     0.35159E-02 
  34004.3166     0.35525E-02 
  34036.5788     0.35893E-02 
  34068.8410     0.36263E-02 
  34101.1031     0.36635E-02 
  34133.3653     0.37010E-02 
  34165.6274     0.37386E-02 
  34197.8896     0.37764E-02 
  34230.1518     0.38145E-02 
  34262.4139     0.38527E-02 
  34294.6761     0.38911E-02 
  34326.9382     0.39298E-02 
  34359.2004     0.39686E-02 
  34391.4626     0.40076E-02 
  34423.7247     0.40468E-02 
  34455.9869     0.40861E-02 
  34488.2490     0.41257E-02 
  34520.5112     0.41654E-02 
  34552.7734     0.42054E-02 
  34585.0355     0.42455E-02 
  34617.2977     0.42858E-02 
  34649.5598     0.43262E-02 
  34681.8220     0.43669E-02 
  34714.0842     0.44077E-02 
  34746.3463     0.44487E-02 
  34778.6085     0.44898E-02 
  34810.8706     0.45311E-02 
  34843.1328     0.45726E-02 
  34875.3950     0.46142E-02 
  34907.6571     0.46560E-02 
  34939.9193     0.46980E-02 
  34972.1814     0.47401E-02 
  35004.4436     0.47824E-02 
  35036.7058     0.48248E-02 
  35068.9679     0.48674E-02 
  35101.2301     0.49101E-02 
  35133.4922     0.49529E-02 
  35165.7544     0.49959E-02 
  35198.0166     0.50390E-02 
  35230.2787     0.50823E-02 
  35262.5409     0.51257E-02 
  35294.8030     0.51692E-02 
  35327.0652     0.52129E-02 
  35359.3274     0.52567E-02 
  35391.5895     0.53006E-02 
  35423.8517     0.53446E-02 
  35456.1138     0.53887E-02 
  35488.3760     0.54330E-02 
  35520.6382     0.54774E-02 
  35552.9003     0.55218E-02 
  35585.1625     0.55664E-02 
  35617.4246     0.56111E-02 
  35649.6868     0.56559E-02 
  35681.9490     0.57008E-02 
  35714.2111     0.57458E-02 
  35746.4733     0.57908E-02 
  35778.7354     0.58360E-02 
  35810.9976     0.58812E-02 
  35843.2598     0.59265E-02 
  35875.5219     0.59719E-02 
  35907.7841     0.60174E-02 
  35940.0462     0.60630E-02 
  35972.3084     0.61086E-02 
  36004.5706     0.61543E-02 
  36036.8327     0.62000E-02 
  36069.0949     0.62458E-02 
  36101.3570     0.62917E-02 
  36133.6192     0.63376E-02 
  36165.8814     0.63836E-02 
  36198.1435     0.64296E-02 
  36230.4057     0.64756E-02 
  36262.6678     0.65217E-02 
  36294.9300     0.65679E-02 
  36327.1922     0.66140E-02 
  36359.4543     0.66602E-02 
  36391.7165     0.67064E-02 
  36423.9786     0.67527E-02 
  36456.2408     0.67989E-02 
  36488.5030     0.68452E-02 
  36520.7651     0.68915E-02 
  36553.0273     0.69378E-02 
  36585.2894     0.69841E-02 
  36617.5516     0.70304E-02 
  36649.8138     0.70767E-02 
  36682.0759     0.71230E-02 
  36714.3381     0.71693E-02 
  36746.6002     0.72156E-02 
  36778.8624     0.72618E-02 
  36811.1246     0.73081E-02 
  36843.3867     0.73543E-02 
  36875.6489     0.74005E-02 
  36907.9110     0.74466E-02 
  36940.1732     0.74928E-02 
  36972.4354     0.75388E-02 
  37004.6975     0.75849E-02 
  37036.9597     0.76309E-02 
  37069.2218     0.76768E-02 
  37101.4840     0.77227E-02 
  37133.7462     0.77686E-02 
  37166.0083     0.78143E-02 
  37198.2705     0.78601E-02 
  37230.5326     0.79057E-02 
  37262.7948     0.79513E-02 
  37295.0570     0.79968E-02 
  37327.3191     0.80422E-02 
  37359.5813     0.80875E-02 
  37391.8434     0.81328E-02 
  37424.1056     0.81780E-02 
  37456.3678     0.82230E-02 
  37488.6299     0.82680E-02 
  37520.8921     0.83129E-02 
  37553.1542     0.83576E-02 
  37585.4164     0.84023E-02 
  37617.6786     0.84468E-02 
  37649.9407     0.84913E-02 
  37682.2029     0.85356E-02 
  37714.4650     0.85798E-02 
  37746.7272     0.86238E-02 
  37778.9894     0.86678E-02 
  37811.2515     0.87116E-02 
  37843.5137     0.87552E-02 
  37875.7758     0.87987E-02 
  37908.0380     0.88421E-02 
  37940.3002     0.88853E-02 
  37972.5623     0.89284E-02 
  38004.8245     0.89713E-02 
  38037.0866     0.90141E-02 
  38069.3488     0.90567E-02 
  38101.6110     0.90991E-02 
  38133.8731     0.91413E-02 
  38166.1353     0.91834E-02 
  38198.3974     0.92253E-02 
  38230.6596     0.92671E-02 
  38262.9218     0.93086E-02 
  38295.1839     0.93500E-02 
  38327.4461     0.93911E-02 
  38359.7082     0.94321E-02 
  38391.9704     0.94728E-02 
  38424.2326     0.95134E-02 
  38456.4947     0.95538E-02 
  38488.7569     0.95939E-02 
  38521.0190     0.96339E-02 
  38553.2812     0.96736E-02 
  38585.5434     0.97131E-02 
  38617.8055     0.97524E-02 
  38650.0677     0.97915E-02 
  38682.3298     0.98303E-02 
  38714.5920     0.98689E-02 
  38746.8542     0.99073E-02 
  38779.1163     0.99454E-02 
  38811.3785     0.99833E-02 
  38843.6406     0.10021E-01 
  38875.9028     0.10058E-01 
  38908.1650     0.10096E-01 
  38940.4271     0.10132E-01 
  38972.6893     0.10169E-01 
  39004.9514     0.10205E-01 
  39037.2136     0.10242E-01 
  39069.4758     0.10277E-01 
  39101.7379     0.10313E-01 
  39134.0001     0.10348E-01 
  39166.2622     0.10383E-01 
  39198.5244     0.10418E-01 
  39230.7866     0.10453E-01 
  39263.0487     0.10487E-01 
  39295.3109     0.10521E-01 
  39327.5730     0.10554E-01 
  39359.8352     0.10588E-01 
  39392.0974     0.10621E-01 
  39424.3595     0.10653E-01 
  39456.6217     0.10686E-01 
  39488.8838     0.10718E-01 
  39521.1460     0.10750E-01 
  39553.4082     0.10781E-01 
  39585.6703     0.10813E-01 
  39617.9325     0.10844E-01 
  39650.1946     0.10874E-01 
  39682.4568     0.10905E-01 
  39714.7190     0.10935E-01 
  39746.9811     0.10964E-01 
  39779.2433     0.10994E-01 
  39811.5054     0.11023E-01 
  39843.7676     0.11051E-01 
  39876.0298     0.11080E-01 
  39908.2919     0.11108E-01 
  39940.5541     0.11135E-01 
  39972.8162     0.11163E-01 
  40005.0784     0.11190E-01 
  40037.3406     0.11216E-01 
  40069.6027     0.11243E-01 
  40101.8649     0.11269E-01 
  40134.1270     0.11294E-01 
  40166.3892     0.11320E-01 
  40198.6514     0.11345E-01 
  40230.9135     0.11369E-01 
  40263.1757     0.11393E-01 
  40295.4378     0.11417E-01 
  40327.7000     0.11441E-01 
  40359.9622     0.11464E-01 
  40392.2243     0.11487E-01 
  40424.4865     0.11509E-01 
  40456.7486     0.11531E-01 
  40489.0108     0.11553E-01 
  40521.2730     0.11574E-01 
  40553.5351     0.11596E-01 
  40585.7973     0.11616E-01 
  40618.0594     0.11636E-01 
  40650.3216     0.11656E-01 
  40682.5838     0.11676E-01 
  40714.8459     0.11695E-01 
  40747.1081     0.11714E-01 
  40779.3702     0.11732E-01 
  40811.6324     0.11750E-01 
  40843.8946     0.11768E-01 
  40876.1567     0.11785E-01 
  40908.4189     0.11802E-01 
  40940.6810     0.11819E-01 
  40972.9432     0.11835E-01 
  41005.2054     0.11851E-01 
  41037.4675     0.11866E-01 
  41069.7297     0.11881E-01 
  41101.9918     0.11896E-01 
  41134.2540     0.11910E-01 
  41166.5162     0.11924E-01 
  41198.7783     0.11937E-01 
  41231.0405     0.11950E-01 
  41263.3026     0.11963E-01 
  41295.5648     0.11975E-01 
  41327.8270     0.11987E-01 
  41360.0891     0.11999E-01 
  41392.3513     0.12010E-01 
  41424.6134     0.12020E-01 
  41456.8756     0.12031E-01 
  41489.1378     0.12041E-01 
  41521.3999     0.12050E-01 
  41553.6621     0.12060E-01 
  41585.9242     0.12068E-01 
  41618.1864     0.12077E-01 
  41650.4486     0.12085E-01 
  41682.7107     0.12093E-01 
  41714.9729     0.12100E-01 
  41747.2350     0.12107E-01 
  41779.4972     0.12113E-01 
  41811.7594     0.12119E-01 
  41844.0215     0.12125E-01 
  41876.2837     0.12130E-01 
  41908.5458     0.12135E-01 
  41940.8080     0.12140E-01 
  41973.0702     0.12144E-01 
  42005.3323     0.12148E-01 
  42037.5945     0.12151E-01 
  42069.8566     0.12154E-01 
  42102.1188     0.12157E-01 
  42134.3810     0.12159E-01 
  42166.6431     0.12161E-01 
  42198.9053     0.12162E-01 
  42231.1674     0.12163E-01 
  42263.4296     0.12164E-01 
  42295.6918     0.12164E-01 
  42327.9539     0.12164E-01 
  42360.2161     0.12164E-01 
  42392.4782     0.12163E-01 
  42424.7404     0.12162E-01 
  42457.0026     0.12160E-01 
  42489.2647     0.12158E-01 
  42521.5269     0.12156E-01 
  42553.7890     0.12153E-01 
  42586.0512     0.12150E-01 
  42618.3134     0.12146E-01 
  42650.5755     0.12143E-01 
  42682.8377     0.12138E-01 
  42715.0998     0.12134E-01 
  42747.3620     0.12129E-01 
  42779.6242     0.12124E-01 
  42811.8863     0.12118E-01 
  42844.1485     0.12112E-01 
  42876.4106     0.12105E-01 
  42908.6728     0.12099E-01 
  42940.9350     0.12091E-01 
  42973.1971     0.12084E-01 
  43005.4593     0.12076E-01 
  43037.7214     0.12068E-01 
  43069.9836     0.12059E-01 
  43102.2458     0.12050E-01 
  43134.5079     0.12041E-01 
  43166.7701     0.12032E-01 
  43199.0322     0.12022E-01 
  43231.2944     0.12011E-01 
  43263.5566     0.12001E-01 
  43295.8187     0.11990E-01 
  43328.0809     0.11978E-01 
  43360.3430     0.11967E-01 
  43392.6052     0.11955E-01 
  43424.8674     0.11942E-01 
  43457.1295     0.11929E-01 
  43489.3917     0.11916E-01 
  43521.6538     0.11903E-01 
  43553.9160     0.11889E-01 
  43586.1782     0.11875E-01 
  43618.4403     0.11861E-01 
  43650.7025     0.11846E-01 
  43682.9646     0.11831E-01 
  43715.2268     0.11816E-01 
  43747.4890     0.11800E-01 
  43779.7511     0.11784E-01 
  43812.0133     0.11768E-01 
  43844.2754     0.11752E-01 
  43876.5376     0.11735E-01 
  43908.7998     0.11717E-01 
  43941.0619     0.11700E-01 
  43973.3241     0.11682E-01 
  44005.5862     0.11664E-01 
  44037.8484     0.11646E-01 
  44070.1106     0.11627E-01 
  44102.3727     0.11608E-01 
  44134.6349     0.11589E-01 
  44166.8970     0.11569E-01 
  44199.1592     0.11549E-01 
  44231.4214     0.11529E-01 
  44263.6835     0.11508E-01 
  44295.9457     0.11488E-01 
  44328.2078     0.11467E-01 
  44360.4700     0.11445E-01 
  44392.7322     0.11424E-01 
  44424.9943     0.11402E-01 
  44457.2565     0.11380E-01 
  44489.5186     0.11357E-01 
  44521.7808     0.11335E-01 
  44554.0430     0.11312E-01 
  44586.3051     0.11289E-01 
  44618.5673     0.11265E-01 
  44650.8294     0.11241E-01 
  44683.0916     0.11218E-01 
  44715.3538     0.11193E-01 
  44747.6159     0.11169E-01 
  44779.8781     0.11144E-01 
  44812.1402     0.11119E-01 
  44844.4024     0.11094E-01 
  44876.6646     0.11069E-01 
  44908.9267     0.11043E-01 
  44941.1889     0.11017E-01 
  44973.4510     0.10991E-01 
  45005.7132     0.10964E-01 
  45037.9754     0.10938E-01 
  45070.2375     0.10911E-01 
  45102.4997     0.10884E-01 
  45134.7618     0.10857E-01 
  45167.0240     0.10829E-01 
  45199.2862     0.10802E-01 
  45231.5483     0.10774E-01 
  45263.8105     0.10746E-01 
  45296.0726     0.10717E-01 
  45328.3348     0.10689E-01 
  45360.5970     0.10660E-01 
  45392.8591     0.10631E-01 
  45425.1213     0.10602E-01 
  45457.3834     0.10573E-01 
  45489.6456     0.10543E-01 
  45521.9078     0.10513E-01 
  45554.1699     0.10484E-01 
  45586.4321     0.10453E-01 
  45618.6942     0.10423E-01 
  45650.9564     0.10393E-01 
  45683.2186     0.10362E-01 
  45715.4807     0.10331E-01 
  45747.7429     0.10300E-01 
  45780.0050     0.10269E-01 
  45812.2672     0.10238E-01 
  45844.5294     0.10207E-01 
  45876.7915     0.10175E-01 
  45909.0537     0.10143E-01 
  45941.3158     0.10111E-01 
  45973.5780     0.10079E-01 
  46005.8402     0.10047E-01 
  46038.1023     0.10014E-01 
  46070.3645     0.99820E-02 
  46102.6266     0.99493E-02 
  46134.8888     0.99165E-02 
  46167.1510     0.98835E-02 
  46199.4131     0.98504E-02 
  46231.6753     0.98172E-02 
  46263.9374     0.97838E-02 
  46296.1996     0.97504E-02 
  46328.4618     0.97168E-02 
  46360.7239     0.96830E-02 
  46392.9861     0.96492E-02 
  46425.2482     0.96152E-02 
  46457.5104     0.95811E-02 
  46489.7726     0.95469E-02 
  46522.0347     0.95126E-02 
  46554.2969     0.94782E-02 
  46586.5590     0.94437E-02 
  46618.8212     0.94091E-02 
  46651.0834     0.93743E-02 
  46683.3455     0.93395E-02 
  46715.6077     0.93046E-02 
  46747.8698     0.92696E-02 
  46780.1320     0.92345E-02 
  46812.3942     0.91993E-02 
  46844.6563     0.91640E-02 
  46876.9185     0.91286E-02 
  46909.1806     0.90932E-02 
  46941.4428     0.90577E-02 
  46973.7050     0.90221E-02 
  47005.9671     0.89864E-02 
  47038.2293     0.89506E-02 
  47070.4914     0.89148E-02 
  47102.7536     0.88789E-02 
  47135.0158     0.88430E-02 
  47167.2779     0.88070E-02 
  47199.5401     0.87709E-02 
  47231.8022     0.87348E-02 
  47264.0644     0.86986E-02 
  47296.3266     0.86623E-02 
  47328.5887     0.86261E-02 
  47360.8509     0.85897E-02 
  47393.1130     0.85533E-02 
  47425.3752     0.85169E-02 
  47457.6374     0.84804E-02 
  47489.8995     0.84439E-02 
  47522.1617     0.84073E-02 
  47554.4238     0.83707E-02 
  47586.6860     0.83341E-02 
  47618.9482     0.82975E-02 
  47651.2103     0.82608E-02 
  47683.4725     0.82241E-02 
  47715.7346     0.81873E-02 
  47747.9968     0.81505E-02 
  47780.2590     0.81138E-02 
  47812.5211     0.80770E-02 
  47844.7833     0.80401E-02 
  47877.0454     0.80033E-02 
  47909.3076     0.79664E-02 
  47941.5698     0.79296E-02 
  47973.8319     0.78927E-02 
  48006.0941     0.78558E-02 
  48038.3562     0.78189E-02 
  48070.6184     0.77821E-02 
  48102.8806     0.77452E-02 
  48135.1427     0.77083E-02 
  48167.4049     0.76714E-02 
  48199.6670     0.76345E-02 
  48231.9292     0.75976E-02 
  48264.1914     0.75608E-02 
  48296.4535     0.75239E-02 
  48328.7157     0.74871E-02 
  48360.9778     0.74502E-02 
  48393.2400     0.74134E-02 
  48425.5022     0.73766E-02 
  48457.7643     0.73398E-02 
  48490.0265     0.73031E-02 
  48522.2886     0.72663E-02 
  48554.5508     0.72296E-02 
  48586.8130     0.71929E-02 
  48619.0751     0.71562E-02 
  48651.3373     0.71196E-02 
  48683.5994     0.70830E-02 
  48715.8616     0.70464E-02 
  48748.1238     0.70099E-02 
  48780.3859     0.69734E-02 
  48812.6481     0.69369E-02 
  48844.9102     0.69005E-02 
  48877.1724     0.68641E-02 
  48909.4346     0.68278E-02 
  48941.6967     0.67915E-02 
  48973.9589     0.67552E-02 
  49006.2210     0.67190E-02 
  49038.4832     0.66828E-02 
  49070.7454     0.66467E-02 
  49103.0075     0.66107E-02 
  49135.2697     0.65747E-02 
  49167.5318     0.65387E-02 
  49199.7940     0.65028E-02 
  49232.0562     0.64670E-02 
  49264.3183     0.64312E-02 
  49296.5805     0.63955E-02 
  49328.8426     0.63598E-02 
  49361.1048     0.63242E-02 
  49393.3670     0.62886E-02 
  49425.6291     0.62532E-02 
  49457.8913     0.62178E-02 
  49490.1534     0.61824E-02 
  49522.4156     0.61471E-02 
  49554.6778     0.61119E-02 
  49586.9399     0.60768E-02 
  49619.2021     0.60417E-02 
  49651.4642     0.60068E-02 
  49683.7264     0.59718E-02 
  49715.9886     0.59370E-02 
  49748.2507     0.59022E-02 
  49780.5129     0.58676E-02 
  49812.7750     0.58330E-02 
  49845.0372     0.57984E-02 
  49877.2994     0.57640E-02 
  49909.5615     0.57296E-02 
  49941.8237     0.56953E-02 
  49974.0858     0.56611E-02 
  50006.3480     0.56270E-02 
  50038.6102     0.55930E-02 
  50070.8723     0.55591E-02 
  50103.1345     0.55252E-02 
  50135.3966     0.54915E-02 
  50167.6588     0.54578E-02 
  50199.9210     0.54242E-02 
  50232.1831     0.53907E-02 
  50264.4453     0.53573E-02 
  50296.7074     0.53240E-02 
  50328.9696     0.52908E-02 
  50361.2318     0.52577E-02 
  50393.4939     0.52247E-02 
  50425.7561     0.51918E-02 
  50458.0182     0.51590E-02 
  50490.2804     0.51263E-02 
  50522.5426     0.50936E-02 
  50554.8047     0.50611E-02 
  50587.0669     0.50287E-02 
  50619.3290     0.49964E-02 
  50651.5912     0.49642E-02 
  50683.8534     0.49321E-02 
  50716.1155     0.49001E-02 
  50748.3777     0.48682E-02 
  50780.6398     0.48364E-02 
  50812.9020     0.48047E-02 
  50845.1642     0.47731E-02 
  50877.4263     0.47416E-02 
  50909.6885     0.47102E-02 
  50941.9506     0.46790E-02 
  50974.2128     0.46478E-02 
  51006.4750     0.46168E-02 
  51038.7371     0.45859E-02 
  51070.9993     0.45550E-02 
  51103.2614     0.45243E-02 
  51135.5236     0.44937E-02 
  51167.7858     0.44632E-02 
  51200.0479     0.44329E-02 
  51232.3101     0.44026E-02 
  51264.5722     0.43725E-02 
  51296.8344     0.43424E-02 
  51329.0966     0.43125E-02 
  51361.3587     0.42827E-02 
  51393.6209     0.42530E-02 
  51425.8830     0.42235E-02 
  51458.1452     0.41940E-02 
  51490.4074     0.41647E-02 
  51522.6695     0.41354E-02 
  51554.9317     0.41063E-02 
  51587.1938     0.40773E-02 
  51619.4560     0.40485E-02 
  51651.7182     0.40197E-02 
  51683.9803     0.39911E-02 
  51716.2425     0.39626E-02 
  51748.5046     0.39342E-02 
  51780.7668     0.39059E-02 
  51813.0290     0.38778E-02 
  51845.2911     0.38497E-02 
  51877.5533     0.38218E-02 
  51909.8154     0.37940E-02 
  51942.0776     0.37664E-02 
  51974.3398     0.37388E-02 
  52006.6019     0.37114E-02 
  52038.8641     0.36841E-02 
  52071.1262     0.36569E-02 
  52103.3884     0.36298E-02 
  52135.6506     0.36029E-02 
  52167.9127     0.35761E-02 
  52200.1749     0.35494E-02 
  52232.4370     0.35228E-02 
  52264.6992     0.34964E-02 
  52296.9614     0.34700E-02 
  52329.2235     0.34438E-02 
  52361.4857     0.34177E-02 
  52393.7478     0.33918E-02 
  52426.0100     0.33659E-02 
  52458.2722     0.33402E-02 
  52490.5343     0.33146E-02 
  52522.7965     0.32892E-02 
  52555.0586     0.32638E-02 
  52587.3208     0.32386E-02 
  52619.5830     0.32135E-02 
  52651.8451     0.31885E-02 
  52684.1073     0.31637E-02 
  52716.3694     0.31390E-02 
  52748.6316     0.31143E-02 
  52780.8938     0.30899E-02 
  52813.1559     0.30655E-02 
  52845.4181     0.30413E-02 
  52877.6802     0.30172E-02 
  52909.9424     0.29932E-02 
  52942.2046     0.29693E-02 
  52974.4667     0.29456E-02 
  53006.7289     0.29220E-02 
  53038.9910     0.28985E-02 
  53071.2532     0.28751E-02 
  53103.5154     0.28518E-02 
  53135.7775     0.28287E-02 
  53168.0397     0.28057E-02 
  53200.3018     0.27828E-02 
  53232.5640     0.27601E-02 
  53264.8262     0.27374E-02 
  53297.0883     0.27149E-02 
  53329.3505     0.26925E-02 
  53361.6126     0.26702E-02 
  53393.8748     0.26481E-02 
  53426.1370     0.26260E-02 
  53458.3991     0.26041E-02 
  53490.6613     0.25823E-02 
  53522.9234     0.25607E-02 
  53555.1856     0.25391E-02 
  53587.4478     0.25177E-02 
  53619.7099     0.24964E-02 
  53651.9721     0.24752E-02 
  53684.2342     0.24541E-02 
  53716.4964     0.24332E-02 
  53748.7586     0.24124E-02 
  53781.0207     0.23917E-02 
  53813.2829     0.23711E-02 
  53845.5450     0.23506E-02 
  53877.8072     0.23303E-02 
  53910.0694     0.23100E-02 
  53942.3315     0.22899E-02 
  53974.5937     0.22699E-02 
  54006.8558     0.22500E-02 
  54039.1180     0.22303E-02 
  54071.3802     0.22106E-02 
  54103.6423     0.21911E-02 
  54135.9045     0.21717E-02 
  54168.1666     0.21524E-02 
  54200.4288     0.21332E-02 
  54232.6910     0.21141E-02 
  54264.9531     0.20952E-02 
  54297.2153     0.20763E-02 
  54329.4774     0.20576E-02 
  54361.7396     0.20390E-02 
  54394.0018     0.20205E-02 
  54426.2639     0.20021E-02 
  54458.5261     0.19838E-02 
  54490.7882     0.19657E-02 
  54523.0504     0.19476E-02 
  54555.3126     0.19297E-02 
  54587.5747     0.19119E-02 
  54619.8369     0.18942E-02 
  54652.0990     0.18766E-02 
  54684.3612     0.18591E-02 
  54716.6234     0.18417E-02 
  54748.8855     0.18245E-02 
  54781.1477     0.18073E-02 
  54813.4098     0.17903E-02 
  54845.6720     0.17733E-02 
  54877.9342     0.17565E-02 
  54910.1963     0.17398E-02 
  54942.4585     0.17232E-02 
  54974.7206     0.17067E-02 
  55006.9828     0.16903E-02 
  55039.2450     0.16740E-02 
  55071.5071     0.16578E-02 
  55103.7693     0.16417E-02 
  55136.0314     0.16258E-02 
  55168.2936     0.16099E-02 
  55200.5558     0.15941E-02 
  55232.8179     0.15785E-02 
  55265.0801     0.15629E-02 
  55297.3422     0.15475E-02 
  55329.6044     0.15321E-02 
  55361.8666     0.15169E-02 
  55394.1287     0.15017E-02 
  55426.3909     0.14867E-02 
  55458.6530     0.14718E-02 
  55490.9152     0.14569E-02 
  55523.1774     0.14422E-02 
  55555.4395     0.14276E-02 
  55587.7017     0.14130E-02 
  55619.9638     0.13986E-02 
  55652.2260     0.13843E-02 
  55684.4882     0.13700E-02 
  55716.7503     0.13559E-02 
  55749.0125     0.13418E-02 
  55781.2746     0.13279E-02 
  55813.5368     0.13141E-02 
  55845.7990     0.13003E-02 
  55878.0611     0.12867E-02 
  55910.3233     0.12731E-02 
  55942.5854     0.12597E-02 
  55974.8476     0.12463E-02 
  56007.1098     0.12330E-02 
  56039.3719     0.12198E-02 
  56071.6341     0.12068E-02 
  56103.8962     0.11938E-02 
  56136.1584     0.11809E-02 
  56168.4206     0.11681E-02 
  56200.6827     0.11554E-02 
  56232.9449     0.11428E-02 
  56265.2070     0.11302E-02 
  56297.4692     0.11178E-02 
  56329.7314     0.11054E-02 
  56361.9935     0.10932E-02 
  56394.2557     0.10810E-02 
  56426.5178     0.10690E-02 
  56458.7800     0.10570E-02 
  56491.0422     0.10451E-02 
  56523.3043     0.10333E-02 
  56555.5665     0.10215E-02 
  56587.8286     0.10099E-02 
  56620.0908     0.99836E-03 
  56652.3530     0.98690E-03 
  56684.6151     0.97552E-03 
  56716.8773     0.96423E-03 
  56749.1394     0.95303E-03 
  56781.4016     0.94191E-03 
  56813.6638     0.93087E-03 
  56845.9259     0.91992E-03 
  56878.1881     0.90905E-03 
  56910.4502     0.89826E-03 
  56942.7124     0.88756E-03 
  56974.9746     0.87694E-03 
  57007.2367     0.86640E-03 
  57039.4989     0.85595E-03 
  57071.7610     0.84557E-03 
  57104.0232     0.83528E-03 
  57136.2854     0.82506E-03 
  57168.5475     0.81493E-03 
  57200.8097     0.80487E-03 
  57233.0718     0.79490E-03 
  57265.3340     0.78500E-03 
  57297.5962     0.77518E-03 
  57329.8583     0.76544E-03 
  57362.1205     0.75577E-03 
  57394.3826     0.74619E-03 
  57426.6448     0.73668E-03 
  57458.9070     0.72724E-03 
  57491.1691     0.71788E-03 
  57523.4313     0.70860E-03 
  57555.6934     0.69939E-03 
  57587.9556     0.69026E-03 
  57620.2178     0.68120E-03 
  57652.4799     0.67222E-03 
  57684.7421     0.66331E-03 
  57717.0042     0.65447E-03 
  57749.2664     0.64571E-03 
  57781.5286     0.63702E-03 
  57813.7907     0.62840E-03 
  57846.0529     0.61985E-03 
  57878.3150     0.61138E-03 
  57910.5772     0.60297E-03 
  57942.8394     0.59464E-03 
  57975.1015     0.58637E-03 
  58007.3637     0.57818E-03 
  58039.6258     0.57006E-03 
  58071.8880     0.56200E-03 
  58104.1502     0.55402E-03 
  58136.4123     0.54610E-03 
  58168.6745     0.53825E-03 
  58200.9366     0.53047E-03 
  58233.1988     0.52276E-03 
  58265.4610     0.51511E-03 
  58297.7231     0.50753E-03 
  58329.9853     0.50002E-03 
  58362.2474     0.49257E-03 
  58394.5096     0.48519E-03 
  58426.7718     0.47788E-03 
  58459.0339     0.47063E-03 
  58491.2961     0.46345E-03 
  58523.5582     0.45633E-03 
  58555.8204     0.44927E-03 
  58588.0826     0.44228E-03 
  58620.3447     0.43536E-03 
  58652.6069     0.42849E-03 
  58684.8690     0.42169E-03 
  58717.1312     0.41495E-03 
  58749.3934     0.40828E-03 
  58781.6555     0.40167E-03 
  58813.9177     0.39512E-03 
  58846.1798     0.38863E-03 
  58878.4420     0.38220E-03 
  58910.7042     0.37583E-03 
  58942.9663     0.36953E-03 
  58975.2285     0.36329E-03 
  59007.4906     0.35710E-03 
  59039.7528     0.35098E-03 
  59072.0150     0.34491E-03 
  59104.2771     0.33891E-03 
  59136.5393     0.33296E-03 
  59168.8014     0.32708E-03 
  59201.0636     0.32125E-03 
  59233.3258     0.31548E-03 
  59265.5879     0.30977E-03 
  59297.8501     0.30412E-03 
  59330.1122     0.29853E-03 
  59362.3744     0.29299E-03 
  59394.6366     0.28751E-03 
  59426.8987     0.28209E-03 
  59459.1609     0.27672E-03 
  59491.4230     0.27142E-03 
  59523.6852     0.26617E-03 
  59555.9474     0.26097E-03 
  59588.2095     0.25583E-03 
  59620.4717     0.25075E-03 
  59652.7338     0.24572E-03 
  59684.9960     0.24075E-03 
  59717.2582     0.23584E-03 
  59749.5203     0.23098E-03 
  59781.7825     0.22617E-03 
  59814.0446     0.22142E-03 
  59846.3068     0.21673E-03 
  59878.5690     0.21209E-03 
  59910.8311     0.20750E-03 
  59943.0933     0.20297E-03 
  59975.3554     0.19849E-03 
  60007.6176     0.19407E-03 
  60039.8798     0.18970E-03 
  60072.1419     0.18539E-03 
  60104.4041     0.18113E-03 
  60136.6662     0.17692E-03 
  60168.9284     0.17276E-03 
  60201.1906     0.16866E-03 
  60233.4527     0.16462E-03 
  60265.7149     0.16062E-03 
  60297.9770     0.15668E-03 
  60330.2392     0.15279E-03 
  60362.5014     0.14896E-03 
  60394.7635     0.14517E-03 
  60427.0257     0.14144E-03 
  60459.2878     0.13777E-03 
  60491.5500     0.13414E-03 
  60523.8122     0.13057E-03 
  60556.0743     0.12705E-03 
  60588.3365     0.12359E-03 
  60620.5986     0.12017E-03 
  60652.8608     0.11681E-03 
  60685.1230     0.11350E-03 
  60717.3851     0.11025E-03 
  60749.6473     0.10704E-03 
  60781.9094     0.10389E-03 
  60814.1716     0.10079E-03 
  60846.4338     0.97747E-04 
  60878.6959     0.94754E-04 
  60910.9581     0.91813E-04 
  60943.2202     0.88924E-04 
  60975.4824     0.86089E-04 
  61007.7446     0.83306E-04 
  61040.0067     0.80576E-04 
  61072.2689     0.77898E-04 
  61104.5310     0.75274E-04 
  61136.7932     0.72703E-04 
  61169.0554     0.70185E-04 
  61201.3175     0.67720E-04 
  61233.5797     0.65308E-04 
  61265.8418     0.62950E-04 
  61298.1040     0.60646E-04 
  61330.3662     0.58395E-04 
  61362.6283     0.56198E-04 
  61394.8905     0.54056E-04 
  61427.1526     0.51967E-04 
  61459.4148     0.49933E-04 
  61491.6770     0.47953E-04 
  61523.9391     0.46028E-04 
  61556.2013     0.44158E-04 
  61588.4634     0.42344E-04 
  61620.7256     0.40584E-04 
  61652.9878     0.38880E-04 
  61685.2499     0.37233E-04 
  61717.5121     0.35641E-04 
  61749.7742     0.34105E-04 
  61782.0364     0.32627E-04 
  61814.2986     0.31205E-04 
  61846.5607     0.29841E-04 
  61878.8229     0.28534E-04 
  61911.0850     0.27285E-04 
  61943.3472     0.26094E-04 
  61975.6094     0.24962E-04 
  62007.8715     0.23888E-04 
  62040.1337     0.22874E-04 
  62072.3958     0.21920E-04 
  62104.6580     0.21026E-04 
  62136.9202     0.20192E-04 
  62169.1823     0.19419E-04 
  62201.4445     0.18708E-04 
  62233.7066     0.18058E-04 
  62265.9688     0.17471E-04 
  62298.2310     0.16946E-04 
  62330.4931     0.16485E-04 
  62362.7553     0.16088E-04 
  62395.0174     0.15754E-04 
  62427.2796     0.15486E-04 
  62459.5418     0.15283E-04 
  62491.8039     0.15146E-04 
  62524.0661     0.15075E-04 
  62556.3282     0.15072E-04 
  62588.5904     0.15136E-04 
  62620.8526     0.15269E-04 
  62653.1147     0.15471E-04 
  62685.3769     0.15743E-04 
  62717.6390     0.16085E-04 
  62749.9012     0.16498E-04 
  62782.1634     0.16983E-04 
  62814.4255     0.17541E-04 
  62846.6877     0.18172E-04 
  62878.9498     0.18878E-04 
  62911.2120     0.19658E-04 
  62943.4742     0.20515E-04 
  62975.7363     0.21448E-04 
  63007.9985     0.22458E-04 
  63040.2606     0.23547E-04 
  63072.5228     0.24715E-04 
  63104.7850     0.25964E-04 
  63137.0471     0.27294E-04 
  63169.3093     0.28706E-04 
  63201.5714     0.30202E-04 
  63233.8336     0.31782E-04 
  63266.0958     0.33447E-04 
  63298.3579     0.35198E-04 
  63330.6201     0.37037E-04 
  63362.8822     0.38965E-04 
  63395.1444     0.40983E-04 
  63427.4066     0.43091E-04 
  63459.6687     0.45292E-04 
  63491.9309     0.47587E-04 
  63524.1930     0.49976E-04 
  63556.4552     0.52461E-04 
  63588.7174     0.55043E-04 
  63620.9795     0.57724E-04 
  63653.2417     0.60506E-04 
  63685.5038     0.63389E-04 
  63717.7660     0.66374E-04 
  63750.0282     0.69465E-04 
  63782.2903     0.72661E-04 
  63814.5525     0.75965E-04 
  63846.8146     0.79377E-04 
  63879.0768     0.82901E-04 
  63911.3390     0.86537E-04 
  63943.6011     0.90287E-04 
  63975.8633     0.94152E-04 
  64008.1254     0.98136E-04 
  64040.3876     0.10224E-03 
  64072.6498     0.10646E-03 
  64104.9119     0.11081E-03 
  64137.1741     0.11528E-03 
  64169.4362     0.11988E-03 
  64201.6984     0.12461E-03 
  64233.9606     0.12946E-03 
  64266.2227     0.13445E-03 
  64298.4849     0.13958E-03 
  64330.7470     0.14484E-03 
  64363.0092     0.15025E-03 
  64395.2714     0.15579E-03 
  64427.5335     0.16148E-03 
  64459.7957     0.16731E-03 
  64492.0578     0.17330E-03 
  64524.3200     0.17943E-03 
  64556.5822     0.18572E-03 
  64588.8443     0.19216E-03 
  64621.1065     0.19877E-03 
  64653.3686     0.20553E-03 
  64685.6308     0.21246E-03 
  64717.8930     0.21955E-03 
  64750.1551     0.22682E-03 
  64782.4173     0.23425E-03 
  64814.6794     0.24186E-03 
  64846.9416     0.24965E-03 
  64879.2038     0.25762E-03 
  64911.4659     0.26578E-03 
  64943.7281     0.27412E-03 
  64975.9902     0.28266E-03 
  65008.2524     0.29138E-03 
  65040.5146     0.30031E-03 
  65072.7767     0.30943E-03 
  65105.0389     0.31876E-03 
  65137.3010     0.32829E-03 
  65169.5632     0.33804E-03 
  65201.8254     0.34800E-03 
  65234.0875     0.35818E-03 
  65266.3497     0.36858E-03 
  65298.6118     0.37921E-03 
  65330.8740     0.39006E-03 
  65363.1362     0.40115E-03 
  65395.3983     0.41248E-03 
  65427.6605     0.42405E-03 
  65459.9226     0.43587E-03 
  65492.1848     0.44793E-03 
  65524.4470     0.46025E-03 
  65556.7091     0.47283E-03 
  65588.9713     0.48567E-03 
  65621.2334     0.49878E-03 
  65653.4956     0.51217E-03 
  65685.7578     0.52583E-03 
  65718.0199     0.53977E-03 
  65750.2821     0.55400E-03 
  65782.5442     0.56852E-03 
  65814.8064     0.58334E-03 
  65847.0686     0.59846E-03 
  65879.3307     0.61389E-03 
  65911.5929     0.62963E-03 
  65943.8550     0.64569E-03 
  65976.1172     0.66207E-03 
  66008.3794     0.67878E-03 
  66040.6415     0.69583E-03 
  66072.9037     0.71322E-03 
  66105.1658     0.73095E-03 
  66137.4280     0.74903E-03 
  66169.6902     0.76748E-03 
  66201.9523     0.78629E-03 
  66234.2145     0.80547E-03 
  66266.4766     0.82503E-03 
  66298.7388     0.84497E-03 
  66331.0010     0.86530E-03 
  66363.2631     0.88603E-03 
  66395.5253     0.90716E-03 
  66427.7874     0.92870E-03 
  66460.0496     0.95066E-03 
  66492.3118     0.97305E-03 
  66524.5739     0.99587E-03 
  66556.8361     0.10191E-02 
  66589.0982     0.10428E-02 
  66621.3604     0.10670E-02 
  66653.6226     0.10916E-02 
  66685.8847     0.11167E-02 
  66718.1469     0.11423E-02 
  66750.4090     0.11683E-02 
  66782.6712     0.11949E-02 
  66814.9334     0.12219E-02 
  66847.1955     0.12495E-02 
  66879.4577     0.12775E-02 
  66911.7198     0.13061E-02 
  66943.9820     0.13353E-02 
  66976.2442     0.13650E-02 
  67008.5063     0.13952E-02 
  67040.7685     0.14260E-02 
  67073.0306     0.14574E-02 
  67105.2928     0.14893E-02 
  67137.5550     0.15219E-02 
  67169.8171     0.15550E-02 
  67202.0793     0.15888E-02 
  67234.3414     0.16232E-02 
  67266.6036     0.16582E-02 
  67298.8658     0.16938E-02 
  67331.1279     0.17301E-02 
  67363.3901     0.17671E-02 
  67395.6522     0.18047E-02 
  67427.9144     0.18430E-02 
  67460.1766     0.18820E-02 
  67492.4387     0.19217E-02 
  67524.7009     0.19622E-02 
  67556.9630     0.20033E-02 
  67589.2252     0.20452E-02 
  67621.4874     0.20879E-02 
  67653.7495     0.21313E-02 
  67686.0117     0.21754E-02 
  67718.2738     0.22204E-02 
  67750.5360     0.22662E-02 
  67782.7982     0.23127E-02 
  67815.0603     0.23601E-02 
  67847.3225     0.24083E-02 
  67879.5846     0.24574E-02 
  67911.8468     0.25073E-02 
  67944.1090     0.25582E-02 
  67976.3711     0.26098E-02 
  68008.6333     0.26624E-02 
  68040.8954     0.27159E-02 
  68073.1576     0.27704E-02 
  68105.4198     0.28257E-02 
  68137.6819     0.28821E-02 
  68169.9441     0.29394E-02 
  68202.2062     0.29976E-02 
  68234.4684     0.30569E-02 
  68266.7306     0.31172E-02 
  68298.9927     0.31785E-02 
  68331.2549     0.32409E-02 
  68363.5170     0.33043E-02 
  68395.7792     0.33688E-02 
  68428.0414     0.34343E-02 
  68460.3035     0.35010E-02 
  68492.5657     0.35688E-02 
  68524.8278     0.36377E-02 
  68557.0900     0.37078E-02 
  68589.3522     0.37790E-02 
  68621.6143     0.38514E-02 
  68653.8765     0.39250E-02 
  68686.1386     0.39999E-02 
  68718.4008     0.40759E-02 
  68750.6630     0.41532E-02 
  68782.9251     0.42318E-02 
  68815.1873     0.43116E-02 
  68847.4494     0.43928E-02 
  68879.7116     0.44753E-02 
  68911.9738     0.45591E-02 
  68944.2359     0.46442E-02 
  68976.4981     0.47307E-02 
  69008.7602     0.48186E-02 
  69041.0224     0.49079E-02 
  69073.2846     0.49987E-02 
  69105.5467     0.50909E-02 
  69137.8089     0.51845E-02 
  69170.0710     0.52796E-02 
  69202.3332     0.53762E-02 
  69234.5954     0.54744E-02 
  69266.8575     0.55740E-02 
  69299.1197     0.56753E-02 
  69331.3818     0.57781E-02 
  69363.6440     0.58825E-02 
  69395.9062     0.59885E-02 
  69428.1683     0.60961E-02 
  69460.4305     0.62054E-02 
  69492.6926     0.63164E-02 
  69524.9548     0.64290E-02 
  69557.2170     0.65434E-02 
  69589.4791     0.66595E-02 
  69621.7413     0.67774E-02 
  69654.0034     0.68970E-02 
  69686.2656     0.70184E-02 
  69718.5278     0.71417E-02 
  69750.7899     0.72668E-02 
  69783.0521     0.73937E-02 
  69815.3142     0.75225E-02 
  69847.5764     0.76533E-02 
  69879.8386     0.77859E-02 
  69912.1007     0.79205E-02 
  69944.3629     0.80570E-02 
  69976.6250     0.81956E-02 
  70008.8872     0.83361E-02 
  70041.1494     0.84787E-02 
  70073.4115     0.86233E-02 
  70105.6737     0.87700E-02 
  70137.9358     0.89188E-02 
  70170.1980     0.90697E-02 
  70202.4602     0.92228E-02 
  70234.7223     0.93780E-02 
  70266.9845     0.95354E-02 
  70299.2466     0.96950E-02 
  70331.5088     0.98568E-02 
  70363.7710     0.10021E-01 
  70396.0331     0.10187E-01 
  70428.2953     0.10356E-01 
  70460.5574     0.10527E-01 
  70492.8196     0.10700E-01 
  70525.0818     0.10876E-01 
  70557.3439     0.11054E-01 
  70589.6061     0.11234E-01 
  70621.8682     0.11417E-01 
  70654.1304     0.11602E-01 
  70686.3926     0.11790E-01 
  70718.6547     0.11981E-01 
  70750.9169     0.12173E-01 
  70783.1790     0.12369E-01 
  70815.4412     0.12567E-01 
  70847.7034     0.12767E-01 
  70879.9655     0.12970E-01 
  70912.2277     0.13176E-01 
  70944.4898     0.13385E-01 
  70976.7520     0.13596E-01 
  71009.0142     0.13809E-01 
  71041.2763     0.14026E-01 
  71073.5385     0.14245E-01 
  71105.8006     0.14467E-01 
  71138.0628     0.14692E-01 
  71170.3250     0.14920E-01 
  71202.5871     0.15150E-01 
  71234.8493     0.15384E-01 
  71267.1114     0.15620E-01 
  71299.3736     0.15859E-01 
  71331.6358     0.16101E-01 
  71363.8979     0.16346E-01 
  71396.1601     0.16594E-01 
  71428.4222     0.16845E-01 
  71460.6844     0.17099E-01 
  71492.9466     0.17356E-01 
  71525.2087     0.17616E-01 
  71557.4709     0.17879E-01 
  71589.7330     0.18145E-01 
  71621.9952     0.18414E-01 
  71654.2574     0.18686E-01 
  71686.5195     0.18962E-01 
  71718.7817     0.19241E-01 
  71751.0438     0.19523E-01 
  71783.3060     0.19808E-01 
  71815.5682     0.20096E-01 
  71847.8303     0.20388E-01 
  71880.0925     0.20683E-01 
  71912.3546     0.20981E-01 
  71944.6168     0.21282E-01 
  71976.8790     0.21587E-01 
  72009.1411     0.21895E-01 
  72041.4033     0.22207E-01 
  72073.6654     0.22522E-01 
  72105.9276     0.22840E-01 
  72138.1898     0.23162E-01 
  72170.4519     0.23487E-01 
  72202.7141     0.23815E-01 
  72234.9762     0.24147E-01 
  72267.2384     0.24483E-01 
  72299.5006     0.24822E-01 
  72331.7627     0.25165E-01 
  72364.0249     0.25511E-01 
  72396.2870     0.25860E-01 
  72428.5492     0.26214E-01 
  72460.8114     0.26570E-01 
  72493.0735     0.26931E-01 
  72525.3357     0.27295E-01 
  72557.5978     0.27662E-01 
  72589.8600     0.28033E-01 
