  32262.1600     0.17201E-04 
  32294.4222     0.17352E-04 
  32326.6843     0.17503E-04 
  32358.9465     0.17655E-04 
  32391.2086     0.17808E-04 
  32423.4708     0.17961E-04 
  32455.7330     0.18116E-04 
  32487.9951     0.18271E-04 
  32520.2573     0.18427E-04 
  32552.5194     0.18584E-04 
  32584.7816     0.18741E-04 
  32617.0438     0.18899E-04 
  32649.3059     0.19058E-04 
  32681.5681     0.19218E-04 
  32713.8302     0.19379E-04 
  32746.0924     0.19540E-04 
  32778.3546     0.19702E-04 
  32810.6167     0.19865E-04 
  32842.8789     0.20029E-04 
  32875.1410     0.20193E-04 
  32907.4032     0.20358E-04 
  32939.6654     0.20524E-04 
  32971.9275     0.20690E-04 
  33004.1897     0.20857E-04 
  33036.4518     0.21025E-04 
  33068.7140     0.21194E-04 
  33100.9762     0.21364E-04 
  33133.2383     0.21534E-04 
  33165.5005     0.21705E-04 
  33197.7626     0.21876E-04 
  33230.0248     0.22049E-04 
  33262.2870     0.22222E-04 
  33294.5491     0.22396E-04 
  33326.8113     0.22570E-04 
  33359.0734     0.22745E-04 
  33391.3356     0.22921E-04 
  33423.5978     0.23098E-04 
  33455.8599     0.23275E-04 
  33488.1221     0.23453E-04 
  33520.3842     0.23632E-04 
  33552.6464     0.23811E-04 
  33584.9086     0.23991E-04 
  33617.1707     0.24172E-04 
  33649.4329     0.24353E-04 
  33681.6950     0.24535E-04 
  33713.9572     0.24718E-04 
  33746.2194     0.24901E-04 
  33778.4815     0.25085E-04 
  33810.7437     0.25270E-04 
  33843.0058     0.25455E-04 
  33875.2680     0.25641E-04 
  33907.5302     0.25827E-04 
  33939.7923     0.26014E-04 
  33972.0545     0.26202E-04 
  34004.3166     0.26391E-04 
  34036.5788     0.26580E-04 
  34068.8410     0.26769E-04 
  34101.1031     0.26960E-04 
  34133.3653     0.27150E-04 
  34165.6274     0.27342E-04 
  34197.8896     0.27534E-04 
  34230.1518     0.27727E-04 
  34262.4139     0.27920E-04 
  34294.6761     0.28114E-04 
  34326.9382     0.28308E-04 
  34359.2004     0.28503E-04 
  34391.4626     0.28698E-04 
  34423.7247     0.28894E-04 
  34455.9869     0.29091E-04 
  34488.2490     0.29288E-04 
  34520.5112     0.29485E-04 
  34552.7734     0.29684E-04 
  34585.0355     0.29882E-04 
  34617.2977     0.30082E-04 
  34649.5598     0.30281E-04 
  34681.8220     0.30481E-04 
  34714.0842     0.30682E-04 
  34746.3463     0.30883E-04 
  34778.6085     0.31085E-04 
  34810.8706     0.31287E-04 
  34843.1328     0.31490E-04 
  34875.3950     0.31693E-04 
  34907.6571     0.31897E-04 
  34939.9193     0.32101E-04 
  34972.1814     0.32305E-04 
  35004.4436     0.32510E-04 
  35036.7058     0.32715E-04 
  35068.9679     0.32921E-04 
  35101.2301     0.33127E-04 
  35133.4922     0.33334E-04 
  35165.7544     0.33541E-04 
  35198.0166     0.33748E-04 
  35230.2787     0.33956E-04 
  35262.5409     0.34164E-04 
  35294.8030     0.34373E-04 
  35327.0652     0.34582E-04 
  35359.3274     0.34791E-04 
  35391.5895     0.35001E-04 
  35423.8517     0.35211E-04 
  35456.1138     0.35421E-04 
  35488.3760     0.35632E-04 
  35520.6382     0.35843E-04 
  35552.9003     0.36054E-04 
  35585.1625     0.36266E-04 
  35617.4246     0.36478E-04 
  35649.6868     0.36690E-04 
  35681.9490     0.36902E-04 
  35714.2111     0.37115E-04 
  35746.4733     0.37328E-04 
  35778.7354     0.37541E-04 
  35810.9976     0.37755E-04 
  35843.2598     0.37969E-04 
  35875.5219     0.38183E-04 
  35907.7841     0.38397E-04 
  35940.0462     0.38612E-04 
  35972.3084     0.38827E-04 
  36004.5706     0.39042E-04 
  36036.8327     0.39257E-04 
  36069.0949     0.39472E-04 
  36101.3570     0.39688E-04 
  36133.6192     0.39903E-04 
  36165.8814     0.40119E-04 
  36198.1435     0.40335E-04 
  36230.4057     0.40551E-04 
  36262.6678     0.40768E-04 
  36294.9300     0.40984E-04 
  36327.1922     0.41201E-04 
  36359.4543     0.41417E-04 
  36391.7165     0.41634E-04 
  36423.9786     0.41851E-04 
  36456.2408     0.42068E-04 
  36488.5030     0.42285E-04 
  36520.7651     0.42502E-04 
  36553.0273     0.42719E-04 
  36585.2894     0.42937E-04 
  36617.5516     0.43154E-04 
  36649.8138     0.43371E-04 
  36682.0759     0.43589E-04 
  36714.3381     0.43806E-04 
  36746.6002     0.44023E-04 
  36778.8624     0.44241E-04 
  36811.1246     0.44458E-04 
  36843.3867     0.44675E-04 
  36875.6489     0.44893E-04 
  36907.9110     0.45110E-04 
  36940.1732     0.45327E-04 
  36972.4354     0.45544E-04 
  37004.6975     0.45762E-04 
  37036.9597     0.45979E-04 
  37069.2218     0.46196E-04 
  37101.4840     0.46412E-04 
  37133.7462     0.46629E-04 
  37166.0083     0.46846E-04 
  37198.2705     0.47062E-04 
  37230.5326     0.47279E-04 
  37262.7948     0.47495E-04 
  37295.0570     0.47711E-04 
  37327.3191     0.47927E-04 
  37359.5813     0.48143E-04 
  37391.8434     0.48359E-04 
  37424.1056     0.48574E-04 
  37456.3678     0.48789E-04 
  37488.6299     0.49004E-04 
  37520.8921     0.49219E-04 
  37553.1542     0.49434E-04 
  37585.4164     0.49648E-04 
  37617.6786     0.49862E-04 
  37649.9407     0.50076E-04 
  37682.2029     0.50290E-04 
  37714.4650     0.50503E-04 
  37746.7272     0.50716E-04 
  37778.9894     0.50929E-04 
  37811.2515     0.51141E-04 
  37843.5137     0.51353E-04 
  37875.7758     0.51565E-04 
  37908.0380     0.51777E-04 
  37940.3002     0.51988E-04 
  37972.5623     0.52199E-04 
  38004.8245     0.52409E-04 
  38037.0866     0.52619E-04 
  38069.3488     0.52829E-04 
  38101.6110     0.53038E-04 
  38133.8731     0.53247E-04 
  38166.1353     0.53456E-04 
  38198.3974     0.53664E-04 
  38230.6596     0.53872E-04 
  38262.9218     0.54079E-04 
  38295.1839     0.54286E-04 
  38327.4461     0.54492E-04 
  38359.7082     0.54698E-04 
  38391.9704     0.54904E-04 
  38424.2326     0.55109E-04 
  38456.4947     0.55313E-04 
  38488.7569     0.55517E-04 
  38521.0190     0.55720E-04 
  38553.2812     0.55923E-04 
  38585.5434     0.56126E-04 
  38617.8055     0.56328E-04 
  38650.0677     0.56529E-04 
  38682.3298     0.56730E-04 
  38714.5920     0.56930E-04 
  38746.8542     0.57130E-04 
  38779.1163     0.57329E-04 
  38811.3785     0.57527E-04 
  38843.6406     0.57725E-04 
  38875.9028     0.57922E-04 
  38908.1650     0.58119E-04 
  38940.4271     0.58315E-04 
  38972.6893     0.58511E-04 
  39004.9514     0.58705E-04 
  39037.2136     0.58899E-04 
  39069.4758     0.59093E-04 
  39101.7379     0.59286E-04 
  39134.0001     0.59478E-04 
  39166.2622     0.59669E-04 
  39198.5244     0.59860E-04 
  39230.7866     0.60050E-04 
  39263.0487     0.60239E-04 
  39295.3109     0.60427E-04 
  39327.5730     0.60615E-04 
  39359.8352     0.60802E-04 
  39392.0974     0.60988E-04 
  39424.3595     0.61174E-04 
  39456.6217     0.61359E-04 
  39488.8838     0.61543E-04 
  39521.1460     0.61726E-04 
  39553.4082     0.61908E-04 
  39585.6703     0.62090E-04 
  39617.9325     0.62271E-04 
  39650.1946     0.62451E-04 
  39682.4568     0.62630E-04 
  39714.7190     0.62808E-04 
  39746.9811     0.62985E-04 
  39779.2433     0.63162E-04 
  39811.5054     0.63338E-04 
  39843.7676     0.63512E-04 
  39876.0298     0.63686E-04 
  39908.2919     0.63859E-04 
  39940.5541     0.64032E-04 
  39972.8162     0.64203E-04 
  40005.0784     0.64373E-04 
  40037.3406     0.64543E-04 
  40069.6027     0.64711E-04 
  40101.8649     0.64879E-04 
  40134.1270     0.65045E-04 
  40166.3892     0.65211E-04 
  40198.6514     0.65376E-04 
  40230.9135     0.65539E-04 
  40263.1757     0.65702E-04 
  40295.4378     0.65864E-04 
  40327.7000     0.66025E-04 
  40359.9622     0.66185E-04 
  40392.2243     0.66343E-04 
  40424.4865     0.66501E-04 
  40456.7486     0.66658E-04 
  40489.0108     0.66814E-04 
  40521.2730     0.66968E-04 
  40553.5351     0.67122E-04 
  40585.7973     0.67275E-04 
  40618.0594     0.67426E-04 
  40650.3216     0.67577E-04 
  40682.5838     0.67726E-04 
  40714.8459     0.67874E-04 
  40747.1081     0.68022E-04 
  40779.3702     0.68168E-04 
  40811.6324     0.68313E-04 
  40843.8946     0.68457E-04 
  40876.1567     0.68600E-04 
  40908.4189     0.68741E-04 
  40940.6810     0.68882E-04 
  40972.9432     0.69022E-04 
  41005.2054     0.69160E-04 
  41037.4675     0.69297E-04 
  41069.7297     0.69433E-04 
  41101.9918     0.69568E-04 
  41134.2540     0.69702E-04 
  41166.5162     0.69835E-04 
  41198.7783     0.69966E-04 
  41231.0405     0.70096E-04 
  41263.3026     0.70225E-04 
  41295.5648     0.70353E-04 
  41327.8270     0.70480E-04 
  41360.0891     0.70605E-04 
  41392.3513     0.70730E-04 
  41424.6134     0.70853E-04 
  41456.8756     0.70974E-04 
  41489.1378     0.71095E-04 
  41521.3999     0.71214E-04 
  41553.6621     0.71333E-04 
  41585.9242     0.71450E-04 
  41618.1864     0.71565E-04 
  41650.4486     0.71680E-04 
  41682.7107     0.71793E-04 
  41714.9729     0.71905E-04 
  41747.2350     0.72015E-04 
  41779.4972     0.72125E-04 
  41811.7594     0.72233E-04 
  41844.0215     0.72340E-04 
  41876.2837     0.72445E-04 
  41908.5458     0.72550E-04 
  41940.8080     0.72653E-04 
  41973.0702     0.72754E-04 
  42005.3323     0.72855E-04 
  42037.5945     0.72954E-04 
  42069.8566     0.73052E-04 
  42102.1188     0.73148E-04 
  42134.3810     0.73243E-04 
  42166.6431     0.73337E-04 
  42198.9053     0.73430E-04 
  42231.1674     0.73521E-04 
  42263.4296     0.73611E-04 
  42295.6918     0.73699E-04 
  42327.9539     0.73786E-04 
  42360.2161     0.73872E-04 
  42392.4782     0.73957E-04 
  42424.7404     0.74040E-04 
  42457.0026     0.74122E-04 
  42489.2647     0.74202E-04 
  42521.5269     0.74281E-04 
  42553.7890     0.74359E-04 
  42586.0512     0.74436E-04 
  42618.3134     0.74511E-04 
  42650.5755     0.74584E-04 
  42682.8377     0.74656E-04 
  42715.0998     0.74727E-04 
  42747.3620     0.74797E-04 
  42779.6242     0.74865E-04 
  42811.8863     0.74932E-04 
  42844.1485     0.74997E-04 
  42876.4106     0.75061E-04 
  42908.6728     0.75124E-04 
  42940.9350     0.75185E-04 
  42973.1971     0.75245E-04 
  43005.4593     0.75304E-04 
  43037.7214     0.75361E-04 
  43069.9836     0.75416E-04 
  43102.2458     0.75471E-04 
  43134.5079     0.75523E-04 
  43166.7701     0.75575E-04 
  43199.0322     0.75625E-04 
  43231.2944     0.75674E-04 
  43263.5566     0.75721E-04 
  43295.8187     0.75767E-04 
  43328.0809     0.75811E-04 
  43360.3430     0.75854E-04 
  43392.6052     0.75896E-04 
  43424.8674     0.75936E-04 
  43457.1295     0.75975E-04 
  43489.3917     0.76012E-04 
  43521.6538     0.76048E-04 
  43553.9160     0.76083E-04 
  43586.1782     0.76116E-04 
  43618.4403     0.76148E-04 
  43650.7025     0.76178E-04 
  43682.9646     0.76207E-04 
  43715.2268     0.76235E-04 
  43747.4890     0.76261E-04 
  43779.7511     0.76285E-04 
  43812.0133     0.76309E-04 
  43844.2754     0.76331E-04 
  43876.5376     0.76351E-04 
  43908.7998     0.76370E-04 
  43941.0619     0.76388E-04 
  43973.3241     0.76404E-04 
  44005.5862     0.76419E-04 
  44037.8484     0.76432E-04 
  44070.1106     0.76444E-04 
  44102.3727     0.76454E-04 
  44134.6349     0.76463E-04 
  44166.8970     0.76471E-04 
  44199.1592     0.76478E-04 
  44231.4214     0.76482E-04 
  44263.6835     0.76486E-04 
  44295.9457     0.76488E-04 
  44328.2078     0.76489E-04 
  44360.4700     0.76488E-04 
  44392.7322     0.76486E-04 
  44424.9943     0.76482E-04 
  44457.2565     0.76477E-04 
  44489.5186     0.76471E-04 
  44521.7808     0.76463E-04 
  44554.0430     0.76454E-04 
  44586.3051     0.76444E-04 
  44618.5673     0.76432E-04 
  44650.8294     0.76418E-04 
  44683.0916     0.76404E-04 
  44715.3538     0.76388E-04 
  44747.6159     0.76370E-04 
  44779.8781     0.76351E-04 
  44812.1402     0.76331E-04 
  44844.4024     0.76309E-04 
  44876.6646     0.76286E-04 
  44908.9267     0.76262E-04 
  44941.1889     0.76236E-04 
  44973.4510     0.76209E-04 
  45005.7132     0.76181E-04 
  45037.9754     0.76151E-04 
  45070.2375     0.76120E-04 
  45102.4997     0.76087E-04 
  45134.7618     0.76053E-04 
  45167.0240     0.76018E-04 
  45199.2862     0.75981E-04 
  45231.5483     0.75943E-04 
  45263.8105     0.75904E-04 
  45296.0726     0.75863E-04 
  45328.3348     0.75821E-04 
  45360.5970     0.75778E-04 
  45392.8591     0.75733E-04 
  45425.1213     0.75687E-04 
  45457.3834     0.75640E-04 
  45489.6456     0.75592E-04 
  45521.9078     0.75542E-04 
  45554.1699     0.75490E-04 
  45586.4321     0.75438E-04 
  45618.6942     0.75384E-04 
  45650.9564     0.75329E-04 
  45683.2186     0.75272E-04 
  45715.4807     0.75215E-04 
  45747.7429     0.75155E-04 
  45780.0050     0.75095E-04 
  45812.2672     0.75034E-04 
  45844.5294     0.74971E-04 
  45876.7915     0.74906E-04 
  45909.0537     0.74841E-04 
  45941.3158     0.74774E-04 
  45973.5780     0.74706E-04 
  46005.8402     0.74637E-04 
  46038.1023     0.74567E-04 
  46070.3645     0.74495E-04 
  46102.6266     0.74422E-04 
  46134.8888     0.74348E-04 
  46167.1510     0.74272E-04 
  46199.4131     0.74196E-04 
  46231.6753     0.74118E-04 
  46263.9374     0.74038E-04 
  46296.1996     0.73958E-04 
  46328.4618     0.73877E-04 
  46360.7239     0.73794E-04 
  46392.9861     0.73710E-04 
  46425.2482     0.73625E-04 
  46457.5104     0.73538E-04 
  46489.7726     0.73451E-04 
  46522.0347     0.73362E-04 
  46554.2969     0.73272E-04 
  46586.5590     0.73181E-04 
  46618.8212     0.73089E-04 
  46651.0834     0.72995E-04 
  46683.3455     0.72901E-04 
  46715.6077     0.72805E-04 
  46747.8698     0.72708E-04 
  46780.1320     0.72610E-04 
  46812.3942     0.72511E-04 
  46844.6563     0.72411E-04 
  46876.9185     0.72310E-04 
  46909.1806     0.72207E-04 
  46941.4428     0.72104E-04 
  46973.7050     0.71999E-04 
  47005.9671     0.71893E-04 
  47038.2293     0.71786E-04 
  47070.4914     0.71678E-04 
  47102.7536     0.71569E-04 
  47135.0158     0.71459E-04 
  47167.2779     0.71348E-04 
  47199.5401     0.71236E-04 
  47231.8022     0.71122E-04 
  47264.0644     0.71008E-04 
  47296.3266     0.70892E-04 
  47328.5887     0.70776E-04 
  47360.8509     0.70658E-04 
  47393.1130     0.70540E-04 
  47425.3752     0.70420E-04 
  47457.6374     0.70300E-04 
  47489.8995     0.70178E-04 
  47522.1617     0.70056E-04 
  47554.4238     0.69932E-04 
  47586.6860     0.69807E-04 
  47618.9482     0.69682E-04 
  47651.2103     0.69555E-04 
  47683.4725     0.69428E-04 
  47715.7346     0.69299E-04 
  47747.9968     0.69170E-04 
  47780.2590     0.69040E-04 
  47812.5211     0.68908E-04 
  47844.7833     0.68776E-04 
  47877.0454     0.68643E-04 
  47909.3076     0.68509E-04 
  47941.5698     0.68374E-04 
  47973.8319     0.68238E-04 
  48006.0941     0.68101E-04 
  48038.3562     0.67963E-04 
  48070.6184     0.67824E-04 
  48102.8806     0.67685E-04 
  48135.1427     0.67544E-04 
  48167.4049     0.67403E-04 
  48199.6670     0.67261E-04 
  48231.9292     0.67118E-04 
  48264.1914     0.66974E-04 
  48296.4535     0.66829E-04 
  48328.7157     0.66684E-04 
  48360.9778     0.66537E-04 
  48393.2400     0.66390E-04 
  48425.5022     0.66242E-04 
  48457.7643     0.66093E-04 
  48490.0265     0.65944E-04 
  48522.2886     0.65793E-04 
  48554.5508     0.65642E-04 
  48586.8130     0.65490E-04 
  48619.0751     0.65337E-04 
  48651.3373     0.65183E-04 
  48683.5994     0.65029E-04 
  48715.8616     0.64874E-04 
  48748.1238     0.64718E-04 
  48780.3859     0.64561E-04 
  48812.6481     0.64404E-04 
  48844.9102     0.64246E-04 
  48877.1724     0.64087E-04 
  48909.4346     0.63928E-04 
  48941.6967     0.63767E-04 
  48973.9589     0.63607E-04 
  49006.2210     0.63445E-04 
  49038.4832     0.63283E-04 
  49070.7454     0.63120E-04 
  49103.0075     0.62956E-04 
  49135.2697     0.62792E-04 
  49167.5318     0.62627E-04 
  49199.7940     0.62461E-04 
  49232.0562     0.62295E-04 
  49264.3183     0.62128E-04 
  49296.5805     0.61960E-04 
  49328.8426     0.61792E-04 
  49361.1048     0.61623E-04 
  49393.3670     0.61454E-04 
  49425.6291     0.61284E-04 
  49457.8913     0.61113E-04 
  49490.1534     0.60942E-04 
  49522.4156     0.60770E-04 
  49554.6778     0.60598E-04 
  49586.9399     0.60425E-04 
  49619.2021     0.60252E-04 
  49651.4642     0.60078E-04 
  49683.7264     0.59903E-04 
  49715.9886     0.59728E-04 
  49748.2507     0.59552E-04 
  49780.5129     0.59376E-04 
  49812.7750     0.59199E-04 
  49845.0372     0.59022E-04 
  49877.2994     0.58844E-04 
  49909.5615     0.58666E-04 
  49941.8237     0.58487E-04 
  49974.0858     0.58308E-04 
  50006.3480     0.58129E-04 
  50038.6102     0.57948E-04 
  50070.8723     0.57768E-04 
  50103.1345     0.57587E-04 
  50135.3966     0.57405E-04 
  50167.6588     0.57223E-04 
  50199.9210     0.57041E-04 
  50232.1831     0.56858E-04 
  50264.4453     0.56675E-04 
  50296.7074     0.56491E-04 
  50328.9696     0.56307E-04 
  50361.2318     0.56123E-04 
  50393.4939     0.55938E-04 
  50425.7561     0.55753E-04 
  50458.0182     0.55567E-04 
  50490.2804     0.55381E-04 
  50522.5426     0.55195E-04 
  50554.8047     0.55008E-04 
  50587.0669     0.54821E-04 
  50619.3290     0.54633E-04 
  50651.5912     0.54445E-04 
  50683.8534     0.54257E-04 
  50716.1155     0.54069E-04 
  50748.3777     0.53880E-04 
  50780.6398     0.53691E-04 
  50812.9020     0.53502E-04 
  50845.1642     0.53312E-04 
  50877.4263     0.53122E-04 
  50909.6885     0.52932E-04 
  50941.9506     0.52741E-04 
  50974.2128     0.52550E-04 
  51006.4750     0.52359E-04 
  51038.7371     0.52168E-04 
  51070.9993     0.51976E-04 
  51103.2614     0.51784E-04 
  51135.5236     0.51592E-04 
  51167.7858     0.51400E-04 
  51200.0479     0.51207E-04 
  51232.3101     0.51015E-04 
  51264.5722     0.50822E-04 
  51296.8344     0.50628E-04 
  51329.0966     0.50435E-04 
  51361.3587     0.50241E-04 
  51393.6209     0.50048E-04 
  51425.8830     0.49854E-04 
  51458.1452     0.49659E-04 
  51490.4074     0.49465E-04 
  51522.6695     0.49271E-04 
  51554.9317     0.49076E-04 
  51587.1938     0.48881E-04 
  51619.4560     0.48686E-04 
  51651.7182     0.48491E-04 
  51683.9803     0.48296E-04 
  51716.2425     0.48100E-04 
  51748.5046     0.47905E-04 
  51780.7668     0.47709E-04 
  51813.0290     0.47514E-04 
  51845.2911     0.47318E-04 
  51877.5533     0.47122E-04 
  51909.8154     0.46926E-04 
  51942.0776     0.46730E-04 
  51974.3398     0.46533E-04 
  52006.6019     0.46337E-04 
  52038.8641     0.46141E-04 
  52071.1262     0.45944E-04 
  52103.3884     0.45748E-04 
  52135.6506     0.45551E-04 
  52167.9127     0.45355E-04 
  52200.1749     0.45158E-04 
  52232.4370     0.44962E-04 
  52264.6992     0.44765E-04 
  52296.9614     0.44568E-04 
  52329.2235     0.44371E-04 
  52361.4857     0.44175E-04 
  52393.7478     0.43978E-04 
  52426.0100     0.43781E-04 
  52458.2722     0.43585E-04 
  52490.5343     0.43388E-04 
  52522.7965     0.43191E-04 
  52555.0586     0.42994E-04 
  52587.3208     0.42798E-04 
  52619.5830     0.42601E-04 
  52651.8451     0.42404E-04 
  52684.1073     0.42208E-04 
  52716.3694     0.42011E-04 
  52748.6316     0.41815E-04 
  52780.8938     0.41619E-04 
  52813.1559     0.41422E-04 
  52845.4181     0.41226E-04 
  52877.6802     0.41030E-04 
  52909.9424     0.40834E-04 
  52942.2046     0.40637E-04 
  52974.4667     0.40442E-04 
  53006.7289     0.40246E-04 
  53038.9910     0.40050E-04 
  53071.2532     0.39854E-04 
  53103.5154     0.39659E-04 
  53135.7775     0.39463E-04 
  53168.0397     0.39268E-04 
  53200.3018     0.39073E-04 
  53232.5640     0.38878E-04 
  53264.8262     0.38683E-04 
  53297.0883     0.38488E-04 
  53329.3505     0.38293E-04 
  53361.6126     0.38099E-04 
  53393.8748     0.37904E-04 
  53426.1370     0.37710E-04 
  53458.3991     0.37516E-04 
  53490.6613     0.37322E-04 
  53522.9234     0.37128E-04 
  53555.1856     0.36935E-04 
  53587.4478     0.36741E-04 
  53619.7099     0.36548E-04 
  53651.9721     0.36355E-04 
  53684.2342     0.36162E-04 
  53716.4964     0.35970E-04 
  53748.7586     0.35777E-04 
  53781.0207     0.35585E-04 
  53813.2829     0.35393E-04 
  53845.5450     0.35201E-04 
  53877.8072     0.35010E-04 
  53910.0694     0.34818E-04 
  53942.3315     0.34627E-04 
  53974.5937     0.34436E-04 
  54006.8558     0.34246E-04 
  54039.1180     0.34055E-04 
  54071.3802     0.33865E-04 
  54103.6423     0.33675E-04 
  54135.9045     0.33485E-04 
  54168.1666     0.33296E-04 
  54200.4288     0.33107E-04 
  54232.6910     0.32918E-04 
  54264.9531     0.32729E-04 
  54297.2153     0.32541E-04 
  54329.4774     0.32353E-04 
  54361.7396     0.32165E-04 
  54394.0018     0.31978E-04 
  54426.2639     0.31790E-04 
  54458.5261     0.31603E-04 
  54490.7882     0.31417E-04 
  54523.0504     0.31230E-04 
  54555.3126     0.31044E-04 
  54587.5747     0.30859E-04 
  54619.8369     0.30673E-04 
  54652.0990     0.30488E-04 
  54684.3612     0.30303E-04 
  54716.6234     0.30119E-04 
  54748.8855     0.29934E-04 
  54781.1477     0.29751E-04 
  54813.4098     0.29567E-04 
  54845.6720     0.29384E-04 
  54877.9342     0.29201E-04 
  54910.1963     0.29019E-04 
  54942.4585     0.28837E-04 
  54974.7206     0.28655E-04 
  55006.9828     0.28473E-04 
  55039.2450     0.28292E-04 
  55071.5071     0.28111E-04 
  55103.7693     0.27931E-04 
  55136.0314     0.27751E-04 
  55168.2936     0.27571E-04 
  55200.5558     0.27392E-04 
  55232.8179     0.27213E-04 
  55265.0801     0.27035E-04 
  55297.3422     0.26857E-04 
  55329.6044     0.26679E-04 
  55361.8666     0.26502E-04 
  55394.1287     0.26325E-04 
  55426.3909     0.26148E-04 
  55458.6530     0.25972E-04 
  55490.9152     0.25796E-04 
  55523.1774     0.25621E-04 
  55555.4395     0.25446E-04 
  55587.7017     0.25272E-04 
  55619.9638     0.25097E-04 
  55652.2260     0.24924E-04 
  55684.4882     0.24751E-04 
  55716.7503     0.24578E-04 
  55749.0125     0.24405E-04 
  55781.2746     0.24233E-04 
  55813.5368     0.24062E-04 
  55845.7990     0.23891E-04 
  55878.0611     0.23720E-04 
  55910.3233     0.23550E-04 
  55942.5854     0.23380E-04 
  55974.8476     0.23211E-04 
  56007.1098     0.23042E-04 
  56039.3719     0.22873E-04 
  56071.6341     0.22705E-04 
  56103.8962     0.22538E-04 
  56136.1584     0.22371E-04 
  56168.4206     0.22204E-04 
  56200.6827     0.22038E-04 
  56232.9449     0.21873E-04 
  56265.2070     0.21708E-04 
  56297.4692     0.21543E-04 
  56329.7314     0.21379E-04 
  56361.9935     0.21215E-04 
  56394.2557     0.21052E-04 
  56426.5178     0.20889E-04 
  56458.7800     0.20727E-04 
  56491.0422     0.20565E-04 
  56523.3043     0.20404E-04 
  56555.5665     0.20243E-04 
  56587.8286     0.20083E-04 
  56620.0908     0.19924E-04 
  56652.3530     0.19764E-04 
  56684.6151     0.19606E-04 
  56716.8773     0.19448E-04 
  56749.1394     0.19290E-04 
  56781.4016     0.19133E-04 
  56813.6638     0.18977E-04 
  56845.9259     0.18821E-04 
  56878.1881     0.18665E-04 
  56910.4502     0.18510E-04 
  56942.7124     0.18356E-04 
  56974.9746     0.18202E-04 
  57007.2367     0.18049E-04 
  57039.4989     0.17896E-04 
  57071.7610     0.17744E-04 
  57104.0232     0.17592E-04 
  57136.2854     0.17441E-04 
  57168.5475     0.17291E-04 
  57200.8097     0.17141E-04 
  57233.0718     0.16991E-04 
  57265.3340     0.16842E-04 
  57297.5962     0.16694E-04 
  57329.8583     0.16547E-04 
  57362.1205     0.16400E-04 
  57394.3826     0.16253E-04 
  57426.6448     0.16107E-04 
  57458.9070     0.15962E-04 
  57491.1691     0.15817E-04 
  57523.4313     0.15673E-04 
  57555.6934     0.15530E-04 
  57587.9556     0.15387E-04 
  57620.2178     0.15245E-04 
  57652.4799     0.15103E-04 
  57684.7421     0.14962E-04 
  57717.0042     0.14822E-04 
  57749.2664     0.14682E-04 
  57781.5286     0.14543E-04 
  57813.7907     0.14405E-04 
  57846.0529     0.14267E-04 
  57878.3150     0.14130E-04 
  57910.5772     0.13993E-04 
  57942.8394     0.13857E-04 
  57975.1015     0.13722E-04 
  58007.3637     0.13588E-04 
  58039.6258     0.13454E-04 
  58071.8880     0.13321E-04 
  58104.1502     0.13188E-04 
  58136.4123     0.13056E-04 
  58168.6745     0.12925E-04 
  58200.9366     0.12794E-04 
  58233.1988     0.12665E-04 
  58265.4610     0.12536E-04 
  58297.7231     0.12407E-04 
  58329.9853     0.12279E-04 
  58362.2474     0.12152E-04 
  58394.5096     0.12026E-04 
  58426.7718     0.11901E-04 
  58459.0339     0.11776E-04 
  58491.2961     0.11652E-04 
  58523.5582     0.11528E-04 
  58555.8204     0.11406E-04 
  58588.0826     0.11284E-04 
  58620.3447     0.11163E-04 
  58652.6069     0.11042E-04 
  58684.8690     0.10922E-04 
  58717.1312     0.10804E-04 
  58749.3934     0.10686E-04 
  58781.6555     0.10568E-04 
  58813.9177     0.10452E-04 
  58846.1798     0.10336E-04 
  58878.4420     0.10221E-04 
  58910.7042     0.10107E-04 
  58942.9663     0.99934E-05 
  58975.2285     0.98808E-05 
  59007.4906     0.97691E-05 
  59039.7528     0.96582E-05 
  59072.0150     0.95481E-05 
  59104.2771     0.94388E-05 
  59136.5393     0.93304E-05 
  59168.8014     0.92229E-05 
  59201.0636     0.91161E-05 
  59233.3258     0.90103E-05 
  59265.5879     0.89053E-05 
  59297.8501     0.88012E-05 
  59330.1122     0.86980E-05 
  59362.3744     0.85956E-05 
  59394.6366     0.84942E-05 
  59426.8987     0.83937E-05 
  59459.1609     0.82940E-05 
  59491.4230     0.81953E-05 
  59523.6852     0.80975E-05 
  59555.9474     0.80007E-05 
  59588.2095     0.79048E-05 
  59620.4717     0.78098E-05 
  59652.7338     0.77158E-05 
  59684.9960     0.76228E-05 
  59717.2582     0.75307E-05 
  59749.5203     0.74396E-05 
  59781.7825     0.73495E-05 
  59814.0446     0.72604E-05 
  59846.3068     0.71723E-05 
  59878.5690     0.70853E-05 
  59910.8311     0.69992E-05 
  59943.0933     0.69142E-05 
  59975.3554     0.68302E-05 
  60007.6176     0.67473E-05 
  60039.8798     0.66655E-05 
  60072.1419     0.65847E-05 
  60104.4041     0.65050E-05 
  60136.6662     0.64264E-05 
  60168.9284     0.63489E-05 
  60201.1906     0.62725E-05 
  60233.4527     0.61972E-05 
  60265.7149     0.61231E-05 
  60297.9770     0.60501E-05 
  60330.2392     0.59783E-05 
  60362.5014     0.59076E-05 
  60394.7635     0.58381E-05 
  60427.0257     0.57698E-05 
  60459.2878     0.57027E-05 
  60491.5500     0.56368E-05 
  60523.8122     0.55721E-05 
  60556.0743     0.55086E-05 
  60588.3365     0.54464E-05 
  60620.5986     0.53855E-05 
  60652.8608     0.53258E-05 
  60685.1230     0.52674E-05 
  60717.3851     0.52103E-05 
  60749.6473     0.51546E-05 
  60781.9094     0.51001E-05 
  60814.1716     0.50470E-05 
  60846.4338     0.49952E-05 
  60878.6959     0.49448E-05 
  60910.9581     0.48957E-05 
  60943.2202     0.48481E-05 
  60975.4824     0.48018E-05 
  61007.7446     0.47570E-05 
  61040.0067     0.47136E-05 
  61072.2689     0.46716E-05 
  61104.5310     0.46311E-05 
  61136.7932     0.45921E-05 
  61169.0554     0.45546E-05 
  61201.3175     0.45185E-05 
  61233.5797     0.44840E-05 
  61265.8418     0.44511E-05 
  61298.1040     0.44197E-05 
  61330.3662     0.43898E-05 
  61362.6283     0.43616E-05 
  61394.8905     0.43349E-05 
  61427.1526     0.43099E-05 
  61459.4148     0.42865E-05 
  61491.6770     0.42647E-05 
  61523.9391     0.42447E-05 
  61556.2013     0.42263E-05 
  61588.4634     0.42096E-05 
  61620.7256     0.41947E-05 
  61652.9878     0.41815E-05 
  61685.2499     0.41700E-05 
  61717.5121     0.41603E-05 
  61749.7742     0.41525E-05 
  61782.0364     0.41464E-05 
  61814.2986     0.41422E-05 
  61846.5607     0.41399E-05 
  61878.8229     0.41394E-05 
  61911.0850     0.41408E-05 
  61943.3472     0.41441E-05 
  61975.6094     0.41494E-05 
  62007.8715     0.41566E-05 
  62040.1337     0.41658E-05 
  62072.3958     0.41770E-05 
  62104.6580     0.41903E-05 
  62136.9202     0.42055E-05 
  62169.1823     0.42229E-05 
  62201.4445     0.42423E-05 
  62233.7066     0.42638E-05 
  62265.9688     0.42875E-05 
  62298.2310     0.43133E-05 
  62330.4931     0.43413E-05 
  62362.7553     0.43715E-05 
  62395.0174     0.44039E-05 
  62427.2796     0.44386E-05 
  62459.5418     0.44755E-05 
  62491.8039     0.45147E-05 
  62524.0661     0.45563E-05 
  62556.3282     0.46002E-05 
  62588.5904     0.46465E-05 
  62620.8526     0.46952E-05 
  62653.1147     0.47463E-05 
  62685.3769     0.47998E-05 
  62717.6390     0.48558E-05 
  62749.9012     0.49143E-05 
  62782.1634     0.49754E-05 
  62814.4255     0.50390E-05 
  62846.6877     0.51052E-05 
  62878.9498     0.51740E-05 
  62911.2120     0.52454E-05 
  62943.4742     0.53195E-05 
  62975.7363     0.53963E-05 
  63007.9985     0.54758E-05 
  63040.2606     0.55580E-05 
  63072.5228     0.56430E-05 
  63104.7850     0.57309E-05 
  63137.0471     0.58216E-05 
  63169.3093     0.59151E-05 
  63201.5714     0.60116E-05 
  63233.8336     0.61109E-05 
  63266.0958     0.62133E-05 
  63298.3579     0.63186E-05 
  63330.6201     0.64269E-05 
  63362.8822     0.65383E-05 
  63395.1444     0.66528E-05 
  63427.4066     0.67704E-05 
  63459.6687     0.68911E-05 
  63491.9309     0.70150E-05 
  63524.1930     0.71422E-05 
  63556.4552     0.72725E-05 
  63588.7174     0.74062E-05 
  63620.9795     0.75432E-05 
  63653.2417     0.76835E-05 
  63685.5038     0.78272E-05 
  63717.7660     0.79743E-05 
  63750.0282     0.81249E-05 
  63782.2903     0.82789E-05 
  63814.5525     0.84365E-05 
  63846.8146     0.85976E-05 
  63879.0768     0.87623E-05 
  63911.3390     0.89307E-05 
  63943.6011     0.91027E-05 
  63975.8633     0.92784E-05 
  64008.1254     0.94579E-05 
  64040.3876     0.96411E-05 
  64072.6498     0.98281E-05 
  64104.9119     0.10019E-04 
  64137.1741     0.10214E-04 
  64169.4362     0.10412E-04 
  64201.6984     0.10615E-04 
  64233.9606     0.10822E-04 
  64266.2227     0.11033E-04 
  64298.4849     0.11247E-04 
  64330.7470     0.11466E-04 
  64363.0092     0.11689E-04 
  64395.2714     0.11917E-04 
  64427.5335     0.12148E-04 
  64459.7957     0.12384E-04 
  64492.0578     0.12624E-04 
  64524.3200     0.12869E-04 
  64556.5822     0.13118E-04 
  64588.8443     0.13371E-04 
  64621.1065     0.13629E-04 
  64653.3686     0.13891E-04 
  64685.6308     0.14158E-04 
  64717.8930     0.14430E-04 
  64750.1551     0.14706E-04 
  64782.4173     0.14987E-04 
  64814.6794     0.15272E-04 
  64846.9416     0.15563E-04 
  64879.2038     0.15858E-04 
  64911.4659     0.16158E-04 
  64943.7281     0.16463E-04 
  64975.9902     0.16774E-04 
  65008.2524     0.17089E-04 
  65040.5146     0.17409E-04 
  65072.7767     0.17734E-04 
  65105.0389     0.18064E-04 
  65137.3010     0.18400E-04 
  65169.5632     0.18741E-04 
  65201.8254     0.19087E-04 
  65234.0875     0.19438E-04 
  65266.3497     0.19795E-04 
  65298.6118     0.20157E-04 
  65330.8740     0.20525E-04 
  65363.1362     0.20898E-04 
  65395.3983     0.21277E-04 
  65427.6605     0.21662E-04 
  65459.9226     0.22052E-04 
  65492.1848     0.22448E-04 
  65524.4470     0.22849E-04 
  65556.7091     0.23256E-04 
  65588.9713     0.23670E-04 
  65621.2334     0.24089E-04 
  65653.4956     0.24514E-04 
  65685.7578     0.24945E-04 
  65718.0199     0.25382E-04 
  65750.2821     0.25825E-04 
  65782.5442     0.26275E-04 
  65814.8064     0.26730E-04 
  65847.0686     0.27192E-04 
  65879.3307     0.27660E-04 
  65911.5929     0.28135E-04 
  65943.8550     0.28616E-04 
  65976.1172     0.29103E-04 
  66008.3794     0.29597E-04 
  66040.6415     0.30097E-04 
  66072.9037     0.30604E-04 
  66105.1658     0.31118E-04 
  66137.4280     0.31639E-04 
  66169.6902     0.32166E-04 
  66201.9523     0.32700E-04 
  66234.2145     0.33241E-04 
  66266.4766     0.33788E-04 
  66298.7388     0.34343E-04 
  66331.0010     0.34905E-04 
  66363.2631     0.35474E-04 
  66395.5253     0.36049E-04 
  66427.7874     0.36633E-04 
  66460.0496     0.37223E-04 
  66492.3118     0.37821E-04 
  66524.5739     0.38425E-04 
  66556.8361     0.39038E-04 
  66589.0982     0.39658E-04 
  66621.3604     0.40285E-04 
  66653.6226     0.40920E-04 
  66685.8847     0.41562E-04 
  66718.1469     0.42212E-04 
  66750.4090     0.42870E-04 
  66782.6712     0.43535E-04 
  66814.9334     0.44209E-04 
  66847.1955     0.44890E-04 
  66879.4577     0.45579E-04 
  66911.7198     0.46276E-04 
  66943.9820     0.46981E-04 
  66976.2442     0.47694E-04 
  67008.5063     0.48416E-04 
  67040.7685     0.49145E-04 
  67073.0306     0.49883E-04 
  67105.2928     0.50629E-04 
  67137.5550     0.51383E-04 
  67169.8171     0.52146E-04 
  67202.0793     0.52917E-04 
  67234.3414     0.53697E-04 
  67266.6036     0.54485E-04 
  67298.8658     0.55282E-04 
  67331.1279     0.56087E-04 
  67363.3901     0.56901E-04 
  67395.6522     0.57724E-04 
  67427.9144     0.58556E-04 
  67460.1766     0.59397E-04 
  67492.4387     0.60246E-04 
  67524.7009     0.61104E-04 
  67556.9630     0.61972E-04 
  67589.2252     0.62849E-04 
  67621.4874     0.63734E-04 
  67653.7495     0.64629E-04 
  67686.0117     0.65533E-04 
  67718.2738     0.66447E-04 
  67750.5360     0.67369E-04 
  67782.7982     0.68301E-04 
  67815.0603     0.69243E-04 
  67847.3225     0.70194E-04 
  67879.5846     0.71154E-04 
  67911.8468     0.72124E-04 
  67944.1090     0.73104E-04 
  67976.3711     0.74094E-04 
  68008.6333     0.75093E-04 
  68040.8954     0.76102E-04 
  68073.1576     0.77120E-04 
  68105.4198     0.78149E-04 
  68137.6819     0.79188E-04 
  68169.9441     0.80236E-04 
  68202.2062     0.81295E-04 
  68234.4684     0.82363E-04 
  68266.7306     0.83442E-04 
  68298.9927     0.84531E-04 
  68331.2549     0.85630E-04 
  68363.5170     0.86739E-04 
  68395.7792     0.87859E-04 
  68428.0414     0.88989E-04 
  68460.3035     0.90130E-04 
  68492.5657     0.91281E-04 
  68524.8278     0.92442E-04 
  68557.0900     0.93614E-04 
  68589.3522     0.94796E-04 
  68621.6143     0.95990E-04 
  68653.8765     0.97193E-04 
  68686.1386     0.98408E-04 
  68718.4008     0.99633E-04 
  68750.6630     0.10087E-03 
  68782.9251     0.10212E-03 
  68815.1873     0.10337E-03 
  68847.4494     0.10464E-03 
  68879.7116     0.10592E-03 
  68911.9738     0.10721E-03 
  68944.2359     0.10851E-03 
  68976.4981     0.10983E-03 
  69008.7602     0.11115E-03 
  69041.0224     0.11249E-03 
  69073.2846     0.11383E-03 
  69105.5467     0.11519E-03 
  69137.8089     0.11656E-03 
  69170.0710     0.11794E-03 
  69202.3332     0.11933E-03 
  69234.5954     0.12073E-03 
  69266.8575     0.12215E-03 
  69299.1197     0.12357E-03 
  69331.3818     0.12501E-03 
  69363.6440     0.12646E-03 
  69395.9062     0.12792E-03 
  69428.1683     0.12939E-03 
  69460.4305     0.13088E-03 
  69492.6926     0.13237E-03 
  69524.9548     0.13388E-03 
  69557.2170     0.13540E-03 
  69589.4791     0.13693E-03 
  69621.7413     0.13847E-03 
  69654.0034     0.14003E-03 
  69686.2656     0.14159E-03 
  69718.5278     0.14317E-03 
  69750.7899     0.14476E-03 
  69783.0521     0.14636E-03 
  69815.3142     0.14797E-03 
  69847.5764     0.14960E-03 
  69879.8386     0.15124E-03 
  69912.1007     0.15289E-03 
  69944.3629     0.15455E-03 
  69976.6250     0.15622E-03 
  70008.8872     0.15791E-03 
  70041.1494     0.15961E-03 
  70073.4115     0.16132E-03 
  70105.6737     0.16304E-03 
  70137.9358     0.16477E-03 
  70170.1980     0.16652E-03 
  70202.4602     0.16828E-03 
  70234.7223     0.17005E-03 
  70266.9845     0.17183E-03 
  70299.2466     0.17363E-03 
  70331.5088     0.17544E-03 
  70363.7710     0.17726E-03 
  70396.0331     0.17909E-03 
  70428.2953     0.18094E-03 
  70460.5574     0.18279E-03 
  70492.8196     0.18466E-03 
  70525.0818     0.18654E-03 
  70557.3439     0.18844E-03 
  70589.6061     0.19035E-03 
  70621.8682     0.19226E-03 
  70654.1304     0.19420E-03 
  70686.3926     0.19614E-03 
  70718.6547     0.19810E-03 
  70750.9169     0.20007E-03 
  70783.1790     0.20205E-03 
  70815.4412     0.20404E-03 
  70847.7034     0.20605E-03 
  70879.9655     0.20806E-03 
  70912.2277     0.21010E-03 
  70944.4898     0.21214E-03 
  70976.7520     0.21419E-03 
  71009.0142     0.21626E-03 
  71041.2763     0.21834E-03 
  71073.5385     0.22044E-03 
  71105.8006     0.22254E-03 
  71138.0628     0.22466E-03 
  71170.3250     0.22679E-03 
  71202.5871     0.22893E-03 
  71234.8493     0.23109E-03 
  71267.1114     0.23325E-03 
  71299.3736     0.23543E-03 
  71331.6358     0.23763E-03 
  71363.8979     0.23983E-03 
  71396.1601     0.24205E-03 
  71428.4222     0.24428E-03 
  71460.6844     0.24652E-03 
  71492.9466     0.24877E-03 
  71525.2087     0.25104E-03 
  71557.4709     0.25332E-03 
  71589.7330     0.25561E-03 
  71621.9952     0.25791E-03 
  71654.2574     0.26023E-03 
  71686.5195     0.26255E-03 
  71718.7817     0.26489E-03 
  71751.0438     0.26724E-03 
  71783.3060     0.26961E-03 
  71815.5682     0.27198E-03 
  71847.8303     0.27437E-03 
  71880.0925     0.27677E-03 
  71912.3546     0.27918E-03 
  71944.6168     0.28161E-03 
  71976.8790     0.28404E-03 
  72009.1411     0.28649E-03 
  72041.4033     0.28895E-03 
  72073.6654     0.29142E-03 
  72105.9276     0.29390E-03 
  72138.1898     0.29640E-03 
  72170.4519     0.29891E-03 
  72202.7141     0.30142E-03 
  72234.9762     0.30395E-03 
  72267.2384     0.30650E-03 
  72299.5006     0.30905E-03 
  72331.7627     0.31162E-03 
  72364.0249     0.31419E-03 
  72396.2870     0.31678E-03 
  72428.5492     0.31938E-03 
  72460.8114     0.32199E-03 
  72493.0735     0.32461E-03 
  72525.3357     0.32725E-03 
  72557.5978     0.32989E-03 
  72589.8600     0.33255E-03 
