  32262.1600     0.13602E-01 
  32294.4222     0.13741E-01 
  32326.6843     0.13882E-01 
  32358.9465     0.14024E-01 
  32391.2086     0.14166E-01 
  32423.4708     0.14309E-01 
  32455.7330     0.14454E-01 
  32487.9951     0.14599E-01 
  32520.2573     0.14745E-01 
  32552.5194     0.14892E-01 
  32584.7816     0.15040E-01 
  32617.0438     0.15189E-01 
  32649.3059     0.15338E-01 
  32681.5681     0.15489E-01 
  32713.8302     0.15641E-01 
  32746.0924     0.15793E-01 
  32778.3546     0.15947E-01 
  32810.6167     0.16101E-01 
  32842.8789     0.16256E-01 
  32875.1410     0.16412E-01 
  32907.4032     0.16569E-01 
  32939.6654     0.16727E-01 
  32971.9275     0.16886E-01 
  33004.1897     0.17045E-01 
  33036.4518     0.17206E-01 
  33068.7140     0.17367E-01 
  33100.9762     0.17530E-01 
  33133.2383     0.17693E-01 
  33165.5005     0.17857E-01 
  33197.7626     0.18022E-01 
  33230.0248     0.18188E-01 
  33262.2870     0.18355E-01 
  33294.5491     0.18522E-01 
  33326.8113     0.18691E-01 
  33359.0734     0.18860E-01 
  33391.3356     0.19030E-01 
  33423.5978     0.19201E-01 
  33455.8599     0.19373E-01 
  33488.1221     0.19546E-01 
  33520.3842     0.19719E-01 
  33552.6464     0.19894E-01 
  33584.9086     0.20069E-01 
  33617.1707     0.20245E-01 
  33649.4329     0.20422E-01 
  33681.6950     0.20600E-01 
  33713.9572     0.20778E-01 
  33746.2194     0.20958E-01 
  33778.4815     0.21138E-01 
  33810.7437     0.21319E-01 
  33843.0058     0.21501E-01 
  33875.2680     0.21683E-01 
  33907.5302     0.21867E-01 
  33939.7923     0.22051E-01 
  33972.0545     0.22236E-01 
  34004.3166     0.22422E-01 
  34036.5788     0.22608E-01 
  34068.8410     0.22795E-01 
  34101.1031     0.22983E-01 
  34133.3653     0.23172E-01 
  34165.6274     0.23362E-01 
  34197.8896     0.23552E-01 
  34230.1518     0.23743E-01 
  34262.4139     0.23935E-01 
  34294.6761     0.24127E-01 
  34326.9382     0.24320E-01 
  34359.2004     0.24514E-01 
  34391.4626     0.24709E-01 
  34423.7247     0.24904E-01 
  34455.9869     0.25100E-01 
  34488.2490     0.25297E-01 
  34520.5112     0.25495E-01 
  34552.7734     0.25693E-01 
  34585.0355     0.25891E-01 
  34617.2977     0.26091E-01 
  34649.5598     0.26291E-01 
  34681.8220     0.26491E-01 
  34714.0842     0.26693E-01 
  34746.3463     0.26895E-01 
  34778.6085     0.27097E-01 
  34810.8706     0.27301E-01 
  34843.1328     0.27504E-01 
  34875.3950     0.27709E-01 
  34907.6571     0.27914E-01 
  34939.9193     0.28119E-01 
  34972.1814     0.28326E-01 
  35004.4436     0.28532E-01 
  35036.7058     0.28740E-01 
  35068.9679     0.28948E-01 
  35101.2301     0.29156E-01 
  35133.4922     0.29365E-01 
  35165.7544     0.29574E-01 
  35198.0166     0.29784E-01 
  35230.2787     0.29995E-01 
  35262.5409     0.30206E-01 
  35294.8030     0.30417E-01 
  35327.0652     0.30629E-01 
  35359.3274     0.30842E-01 
  35391.5895     0.31055E-01 
  35423.8517     0.31268E-01 
  35456.1138     0.31482E-01 
  35488.3760     0.31696E-01 
  35520.6382     0.31911E-01 
  35552.9003     0.32126E-01 
  35585.1625     0.32341E-01 
  35617.4246     0.32557E-01 
  35649.6868     0.32773E-01 
  35681.9490     0.32990E-01 
  35714.2111     0.33207E-01 
  35746.4733     0.33425E-01 
  35778.7354     0.33642E-01 
  35810.9976     0.33860E-01 
  35843.2598     0.34079E-01 
  35875.5219     0.34298E-01 
  35907.7841     0.34517E-01 
  35940.0462     0.34736E-01 
  35972.3084     0.34956E-01 
  36004.5706     0.35175E-01 
  36036.8327     0.35396E-01 
  36069.0949     0.35616E-01 
  36101.3570     0.35837E-01 
  36133.6192     0.36058E-01 
  36165.8814     0.36279E-01 
  36198.1435     0.36500E-01 
  36230.4057     0.36722E-01 
  36262.6678     0.36943E-01 
  36294.9300     0.37165E-01 
  36327.1922     0.37387E-01 
  36359.4543     0.37609E-01 
  36391.7165     0.37832E-01 
  36423.9786     0.38054E-01 
  36456.2408     0.38277E-01 
  36488.5030     0.38500E-01 
  36520.7651     0.38722E-01 
  36553.0273     0.38945E-01 
  36585.2894     0.39168E-01 
  36617.5516     0.39391E-01 
  36649.8138     0.39615E-01 
  36682.0759     0.39838E-01 
  36714.3381     0.40061E-01 
  36746.6002     0.40284E-01 
  36778.8624     0.40507E-01 
  36811.1246     0.40730E-01 
  36843.3867     0.40954E-01 
  36875.6489     0.41177E-01 
  36907.9110     0.41400E-01 
  36940.1732     0.41623E-01 
  36972.4354     0.41846E-01 
  37004.6975     0.42069E-01 
  37036.9597     0.42292E-01 
  37069.2218     0.42514E-01 
  37101.4840     0.42737E-01 
  37133.7462     0.42959E-01 
  37166.0083     0.43182E-01 
  37198.2705     0.43404E-01 
  37230.5326     0.43626E-01 
  37262.7948     0.43848E-01 
  37295.0570     0.44069E-01 
  37327.3191     0.44291E-01 
  37359.5813     0.44512E-01 
  37391.8434     0.44733E-01 
  37424.1056     0.44954E-01 
  37456.3678     0.45174E-01 
  37488.6299     0.45395E-01 
  37520.8921     0.45615E-01 
  37553.1542     0.45834E-01 
  37585.4164     0.46054E-01 
  37617.6786     0.46273E-01 
  37649.9407     0.46491E-01 
  37682.2029     0.46710E-01 
  37714.4650     0.46928E-01 
  37746.7272     0.47146E-01 
  37778.9894     0.47363E-01 
  37811.2515     0.47580E-01 
  37843.5137     0.47796E-01 
  37875.7758     0.48013E-01 
  37908.0380     0.48228E-01 
  37940.3002     0.48443E-01 
  37972.5623     0.48658E-01 
  38004.8245     0.48873E-01 
  38037.0866     0.49086E-01 
  38069.3488     0.49300E-01 
  38101.6110     0.49513E-01 
  38133.8731     0.49725E-01 
  38166.1353     0.49937E-01 
  38198.3974     0.50148E-01 
  38230.6596     0.50359E-01 
  38262.9218     0.50569E-01 
  38295.1839     0.50779E-01 
  38327.4461     0.50988E-01 
  38359.7082     0.51196E-01 
  38391.9704     0.51404E-01 
  38424.2326     0.51611E-01 
  38456.4947     0.51818E-01 
  38488.7569     0.52024E-01 
  38521.0190     0.52229E-01 
  38553.2812     0.52434E-01 
  38585.5434     0.52637E-01 
  38617.8055     0.52841E-01 
  38650.0677     0.53043E-01 
  38682.3298     0.53245E-01 
  38714.5920     0.53446E-01 
  38746.8542     0.53646E-01 
  38779.1163     0.53846E-01 
  38811.3785     0.54044E-01 
  38843.6406     0.54242E-01 
  38875.9028     0.54440E-01 
  38908.1650     0.54636E-01 
  38940.4271     0.54831E-01 
  38972.6893     0.55026E-01 
  39004.9514     0.55220E-01 
  39037.2136     0.55413E-01 
  39069.4758     0.55605E-01 
  39101.7379     0.55797E-01 
  39134.0001     0.55987E-01 
  39166.2622     0.56177E-01 
  39198.5244     0.56365E-01 
  39230.7866     0.56553E-01 
  39263.0487     0.56740E-01 
  39295.3109     0.56926E-01 
  39327.5730     0.57110E-01 
  39359.8352     0.57294E-01 
  39392.0974     0.57477E-01 
  39424.3595     0.57659E-01 
  39456.6217     0.57840E-01 
  39488.8838     0.58020E-01 
  39521.1460     0.58199E-01 
  39553.4082     0.58377E-01 
  39585.6703     0.58554E-01 
  39617.9325     0.58730E-01 
  39650.1946     0.58904E-01 
  39682.4568     0.59078E-01 
  39714.7190     0.59251E-01 
  39746.9811     0.59422E-01 
  39779.2433     0.59593E-01 
  39811.5054     0.59762E-01 
  39843.7676     0.59930E-01 
  39876.0298     0.60097E-01 
  39908.2919     0.60263E-01 
  39940.5541     0.60428E-01 
  39972.8162     0.60592E-01 
  40005.0784     0.60754E-01 
  40037.3406     0.60915E-01 
  40069.6027     0.61075E-01 
  40101.8649     0.61234E-01 
  40134.1270     0.61392E-01 
  40166.3892     0.61548E-01 
  40198.6514     0.61704E-01 
  40230.9135     0.61858E-01 
  40263.1757     0.62010E-01 
  40295.4378     0.62162E-01 
  40327.7000     0.62312E-01 
  40359.9622     0.62461E-01 
  40392.2243     0.62609E-01 
  40424.4865     0.62755E-01 
  40456.7486     0.62900E-01 
  40489.0108     0.63044E-01 
  40521.2730     0.63187E-01 
  40553.5351     0.63328E-01 
  40585.7973     0.63468E-01 
  40618.0594     0.63606E-01 
  40650.3216     0.63743E-01 
  40682.5838     0.63879E-01 
  40714.8459     0.64014E-01 
  40747.1081     0.64147E-01 
  40779.3702     0.64278E-01 
  40811.6324     0.64409E-01 
  40843.8946     0.64538E-01 
  40876.1567     0.64665E-01 
  40908.4189     0.64791E-01 
  40940.6810     0.64916E-01 
  40972.9432     0.65040E-01 
  41005.2054     0.65162E-01 
  41037.4675     0.65282E-01 
  41069.7297     0.65401E-01 
  41101.9918     0.65519E-01 
  41134.2540     0.65635E-01 
  41166.5162     0.65750E-01 
  41198.7783     0.65863E-01 
  41231.0405     0.65975E-01 
  41263.3026     0.66085E-01 
  41295.5648     0.66194E-01 
  41327.8270     0.66301E-01 
  41360.0891     0.66407E-01 
  41392.3513     0.66512E-01 
  41424.6134     0.66614E-01 
  41456.8756     0.66716E-01 
  41489.1378     0.66816E-01 
  41521.3999     0.66914E-01 
  41553.6621     0.67011E-01 
  41585.9242     0.67106E-01 
  41618.1864     0.67200E-01 
  41650.4486     0.67292E-01 
  41682.7107     0.67383E-01 
  41714.9729     0.67472E-01 
  41747.2350     0.67560E-01 
  41779.4972     0.67646E-01 
  41811.7594     0.67731E-01 
  41844.0215     0.67814E-01 
  41876.2837     0.67895E-01 
  41908.5458     0.67975E-01 
  41940.8080     0.68053E-01 
  41973.0702     0.68130E-01 
  42005.3323     0.68205E-01 
  42037.5945     0.68279E-01 
  42069.8566     0.68351E-01 
  42102.1188     0.68421E-01 
  42134.3810     0.68490E-01 
  42166.6431     0.68557E-01 
  42198.9053     0.68623E-01 
  42231.1674     0.68687E-01 
  42263.4296     0.68749E-01 
  42295.6918     0.68810E-01 
  42327.9539     0.68869E-01 
  42360.2161     0.68927E-01 
  42392.4782     0.68983E-01 
  42424.7404     0.69037E-01 
  42457.0026     0.69090E-01 
  42489.2647     0.69141E-01 
  42521.5269     0.69191E-01 
  42553.7890     0.69239E-01 
  42586.0512     0.69285E-01 
  42618.3134     0.69330E-01 
  42650.5755     0.69373E-01 
  42682.8377     0.69415E-01 
  42715.0998     0.69455E-01 
  42747.3620     0.69493E-01 
  42779.6242     0.69530E-01 
  42811.8863     0.69565E-01 
  42844.1485     0.69598E-01 
  42876.4106     0.69630E-01 
  42908.6728     0.69660E-01 
  42940.9350     0.69689E-01 
  42973.1971     0.69716E-01 
  43005.4593     0.69741E-01 
  43037.7214     0.69765E-01 
  43069.9836     0.69787E-01 
  43102.2458     0.69807E-01 
  43134.5079     0.69826E-01 
  43166.7701     0.69843E-01 
  43199.0322     0.69859E-01 
  43231.2944     0.69873E-01 
  43263.5566     0.69885E-01 
  43295.8187     0.69896E-01 
  43328.0809     0.69905E-01 
  43360.3430     0.69913E-01 
  43392.6052     0.69919E-01 
  43424.8674     0.69923E-01 
  43457.1295     0.69926E-01 
  43489.3917     0.69927E-01 
  43521.6538     0.69927E-01 
  43553.9160     0.69925E-01 
  43586.1782     0.69921E-01 
  43618.4403     0.69916E-01 
  43650.7025     0.69909E-01 
  43682.9646     0.69900E-01 
  43715.2268     0.69890E-01 
  43747.4890     0.69879E-01 
  43779.7511     0.69866E-01 
  43812.0133     0.69851E-01 
  43844.2754     0.69835E-01 
  43876.5376     0.69817E-01 
  43908.7998     0.69797E-01 
  43941.0619     0.69776E-01 
  43973.3241     0.69754E-01 
  44005.5862     0.69729E-01 
  44037.8484     0.69704E-01 
  44070.1106     0.69676E-01 
  44102.3727     0.69648E-01 
  44134.6349     0.69617E-01 
  44166.8970     0.69585E-01 
  44199.1592     0.69552E-01 
  44231.4214     0.69517E-01 
  44263.6835     0.69480E-01 
  44295.9457     0.69442E-01 
  44328.2078     0.69403E-01 
  44360.4700     0.69362E-01 
  44392.7322     0.69319E-01 
  44424.9943     0.69275E-01 
  44457.2565     0.69229E-01 
  44489.5186     0.69182E-01 
  44521.7808     0.69134E-01 
  44554.0430     0.69084E-01 
  44586.3051     0.69032E-01 
  44618.5673     0.68979E-01 
  44650.8294     0.68925E-01 
  44683.0916     0.68869E-01 
  44715.3538     0.68811E-01 
  44747.6159     0.68752E-01 
  44779.8781     0.68692E-01 
  44812.1402     0.68630E-01 
  44844.4024     0.68567E-01 
  44876.6646     0.68503E-01 
  44908.9267     0.68437E-01 
  44941.1889     0.68369E-01 
  44973.4510     0.68300E-01 
  45005.7132     0.68230E-01 
  45037.9754     0.68158E-01 
  45070.2375     0.68085E-01 
  45102.4997     0.68011E-01 
  45134.7618     0.67935E-01 
  45167.0240     0.67857E-01 
  45199.2862     0.67779E-01 
  45231.5483     0.67699E-01 
  45263.8105     0.67617E-01 
  45296.0726     0.67535E-01 
  45328.3348     0.67451E-01 
  45360.5970     0.67365E-01 
  45392.8591     0.67279E-01 
  45425.1213     0.67191E-01 
  45457.3834     0.67101E-01 
  45489.6456     0.67011E-01 
  45521.9078     0.66919E-01 
  45554.1699     0.66825E-01 
  45586.4321     0.66731E-01 
  45618.6942     0.66635E-01 
  45650.9564     0.66538E-01 
  45683.2186     0.66440E-01 
  45715.4807     0.66340E-01 
  45747.7429     0.66239E-01 
  45780.0050     0.66137E-01 
  45812.2672     0.66034E-01 
  45844.5294     0.65929E-01 
  45876.7915     0.65823E-01 
  45909.0537     0.65716E-01 
  45941.3158     0.65608E-01 
  45973.5780     0.65499E-01 
  46005.8402     0.65388E-01 
  46038.1023     0.65276E-01 
  46070.3645     0.65163E-01 
  46102.6266     0.65049E-01 
  46134.8888     0.64934E-01 
  46167.1510     0.64818E-01 
  46199.4131     0.64700E-01 
  46231.6753     0.64581E-01 
  46263.9374     0.64462E-01 
  46296.1996     0.64341E-01 
  46328.4618     0.64219E-01 
  46360.7239     0.64096E-01 
  46392.9861     0.63971E-01 
  46425.2482     0.63846E-01 
  46457.5104     0.63720E-01 
  46489.7726     0.63592E-01 
  46522.0347     0.63464E-01 
  46554.2969     0.63334E-01 
  46586.5590     0.63204E-01 
  46618.8212     0.63072E-01 
  46651.0834     0.62940E-01 
  46683.3455     0.62806E-01 
  46715.6077     0.62671E-01 
  46747.8698     0.62536E-01 
  46780.1320     0.62399E-01 
  46812.3942     0.62261E-01 
  46844.6563     0.62123E-01 
  46876.9185     0.61983E-01 
  46909.1806     0.61843E-01 
  46941.4428     0.61702E-01 
  46973.7050     0.61559E-01 
  47005.9671     0.61416E-01 
  47038.2293     0.61272E-01 
  47070.4914     0.61127E-01 
  47102.7536     0.60981E-01 
  47135.0158     0.60834E-01 
  47167.2779     0.60686E-01 
  47199.5401     0.60537E-01 
  47231.8022     0.60388E-01 
  47264.0644     0.60238E-01 
  47296.3266     0.60086E-01 
  47328.5887     0.59934E-01 
  47360.8509     0.59782E-01 
  47393.1130     0.59628E-01 
  47425.3752     0.59474E-01 
  47457.6374     0.59318E-01 
  47489.8995     0.59162E-01 
  47522.1617     0.59005E-01 
  47554.4238     0.58848E-01 
  47586.6860     0.58690E-01 
  47618.9482     0.58530E-01 
  47651.2103     0.58371E-01 
  47683.4725     0.58210E-01 
  47715.7346     0.58049E-01 
  47747.9968     0.57887E-01 
  47780.2590     0.57724E-01 
  47812.5211     0.57561E-01 
  47844.7833     0.57397E-01 
  47877.0454     0.57232E-01 
  47909.3076     0.57066E-01 
  47941.5698     0.56900E-01 
  47973.8319     0.56734E-01 
  48006.0941     0.56566E-01 
  48038.3562     0.56398E-01 
  48070.6184     0.56230E-01 
  48102.8806     0.56060E-01 
  48135.1427     0.55890E-01 
  48167.4049     0.55720E-01 
  48199.6670     0.55549E-01 
  48231.9292     0.55377E-01 
  48264.1914     0.55205E-01 
  48296.4535     0.55032E-01 
  48328.7157     0.54859E-01 
  48360.9778     0.54685E-01 
  48393.2400     0.54511E-01 
  48425.5022     0.54336E-01 
  48457.7643     0.54161E-01 
  48490.0265     0.53985E-01 
  48522.2886     0.53808E-01 
  48554.5508     0.53632E-01 
  48586.8130     0.53454E-01 
  48619.0751     0.53276E-01 
  48651.3373     0.53098E-01 
  48683.5994     0.52919E-01 
  48715.8616     0.52740E-01 
  48748.1238     0.52561E-01 
  48780.3859     0.52381E-01 
  48812.6481     0.52200E-01 
  48844.9102     0.52019E-01 
  48877.1724     0.51838E-01 
  48909.4346     0.51656E-01 
  48941.6967     0.51474E-01 
  48973.9589     0.51292E-01 
  49006.2210     0.51109E-01 
  49038.4832     0.50926E-01 
  49070.7454     0.50743E-01 
  49103.0075     0.50559E-01 
  49135.2697     0.50375E-01 
  49167.5318     0.50190E-01 
  49199.7940     0.50005E-01 
  49232.0562     0.49820E-01 
  49264.3183     0.49635E-01 
  49296.5805     0.49449E-01 
  49328.8426     0.49263E-01 
  49361.1048     0.49077E-01 
  49393.3670     0.48891E-01 
  49425.6291     0.48704E-01 
  49457.8913     0.48517E-01 
  49490.1534     0.48330E-01 
  49522.4156     0.48143E-01 
  49554.6778     0.47955E-01 
  49586.9399     0.47767E-01 
  49619.2021     0.47579E-01 
  49651.4642     0.47391E-01 
  49683.7264     0.47202E-01 
  49715.9886     0.47014E-01 
  49748.2507     0.46825E-01 
  49780.5129     0.46636E-01 
  49812.7750     0.46447E-01 
  49845.0372     0.46258E-01 
  49877.2994     0.46068E-01 
  49909.5615     0.45879E-01 
  49941.8237     0.45689E-01 
  49974.0858     0.45499E-01 
  50006.3480     0.45310E-01 
  50038.6102     0.45120E-01 
  50070.8723     0.44930E-01 
  50103.1345     0.44739E-01 
  50135.3966     0.44549E-01 
  50167.6588     0.44359E-01 
  50199.9210     0.44169E-01 
  50232.1831     0.43978E-01 
  50264.4453     0.43788E-01 
  50296.7074     0.43597E-01 
  50328.9696     0.43407E-01 
  50361.2318     0.43216E-01 
  50393.4939     0.43025E-01 
  50425.7561     0.42835E-01 
  50458.0182     0.42644E-01 
  50490.2804     0.42454E-01 
  50522.5426     0.42263E-01 
  50554.8047     0.42072E-01 
  50587.0669     0.41882E-01 
  50619.3290     0.41691E-01 
  50651.5912     0.41501E-01 
  50683.8534     0.41310E-01 
  50716.1155     0.41120E-01 
  50748.3777     0.40930E-01 
  50780.6398     0.40739E-01 
  50812.9020     0.40549E-01 
  50845.1642     0.40359E-01 
  50877.4263     0.40169E-01 
  50909.6885     0.39979E-01 
  50941.9506     0.39789E-01 
  50974.2128     0.39599E-01 
  51006.4750     0.39410E-01 
  51038.7371     0.39220E-01 
  51070.9993     0.39031E-01 
  51103.2614     0.38841E-01 
  51135.5236     0.38652E-01 
  51167.7858     0.38463E-01 
  51200.0479     0.38274E-01 
  51232.3101     0.38086E-01 
  51264.5722     0.37897E-01 
  51296.8344     0.37709E-01 
  51329.0966     0.37520E-01 
  51361.3587     0.37332E-01 
  51393.6209     0.37145E-01 
  51425.8830     0.36957E-01 
  51458.1452     0.36769E-01 
  51490.4074     0.36582E-01 
  51522.6695     0.36395E-01 
  51554.9317     0.36208E-01 
  51587.1938     0.36021E-01 
  51619.4560     0.35835E-01 
  51651.7182     0.35649E-01 
  51683.9803     0.35463E-01 
  51716.2425     0.35277E-01 
  51748.5046     0.35091E-01 
  51780.7668     0.34906E-01 
  51813.0290     0.34721E-01 
  51845.2911     0.34536E-01 
  51877.5533     0.34352E-01 
  51909.8154     0.34168E-01 
  51942.0776     0.33984E-01 
  51974.3398     0.33800E-01 
  52006.6019     0.33617E-01 
  52038.8641     0.33433E-01 
  52071.1262     0.33251E-01 
  52103.3884     0.33068E-01 
  52135.6506     0.32886E-01 
  52167.9127     0.32704E-01 
  52200.1749     0.32522E-01 
  52232.4370     0.32341E-01 
  52264.6992     0.32160E-01 
  52296.9614     0.31979E-01 
  52329.2235     0.31799E-01 
  52361.4857     0.31619E-01 
  52393.7478     0.31439E-01 
  52426.0100     0.31260E-01 
  52458.2722     0.31081E-01 
  52490.5343     0.30902E-01 
  52522.7965     0.30724E-01 
  52555.0586     0.30546E-01 
  52587.3208     0.30369E-01 
  52619.5830     0.30192E-01 
  52651.8451     0.30015E-01 
  52684.1073     0.29838E-01 
  52716.3694     0.29662E-01 
  52748.6316     0.29487E-01 
  52780.8938     0.29311E-01 
  52813.1559     0.29136E-01 
  52845.4181     0.28962E-01 
  52877.6802     0.28788E-01 
  52909.9424     0.28614E-01 
  52942.2046     0.28441E-01 
  52974.4667     0.28268E-01 
  53006.7289     0.28095E-01 
  53038.9910     0.27923E-01 
  53071.2532     0.27751E-01 
  53103.5154     0.27580E-01 
  53135.7775     0.27409E-01 
  53168.0397     0.27239E-01 
  53200.3018     0.27069E-01 
  53232.5640     0.26899E-01 
  53264.8262     0.26730E-01 
  53297.0883     0.26562E-01 
  53329.3505     0.26393E-01 
  53361.6126     0.26226E-01 
  53393.8748     0.26058E-01 
  53426.1370     0.25891E-01 
  53458.3991     0.25725E-01 
  53490.6613     0.25559E-01 
  53522.9234     0.25393E-01 
  53555.1856     0.25228E-01 
  53587.4478     0.25064E-01 
  53619.7099     0.24900E-01 
  53651.9721     0.24736E-01 
  53684.2342     0.24573E-01 
  53716.4964     0.24410E-01 
  53748.7586     0.24248E-01 
  53781.0207     0.24086E-01 
  53813.2829     0.23925E-01 
  53845.5450     0.23764E-01 
  53877.8072     0.23603E-01 
  53910.0694     0.23444E-01 
  53942.3315     0.23284E-01 
  53974.5937     0.23125E-01 
  54006.8558     0.22967E-01 
  54039.1180     0.22809E-01 
  54071.3802     0.22652E-01 
  54103.6423     0.22495E-01 
  54135.9045     0.22339E-01 
  54168.1666     0.22183E-01 
  54200.4288     0.22027E-01 
  54232.6910     0.21873E-01 
  54264.9531     0.21718E-01 
  54297.2153     0.21564E-01 
  54329.4774     0.21411E-01 
  54361.7396     0.21258E-01 
  54394.0018     0.21106E-01 
  54426.2639     0.20954E-01 
  54458.5261     0.20803E-01 
  54490.7882     0.20652E-01 
  54523.0504     0.20502E-01 
  54555.3126     0.20352E-01 
  54587.5747     0.20203E-01 
  54619.8369     0.20055E-01 
  54652.0990     0.19906E-01 
  54684.3612     0.19759E-01 
  54716.6234     0.19612E-01 
  54748.8855     0.19465E-01 
  54781.1477     0.19319E-01 
  54813.4098     0.19174E-01 
  54845.6720     0.19029E-01 
  54877.9342     0.18885E-01 
  54910.1963     0.18741E-01 
  54942.4585     0.18598E-01 
  54974.7206     0.18455E-01 
  55006.9828     0.18313E-01 
  55039.2450     0.18171E-01 
  55071.5071     0.18030E-01 
  55103.7693     0.17889E-01 
  55136.0314     0.17749E-01 
  55168.2936     0.17610E-01 
  55200.5558     0.17471E-01 
  55232.8179     0.17332E-01 
  55265.0801     0.17194E-01 
  55297.3422     0.17057E-01 
  55329.6044     0.16920E-01 
  55361.8666     0.16784E-01 
  55394.1287     0.16648E-01 
  55426.3909     0.16513E-01 
  55458.6530     0.16379E-01 
  55490.9152     0.16245E-01 
  55523.1774     0.16111E-01 
  55555.4395     0.15978E-01 
  55587.7017     0.15846E-01 
  55619.9638     0.15714E-01 
  55652.2260     0.15583E-01 
  55684.4882     0.15452E-01 
  55716.7503     0.15322E-01 
  55749.0125     0.15193E-01 
  55781.2746     0.15064E-01 
  55813.5368     0.14935E-01 
  55845.7990     0.14807E-01 
  55878.0611     0.14680E-01 
  55910.3233     0.14553E-01 
  55942.5854     0.14427E-01 
  55974.8476     0.14301E-01 
  56007.1098     0.14176E-01 
  56039.3719     0.14052E-01 
  56071.6341     0.13928E-01 
  56103.8962     0.13804E-01 
  56136.1584     0.13682E-01 
  56168.4206     0.13559E-01 
  56200.6827     0.13438E-01 
  56232.9449     0.13316E-01 
  56265.2070     0.13196E-01 
  56297.4692     0.13076E-01 
  56329.7314     0.12956E-01 
  56361.9935     0.12837E-01 
  56394.2557     0.12719E-01 
  56426.5178     0.12601E-01 
  56458.7800     0.12484E-01 
  56491.0422     0.12367E-01 
  56523.3043     0.12251E-01 
  56555.5665     0.12135E-01 
  56587.8286     0.12020E-01 
  56620.0908     0.11906E-01 
  56652.3530     0.11792E-01 
  56684.6151     0.11679E-01 
  56716.8773     0.11566E-01 
  56749.1394     0.11454E-01 
  56781.4016     0.11342E-01 
  56813.6638     0.11231E-01 
  56845.9259     0.11120E-01 
  56878.1881     0.11010E-01 
  56910.4502     0.10901E-01 
  56942.7124     0.10792E-01 
  56974.9746     0.10684E-01 
  57007.2367     0.10576E-01 
  57039.4989     0.10469E-01 
  57071.7610     0.10362E-01 
  57104.0232     0.10256E-01 
  57136.2854     0.10151E-01 
  57168.5475     0.10046E-01 
  57200.8097     0.99415E-02 
  57233.0718     0.98376E-02 
  57265.3340     0.97344E-02 
  57297.5962     0.96316E-02 
  57329.8583     0.95295E-02 
  57362.1205     0.94279E-02 
  57394.3826     0.93268E-02 
  57426.6448     0.92264E-02 
  57458.9070     0.91264E-02 
  57491.1691     0.90270E-02 
  57523.4313     0.89282E-02 
  57555.6934     0.88300E-02 
  57587.9556     0.87323E-02 
  57620.2178     0.86351E-02 
  57652.4799     0.85385E-02 
  57684.7421     0.84425E-02 
  57717.0042     0.83470E-02 
  57749.2664     0.82520E-02 
  57781.5286     0.81577E-02 
  57813.7907     0.80638E-02 
  57846.0529     0.79706E-02 
  57878.3150     0.78779E-02 
  57910.5772     0.77857E-02 
  57942.8394     0.76941E-02 
  57975.1015     0.76030E-02 
  58007.3637     0.75125E-02 
  58039.6258     0.74226E-02 
  58071.8880     0.73332E-02 
  58104.1502     0.72444E-02 
  58136.4123     0.71561E-02 
  58168.6745     0.70684E-02 
  58200.9366     0.69812E-02 
  58233.1988     0.68946E-02 
  58265.4610     0.68085E-02 
  58297.7231     0.67230E-02 
  58329.9853     0.66380E-02 
  58362.2474     0.65536E-02 
  58394.5096     0.64697E-02 
  58426.7718     0.63864E-02 
  58459.0339     0.63037E-02 
  58491.2961     0.62215E-02 
  58523.5582     0.61399E-02 
  58555.8204     0.60588E-02 
  58588.0826     0.59783E-02 
  58620.3447     0.58983E-02 
  58652.6069     0.58189E-02 
  58684.8690     0.57400E-02 
  58717.1312     0.56617E-02 
  58749.3934     0.55840E-02 
  58781.6555     0.55068E-02 
  58813.9177     0.54301E-02 
  58846.1798     0.53541E-02 
  58878.4420     0.52786E-02 
  58910.7042     0.52036E-02 
  58942.9663     0.51292E-02 
  58975.2285     0.50554E-02 
  59007.4906     0.49821E-02 
  59039.7528     0.49094E-02 
  59072.0150     0.48372E-02 
  59104.2771     0.47656E-02 
  59136.5393     0.46946E-02 
  59168.8014     0.46242E-02 
  59201.0636     0.45543E-02 
  59233.3258     0.44849E-02 
  59265.5879     0.44162E-02 
  59297.8501     0.43480E-02 
  59330.1122     0.42803E-02 
  59362.3744     0.42133E-02 
  59394.6366     0.41468E-02 
  59426.8987     0.40809E-02 
  59459.1609     0.40155E-02 
  59491.4230     0.39508E-02 
  59523.6852     0.38866E-02 
  59555.9474     0.38230E-02 
  59588.2095     0.37600E-02 
  59620.4717     0.36975E-02 
  59652.7338     0.36356E-02 
  59684.9960     0.35744E-02 
  59717.2582     0.35137E-02 
  59749.5203     0.34535E-02 
  59781.7825     0.33940E-02 
  59814.0446     0.33351E-02 
  59846.3068     0.32767E-02 
  59878.5690     0.32190E-02 
  59910.8311     0.31618E-02 
  59943.0933     0.31053E-02 
  59975.3554     0.30493E-02 
  60007.6176     0.29940E-02 
  60039.8798     0.29392E-02 
  60072.1419     0.28851E-02 
  60104.4041     0.28316E-02 
  60136.6662     0.27787E-02 
  60168.9284     0.27264E-02 
  60201.1906     0.26747E-02 
  60233.4527     0.26236E-02 
  60265.7149     0.25732E-02 
  60297.9770     0.25234E-02 
  60330.2392     0.24742E-02 
  60362.5014     0.24256E-02 
  60394.7635     0.23777E-02 
  60427.0257     0.23304E-02 
  60459.2878     0.22838E-02 
  60491.5500     0.22378E-02 
  60523.8122     0.21924E-02 
  60556.0743     0.21477E-02 
  60588.3365     0.21037E-02 
  60620.5986     0.20603E-02 
  60652.8608     0.20176E-02 
  60685.1230     0.19755E-02 
  60717.3851     0.19342E-02 
  60749.6473     0.18934E-02 
  60781.9094     0.18534E-02 
  60814.1716     0.18141E-02 
  60846.4338     0.17754E-02 
  60878.6959     0.17374E-02 
  60910.9581     0.17002E-02 
  60943.2202     0.16636E-02 
  60975.4824     0.16278E-02 
  61007.7446     0.15926E-02 
  61040.0067     0.15582E-02 
  61072.2689     0.15245E-02 
  61104.5310     0.14915E-02 
  61136.7932     0.14592E-02 
  61169.0554     0.14277E-02 
  61201.3175     0.13970E-02 
  61233.5797     0.13669E-02 
  61265.8418     0.13377E-02 
  61298.1040     0.13092E-02 
  61330.3662     0.12815E-02 
  61362.6283     0.12545E-02 
  61394.8905     0.12283E-02 
  61427.1526     0.12029E-02 
  61459.4148     0.11783E-02 
  61491.6770     0.11546E-02 
  61523.9391     0.11316E-02 
  61556.2013     0.11094E-02 
  61588.4634     0.10881E-02 
  61620.7256     0.10675E-02 
  61652.9878     0.10479E-02 
  61685.2499     0.10290E-02 
  61717.5121     0.10111E-02 
  61749.7742     0.99394E-03 
  61782.0364     0.97770E-03 
  61814.2986     0.96233E-03 
  61846.5607     0.94785E-03 
  61878.8229     0.93427E-03 
  61911.0850     0.92159E-03 
  61943.3472     0.90982E-03 
  61975.6094     0.89898E-03 
  62007.8715     0.88907E-03 
  62040.1337     0.88010E-03 
  62072.3958     0.87209E-03 
  62104.6580     0.86503E-03 
  62136.9202     0.85895E-03 
  62169.1823     0.85385E-03 
  62201.4445     0.84974E-03 
  62233.7066     0.84664E-03 
  62265.9688     0.84455E-03 
  62298.2310     0.84348E-03 
  62330.4931     0.84345E-03 
  62362.7553     0.84447E-03 
  62395.0174     0.84655E-03 
  62427.2796     0.84971E-03 
  62459.5418     0.85394E-03 
  62491.8039     0.85927E-03 
  62524.0661     0.86571E-03 
  62556.3282     0.87327E-03 
  62588.5904     0.88197E-03 
  62620.8526     0.89181E-03 
  62653.1147     0.90281E-03 
  62685.3769     0.91499E-03 
  62717.6390     0.92836E-03 
  62749.9012     0.94293E-03 
  62782.1634     0.95871E-03 
  62814.4255     0.97573E-03 
  62846.6877     0.99399E-03 
  62878.9498     0.10135E-02 
  62911.2120     0.10343E-02 
  62943.4742     0.10564E-02 
  62975.7363     0.10798E-02 
  63007.9985     0.11045E-02 
  63040.2606     0.11306E-02 
  63072.5228     0.11580E-02 
  63104.7850     0.11868E-02 
  63137.0471     0.12169E-02 
  63169.3093     0.12485E-02 
  63201.5714     0.12815E-02 
  63233.8336     0.13160E-02 
  63266.0958     0.13519E-02 
  63298.3579     0.13892E-02 
  63330.6201     0.14281E-02 
  63362.8822     0.14685E-02 
  63395.1444     0.15104E-02 
  63427.4066     0.15539E-02 
  63459.6687     0.15990E-02 
  63491.9309     0.16456E-02 
  63524.1930     0.16939E-02 
  63556.4552     0.17438E-02 
  63588.7174     0.17953E-02 
  63620.9795     0.18486E-02 
  63653.2417     0.19035E-02 
  63685.5038     0.19601E-02 
  63717.7660     0.20185E-02 
  63750.0282     0.20786E-02 
  63782.2903     0.21406E-02 
  63814.5525     0.22043E-02 
  63846.8146     0.22699E-02 
  63879.0768     0.23373E-02 
  63911.3390     0.24066E-02 
  63943.6011     0.24778E-02 
  63975.8633     0.25509E-02 
  64008.1254     0.26260E-02 
  64040.3876     0.27031E-02 
  64072.6498     0.27821E-02 
  64104.9119     0.28632E-02 
  64137.1741     0.29463E-02 
  64169.4362     0.30316E-02 
  64201.6984     0.31189E-02 
  64233.9606     0.32084E-02 
  64266.2227     0.33000E-02 
  64298.4849     0.33938E-02 
  64330.7470     0.34898E-02 
  64363.0092     0.35881E-02 
  64395.2714     0.36887E-02 
  64427.5335     0.37915E-02 
  64459.7957     0.38967E-02 
  64492.0578     0.40043E-02 
  64524.3200     0.41142E-02 
  64556.5822     0.42266E-02 
  64588.8443     0.43414E-02 
  64621.1065     0.44588E-02 
  64653.3686     0.45786E-02 
  64685.6308     0.47010E-02 
  64717.8930     0.48259E-02 
  64750.1551     0.49535E-02 
  64782.4173     0.50837E-02 
  64814.6794     0.52167E-02 
  64846.9416     0.53523E-02 
  64879.2038     0.54907E-02 
  64911.4659     0.56318E-02 
  64943.7281     0.57758E-02 
  64975.9902     0.59226E-02 
  65008.2524     0.60723E-02 
  65040.5146     0.62250E-02 
  65072.7767     0.63806E-02 
  65105.0389     0.65392E-02 
  65137.3010     0.67009E-02 
  65169.5632     0.68656E-02 
  65201.8254     0.70334E-02 
  65234.0875     0.72044E-02 
  65266.3497     0.73786E-02 
  65298.6118     0.75560E-02 
  65330.8740     0.77367E-02 
  65363.1362     0.79207E-02 
  65395.3983     0.81080E-02 
  65427.6605     0.82987E-02 
  65459.9226     0.84929E-02 
  65492.1848     0.86905E-02 
  65524.4470     0.88916E-02 
  65556.7091     0.90963E-02 
  65588.9713     0.93046E-02 
  65621.2334     0.95166E-02 
  65653.4956     0.97322E-02 
  65685.7578     0.99516E-02 
  65718.0199     0.10175E-01 
  65750.2821     0.10402E-01 
  65782.5442     0.10632E-01 
  65814.8064     0.10867E-01 
  65847.0686     0.11106E-01 
  65879.3307     0.11349E-01 
  65911.5929     0.11595E-01 
  65943.8550     0.11846E-01 
  65976.1172     0.12101E-01 
  66008.3794     0.12360E-01 
  66040.6415     0.12624E-01 
  66072.9037     0.12891E-01 
  66105.1658     0.13163E-01 
  66137.4280     0.13440E-01 
  66169.6902     0.13721E-01 
  66201.9523     0.14006E-01 
  66234.2145     0.14296E-01 
  66266.4766     0.14591E-01 
  66298.7388     0.14890E-01 
  66331.0010     0.15193E-01 
  66363.2631     0.15502E-01 
  66395.5253     0.15815E-01 
  66427.7874     0.16134E-01 
  66460.0496     0.16457E-01 
  66492.3118     0.16785E-01 
  66524.5739     0.17118E-01 
  66556.8361     0.17456E-01 
  66589.0982     0.17799E-01 
  66621.3604     0.18148E-01 
  66653.6226     0.18502E-01 
  66685.8847     0.18861E-01 
  66718.1469     0.19225E-01 
  66750.4090     0.19595E-01 
  66782.6712     0.19970E-01 
  66814.9334     0.20350E-01 
  66847.1955     0.20737E-01 
  66879.4577     0.21129E-01 
  66911.7198     0.21526E-01 
  66943.9820     0.21930E-01 
  66976.2442     0.22339E-01 
  67008.5063     0.22754E-01 
  67040.7685     0.23175E-01 
  67073.0306     0.23602E-01 
  67105.2928     0.24035E-01 
  67137.5550     0.24474E-01 
  67169.8171     0.24919E-01 
  67202.0793     0.25371E-01 
  67234.3414     0.25829E-01 
  67266.6036     0.26293E-01 
  67298.8658     0.26764E-01 
  67331.1279     0.27241E-01 
  67363.3901     0.27724E-01 
  67395.6522     0.28215E-01 
  67427.9144     0.28712E-01 
  67460.1766     0.29215E-01 
  67492.4387     0.29726E-01 
  67524.7009     0.30243E-01 
  67556.9630     0.30767E-01 
  67589.2252     0.31299E-01 
  67621.4874     0.31837E-01 
  67653.7495     0.32383E-01 
  67686.0117     0.32935E-01 
  67718.2738     0.33495E-01 
  67750.5360     0.34063E-01 
  67782.7982     0.34637E-01 
  67815.0603     0.35219E-01 
  67847.3225     0.35809E-01 
  67879.5846     0.36406E-01 
  67911.8468     0.37011E-01 
  67944.1090     0.37624E-01 
  67976.3711     0.38244E-01 
  68008.6333     0.38873E-01 
  68040.8954     0.39509E-01 
  68073.1576     0.40153E-01 
  68105.4198     0.40805E-01 
  68137.6819     0.41466E-01 
  68169.9441     0.42135E-01 
  68202.2062     0.42812E-01 
  68234.4684     0.43497E-01 
  68266.7306     0.44191E-01 
  68298.9927     0.44893E-01 
  68331.2549     0.45604E-01 
  68363.5170     0.46323E-01 
  68395.7792     0.47051E-01 
  68428.0414     0.47788E-01 
  68460.3035     0.48534E-01 
  68492.5657     0.49288E-01 
  68524.8278     0.50052E-01 
  68557.0900     0.50824E-01 
  68589.3522     0.51606E-01 
  68621.6143     0.52397E-01 
  68653.8765     0.53197E-01 
  68686.1386     0.54007E-01 
  68718.4008     0.54826E-01 
  68750.6630     0.55654E-01 
  68782.9251     0.56492E-01 
  68815.1873     0.57340E-01 
  68847.4494     0.58197E-01 
  68879.7116     0.59064E-01 
  68911.9738     0.59941E-01 
  68944.2359     0.60827E-01 
  68976.4981     0.61724E-01 
  69008.7602     0.62631E-01 
  69041.0224     0.63547E-01 
  69073.2846     0.64474E-01 
  69105.5467     0.65411E-01 
  69137.8089     0.66359E-01 
  69170.0710     0.67317E-01 
  69202.3332     0.68285E-01 
  69234.5954     0.69264E-01 
  69266.8575     0.70253E-01 
  69299.1197     0.71253E-01 
  69331.3818     0.72264E-01 
  69363.6440     0.73286E-01 
  69395.9062     0.74318E-01 
  69428.1683     0.75362E-01 
  69460.4305     0.76416E-01 
  69492.6926     0.77481E-01 
  69524.9548     0.78558E-01 
  69557.2170     0.79646E-01 
  69589.4791     0.80745E-01 
  69621.7413     0.81855E-01 
  69654.0034     0.82977E-01 
  69686.2656     0.84110E-01 
  69718.5278     0.85255E-01 
  69750.7899     0.86411E-01 
  69783.0521     0.87579E-01 
  69815.3142     0.88759E-01 
  69847.5764     0.89950E-01 
  69879.8386     0.91153E-01 
  69912.1007     0.92369E-01 
  69944.3629     0.93596E-01 
  69976.6250     0.94835E-01 
  70008.8872     0.96087E-01 
  70041.1494     0.97350E-01 
  70073.4115     0.98626E-01 
  70105.6737     0.99914E-01 
  70137.9358     0.10121E+00 
  70170.1980     0.10253E+00 
  70202.4602     0.10385E+00 
  70234.7223     0.10519E+00 
  70266.9845     0.10654E+00 
  70299.2466     0.10790E+00 
  70331.5088     0.10928E+00 
  70363.7710     0.11067E+00 
  70396.0331     0.11207E+00 
  70428.2953     0.11348E+00 
  70460.5574     0.11491E+00 
  70492.8196     0.11635E+00 
  70525.0818     0.11780E+00 
  70557.3439     0.11927E+00 
  70589.6061     0.12075E+00 
  70621.8682     0.12224E+00 
  70654.1304     0.12375E+00 
  70686.3926     0.12526E+00 
  70718.6547     0.12680E+00 
  70750.9169     0.12834E+00 
  70783.1790     0.12990E+00 
  70815.4412     0.13147E+00 
  70847.7034     0.13306E+00 
  70879.9655     0.13466E+00 
  70912.2277     0.13627E+00 
  70944.4898     0.13790E+00 
  70976.7520     0.13954E+00 
  71009.0142     0.14119E+00 
  71041.2763     0.14286E+00 
  71073.5385     0.14454E+00 
  71105.8006     0.14624E+00 
  71138.0628     0.14795E+00 
  71170.3250     0.14967E+00 
  71202.5871     0.15141E+00 
  71234.8493     0.15316E+00 
  71267.1114     0.15493E+00 
  71299.3736     0.15671E+00 
  71331.6358     0.15850E+00 
  71363.8979     0.16031E+00 
  71396.1601     0.16213E+00 
  71428.4222     0.16397E+00 
  71460.6844     0.16582E+00 
  71492.9466     0.16768E+00 
  71525.2087     0.16956E+00 
  71557.4709     0.17146E+00 
  71589.7330     0.17336E+00 
  71621.9952     0.17529E+00 
  71654.2574     0.17722E+00 
  71686.5195     0.17917E+00 
  71718.7817     0.18114E+00 
  71751.0438     0.18312E+00 
  71783.3060     0.18511E+00 
  71815.5682     0.18712E+00 
  71847.8303     0.18914E+00 
  71880.0925     0.19118E+00 
  71912.3546     0.19323E+00 
  71944.6168     0.19530E+00 
  71976.8790     0.19738E+00 
  72009.1411     0.19948E+00 
  72041.4033     0.20159E+00 
  72073.6654     0.20371E+00 
  72105.9276     0.20585E+00 
  72138.1898     0.20801E+00 
  72170.4519     0.21017E+00 
  72202.7141     0.21236E+00 
  72234.9762     0.21455E+00 
  72267.2384     0.21677E+00 
  72299.5006     0.21899E+00 
  72331.7627     0.22124E+00 
  72364.0249     0.22349E+00 
  72396.2870     0.22576E+00 
  72428.5492     0.22805E+00 
  72460.8114     0.23035E+00 
  72493.0735     0.23266E+00 
  72525.3357     0.23499E+00 
  72557.5978     0.23733E+00 
  72589.8600     0.23969E+00 
