  32262.1600     0.29066E+01 
  32294.4222     0.29187E+01 
  32326.6843     0.29308E+01 
  32358.9465     0.29429E+01 
  32391.2086     0.29551E+01 
  32423.4708     0.29673E+01 
  32455.7330     0.29795E+01 
  32487.9951     0.29917E+01 
  32520.2573     0.30040E+01 
  32552.5194     0.30163E+01 
  32584.7816     0.30287E+01 
  32617.0438     0.30411E+01 
  32649.3059     0.30535E+01 
  32681.5681     0.30660E+01 
  32713.8302     0.30785E+01 
  32746.0924     0.30910E+01 
  32778.3546     0.31035E+01 
  32810.6167     0.31161E+01 
  32842.8789     0.31288E+01 
  32875.1410     0.31414E+01 
  32907.4032     0.31541E+01 
  32939.6654     0.31668E+01 
  32971.9275     0.31796E+01 
  33004.1897     0.31924E+01 
  33036.4518     0.32052E+01 
  33068.7140     0.32181E+01 
  33100.9762     0.32309E+01 
  33133.2383     0.32439E+01 
  33165.5005     0.32568E+01 
  33197.7626     0.32698E+01 
  33230.0248     0.32828E+01 
  33262.2870     0.32959E+01 
  33294.5491     0.33090E+01 
  33326.8113     0.33221E+01 
  33359.0734     0.33353E+01 
  33391.3356     0.33485E+01 
  33423.5978     0.33617E+01 
  33455.8599     0.33749E+01 
  33488.1221     0.33882E+01 
  33520.3842     0.34016E+01 
  33552.6464     0.34149E+01 
  33584.9086     0.34283E+01 
  33617.1707     0.34417E+01 
  33649.4329     0.34552E+01 
  33681.6950     0.34687E+01 
  33713.9572     0.34822E+01 
  33746.2194     0.34958E+01 
  33778.4815     0.35094E+01 
  33810.7437     0.35230E+01 
  33843.0058     0.35367E+01 
  33875.2680     0.35504E+01 
  33907.5302     0.35641E+01 
  33939.7923     0.35779E+01 
  33972.0545     0.35916E+01 
  34004.3166     0.36055E+01 
  34036.5788     0.36193E+01 
  34068.8410     0.36332E+01 
  34101.1031     0.36472E+01 
  34133.3653     0.36611E+01 
  34165.6274     0.36751E+01 
  34197.8896     0.36892E+01 
  34230.1518     0.37032E+01 
  34262.4139     0.37173E+01 
  34294.6761     0.37315E+01 
  34326.9382     0.37456E+01 
  34359.2004     0.37598E+01 
  34391.4626     0.37741E+01 
  34423.7247     0.37883E+01 
  34455.9869     0.38026E+01 
  34488.2490     0.38170E+01 
  34520.5112     0.38313E+01 
  34552.7734     0.38457E+01 
  34585.0355     0.38602E+01 
  34617.2977     0.38746E+01 
  34649.5598     0.38891E+01 
  34681.8220     0.39037E+01 
  34714.0842     0.39182E+01 
  34746.3463     0.39328E+01 
  34778.6085     0.39475E+01 
  34810.8706     0.39621E+01 
  34843.1328     0.39768E+01 
  34875.3950     0.39916E+01 
  34907.6571     0.40064E+01 
  34939.9193     0.40212E+01 
  34972.1814     0.40360E+01 
  35004.4436     0.40509E+01 
  35036.7058     0.40658E+01 
  35068.9679     0.40807E+01 
  35101.2301     0.40957E+01 
  35133.4922     0.41107E+01 
  35165.7544     0.41257E+01 
  35198.0166     0.41408E+01 
  35230.2787     0.41559E+01 
  35262.5409     0.41711E+01 
  35294.8030     0.41862E+01 
  35327.0652     0.42014E+01 
  35359.3274     0.42167E+01 
  35391.5895     0.42319E+01 
  35423.8517     0.42473E+01 
  35456.1138     0.42626E+01 
  35488.3760     0.42780E+01 
  35520.6382     0.42934E+01 
  35552.9003     0.43088E+01 
  35585.1625     0.43243E+01 
  35617.4246     0.43398E+01 
  35649.6868     0.43554E+01 
  35681.9490     0.43709E+01 
  35714.2111     0.43865E+01 
  35746.4733     0.44022E+01 
  35778.7354     0.44179E+01 
  35810.9976     0.44336E+01 
  35843.2598     0.44493E+01 
  35875.5219     0.44651E+01 
  35907.7841     0.44809E+01 
  35940.0462     0.44967E+01 
  35972.3084     0.45126E+01 
  36004.5706     0.45285E+01 
  36036.8327     0.45445E+01 
  36069.0949     0.45605E+01 
  36101.3570     0.45765E+01 
  36133.6192     0.45925E+01 
  36165.8814     0.46086E+01 
  36198.1435     0.46247E+01 
  36230.4057     0.46408E+01 
  36262.6678     0.46570E+01 
  36294.9300     0.46732E+01 
  36327.1922     0.46895E+01 
  36359.4543     0.47058E+01 
  36391.7165     0.47221E+01 
  36423.9786     0.47384E+01 
  36456.2408     0.47548E+01 
  36488.5030     0.47712E+01 
  36520.7651     0.47876E+01 
  36553.0273     0.48041E+01 
  36585.2894     0.48206E+01 
  36617.5516     0.48372E+01 
  36649.8138     0.48538E+01 
  36682.0759     0.48704E+01 
  36714.3381     0.48870E+01 
  36746.6002     0.49037E+01 
  36778.8624     0.49204E+01 
  36811.1246     0.49371E+01 
  36843.3867     0.49539E+01 
  36875.6489     0.49707E+01 
  36907.9110     0.49876E+01 
  36940.1732     0.50045E+01 
  36972.4354     0.50214E+01 
  37004.6975     0.50383E+01 
  37036.9597     0.50553E+01 
  37069.2218     0.50723E+01 
  37101.4840     0.50893E+01 
  37133.7462     0.51064E+01 
  37166.0083     0.51235E+01 
  37198.2705     0.51407E+01 
  37230.5326     0.51578E+01 
  37262.7948     0.51750E+01 
  37295.0570     0.51923E+01 
  37327.3191     0.52096E+01 
  37359.5813     0.52269E+01 
  37391.8434     0.52442E+01 
  37424.1056     0.52616E+01 
  37456.3678     0.52790E+01 
  37488.6299     0.52964E+01 
  37520.8921     0.53139E+01 
  37553.1542     0.53314E+01 
  37585.4164     0.53489E+01 
  37617.6786     0.53665E+01 
  37649.9407     0.53841E+01 
  37682.2029     0.54018E+01 
  37714.4650     0.54194E+01 
  37746.7272     0.54371E+01 
  37778.9894     0.54549E+01 
  37811.2515     0.54726E+01 
  37843.5137     0.54904E+01 
  37875.7758     0.55083E+01 
  37908.0380     0.55261E+01 
  37940.3002     0.55440E+01 
  37972.5623     0.55620E+01 
  38004.8245     0.55799E+01 
  38037.0866     0.55979E+01 
  38069.3488     0.56160E+01 
  38101.6110     0.56340E+01 
  38133.8731     0.56521E+01 
  38166.1353     0.56703E+01 
  38198.3974     0.56884E+01 
  38230.6596     0.57066E+01 
  38262.9218     0.57248E+01 
  38295.1839     0.57431E+01 
  38327.4461     0.57614E+01 
  38359.7082     0.57797E+01 
  38391.9704     0.57981E+01 
  38424.2326     0.58165E+01 
  38456.4947     0.58349E+01 
  38488.7569     0.58534E+01 
  38521.0190     0.58719E+01 
  38553.2812     0.58904E+01 
  38585.5434     0.59089E+01 
  38617.8055     0.59275E+01 
  38650.0677     0.59461E+01 
  38682.3298     0.59648E+01 
  38714.5920     0.59835E+01 
  38746.8542     0.60022E+01 
  38779.1163     0.60210E+01 
  38811.3785     0.60397E+01 
  38843.6406     0.60586E+01 
  38875.9028     0.60774E+01 
  38908.1650     0.60963E+01 
  38940.4271     0.61152E+01 
  38972.6893     0.61342E+01 
  39004.9514     0.61531E+01 
  39037.2136     0.61722E+01 
  39069.4758     0.61912E+01 
  39101.7379     0.62103E+01 
  39134.0001     0.62294E+01 
  39166.2622     0.62485E+01 
  39198.5244     0.62677E+01 
  39230.7866     0.62869E+01 
  39263.0487     0.63062E+01 
  39295.3109     0.63255E+01 
  39327.5730     0.63448E+01 
  39359.8352     0.63641E+01 
  39392.0974     0.63835E+01 
  39424.3595     0.64029E+01 
  39456.6217     0.64223E+01 
  39488.8838     0.64418E+01 
  39521.1460     0.64613E+01 
  39553.4082     0.64808E+01 
  39585.6703     0.65004E+01 
  39617.9325     0.65200E+01 
  39650.1946     0.65396E+01 
  39682.4568     0.65593E+01 
  39714.7190     0.65790E+01 
  39746.9811     0.65987E+01 
  39779.2433     0.66185E+01 
  39811.5054     0.66383E+01 
  39843.7676     0.66581E+01 
  39876.0298     0.66780E+01 
  39908.2919     0.66979E+01 
  39940.5541     0.67178E+01 
  39972.8162     0.67378E+01 
  40005.0784     0.67578E+01 
  40037.3406     0.67778E+01 
  40069.6027     0.67979E+01 
  40101.8649     0.68180E+01 
  40134.1270     0.68381E+01 
  40166.3892     0.68582E+01 
  40198.6514     0.68784E+01 
  40230.9135     0.68987E+01 
  40263.1757     0.69189E+01 
  40295.4378     0.69392E+01 
  40327.7000     0.69595E+01 
  40359.9622     0.69799E+01 
  40392.2243     0.70003E+01 
  40424.4865     0.70207E+01 
  40456.7486     0.70411E+01 
  40489.0108     0.70616E+01 
  40521.2730     0.70821E+01 
  40553.5351     0.71027E+01 
  40585.7973     0.71233E+01 
  40618.0594     0.71439E+01 
  40650.3216     0.71645E+01 
  40682.5838     0.71852E+01 
  40714.8459     0.72059E+01 
  40747.1081     0.72267E+01 
  40779.3702     0.72475E+01 
  40811.6324     0.72683E+01 
  40843.8946     0.72891E+01 
  40876.1567     0.73100E+01 
  40908.4189     0.73309E+01 
  40940.6810     0.73519E+01 
  40972.9432     0.73728E+01 
  41005.2054     0.73938E+01 
  41037.4675     0.74149E+01 
  41069.7297     0.74360E+01 
  41101.9918     0.74571E+01 
  41134.2540     0.74782E+01 
  41166.5162     0.74994E+01 
  41198.7783     0.75206E+01 
  41231.0405     0.75418E+01 
  41263.3026     0.75631E+01 
  41295.5648     0.75844E+01 
  41327.8270     0.76058E+01 
  41360.0891     0.76272E+01 
  41392.3513     0.76486E+01 
  41424.6134     0.76700E+01 
  41456.8756     0.76915E+01 
  41489.1378     0.77130E+01 
  41521.3999     0.77345E+01 
  41553.6621     0.77561E+01 
  41585.9242     0.77777E+01 
  41618.1864     0.77994E+01 
  41650.4486     0.78210E+01 
  41682.7107     0.78427E+01 
  41714.9729     0.78645E+01 
  41747.2350     0.78863E+01 
  41779.4972     0.79081E+01 
  41811.7594     0.79299E+01 
  41844.0215     0.79518E+01 
  41876.2837     0.79737E+01 
  41908.5458     0.79956E+01 
  41940.8080     0.80176E+01 
  41973.0702     0.80396E+01 
  42005.3323     0.80617E+01 
  42037.5945     0.80838E+01 
  42069.8566     0.81059E+01 
  42102.1188     0.81280E+01 
  42134.3810     0.81502E+01 
  42166.6431     0.81724E+01 
  42198.9053     0.81947E+01 
  42231.1674     0.82169E+01 
  42263.4296     0.82393E+01 
  42295.6918     0.82616E+01 
  42327.9539     0.82840E+01 
  42360.2161     0.83064E+01 
  42392.4782     0.83289E+01 
  42424.7404     0.83514E+01 
  42457.0026     0.83739E+01 
  42489.2647     0.83964E+01 
  42521.5269     0.84190E+01 
  42553.7890     0.84417E+01 
  42586.0512     0.84643E+01 
  42618.3134     0.84870E+01 
  42650.5755     0.85097E+01 
  42682.8377     0.85325E+01 
  42715.0998     0.85553E+01 
  42747.3620     0.85781E+01 
  42779.6242     0.86010E+01 
  42811.8863     0.86239E+01 
  42844.1485     0.86469E+01 
  42876.4106     0.86698E+01 
  42908.6728     0.86928E+01 
  42940.9350     0.87159E+01 
  42973.1971     0.87390E+01 
  43005.4593     0.87621E+01 
  43037.7214     0.87852E+01 
  43069.9836     0.88084E+01 
  43102.2458     0.88316E+01 
  43134.5079     0.88549E+01 
  43166.7701     0.88782E+01 
  43199.0322     0.89015E+01 
  43231.2944     0.89249E+01 
  43263.5566     0.89483E+01 
  43295.8187     0.89717E+01 
  43328.0809     0.89952E+01 
  43360.3430     0.90187E+01 
  43392.6052     0.90422E+01 
  43424.8674     0.90658E+01 
  43457.1295     0.90894E+01 
  43489.3917     0.91130E+01 
  43521.6538     0.91367E+01 
  43553.9160     0.91604E+01 
  43586.1782     0.91842E+01 
  43618.4403     0.92080E+01 
  43650.7025     0.92318E+01 
  43682.9646     0.92557E+01 
  43715.2268     0.92796E+01 
  43747.4890     0.93035E+01 
  43779.7511     0.93275E+01 
  43812.0133     0.93515E+01 
  43844.2754     0.93756E+01 
  43876.5376     0.93997E+01 
  43908.7998     0.94238E+01 
  43941.0619     0.94479E+01 
  43973.3241     0.94721E+01 
  44005.5862     0.94964E+01 
  44037.8484     0.95206E+01 
  44070.1106     0.95450E+01 
  44102.3727     0.95693E+01 
  44134.6349     0.95937E+01 
  44166.8970     0.96181E+01 
  44199.1592     0.96426E+01 
  44231.4214     0.96671E+01 
  44263.6835     0.96916E+01 
  44295.9457     0.97162E+01 
  44328.2078     0.97408E+01 
  44360.4700     0.97655E+01 
  44392.7322     0.97901E+01 
  44424.9943     0.98149E+01 
  44457.2565     0.98396E+01 
  44489.5186     0.98644E+01 
  44521.7808     0.98893E+01 
  44554.0430     0.99142E+01 
  44586.3051     0.99391E+01 
  44618.5673     0.99641E+01 
  44650.8294     0.99891E+01 
  44683.0916     0.10014E+02 
  44715.3538     0.10039E+02 
  44747.6159     0.10064E+02 
  44779.8781     0.10089E+02 
  44812.1402     0.10115E+02 
  44844.4024     0.10140E+02 
  44876.6646     0.10165E+02 
  44908.9267     0.10190E+02 
  44941.1889     0.10216E+02 
  44973.4510     0.10241E+02 
  45005.7132     0.10267E+02 
  45037.9754     0.10292E+02 
  45070.2375     0.10318E+02 
  45102.4997     0.10343E+02 
  45134.7618     0.10369E+02 
  45167.0240     0.10394E+02 
  45199.2862     0.10420E+02 
  45231.5483     0.10446E+02 
  45263.8105     0.10472E+02 
  45296.0726     0.10497E+02 
  45328.3348     0.10523E+02 
  45360.5970     0.10549E+02 
  45392.8591     0.10575E+02 
  45425.1213     0.10601E+02 
  45457.3834     0.10627E+02 
  45489.6456     0.10653E+02 
  45521.9078     0.10679E+02 
  45554.1699     0.10705E+02 
  45586.4321     0.10732E+02 
  45618.6942     0.10758E+02 
  45650.9564     0.10784E+02 
  45683.2186     0.10810E+02 
  45715.4807     0.10837E+02 
  45747.7429     0.10863E+02 
  45780.0050     0.10890E+02 
  45812.2672     0.10916E+02 
  45844.5294     0.10943E+02 
  45876.7915     0.10969E+02 
  45909.0537     0.10996E+02 
  45941.3158     0.11022E+02 
  45973.5780     0.11049E+02 
  46005.8402     0.11076E+02 
  46038.1023     0.11103E+02 
  46070.3645     0.11129E+02 
  46102.6266     0.11156E+02 
  46134.8888     0.11183E+02 
  46167.1510     0.11210E+02 
  46199.4131     0.11237E+02 
  46231.6753     0.11264E+02 
  46263.9374     0.11291E+02 
  46296.1996     0.11319E+02 
  46328.4618     0.11346E+02 
  46360.7239     0.11373E+02 
  46392.9861     0.11400E+02 
  46425.2482     0.11428E+02 
  46457.5104     0.11455E+02 
  46489.7726     0.11482E+02 
  46522.0347     0.11510E+02 
  46554.2969     0.11537E+02 
  46586.5590     0.11565E+02 
  46618.8212     0.11593E+02 
  46651.0834     0.11620E+02 
  46683.3455     0.11648E+02 
  46715.6077     0.11676E+02 
  46747.8698     0.11704E+02 
  46780.1320     0.11731E+02 
  46812.3942     0.11759E+02 
  46844.6563     0.11787E+02 
  46876.9185     0.11815E+02 
  46909.1806     0.11843E+02 
  46941.4428     0.11871E+02 
  46973.7050     0.11900E+02 
  47005.9671     0.11928E+02 
  47038.2293     0.11956E+02 
  47070.4914     0.11984E+02 
  47102.7536     0.12013E+02 
  47135.0158     0.12041E+02 
  47167.2779     0.12070E+02 
  47199.5401     0.12098E+02 
  47231.8022     0.12127E+02 
  47264.0644     0.12155E+02 
  47296.3266     0.12184E+02 
  47328.5887     0.12213E+02 
  47360.8509     0.12241E+02 
  47393.1130     0.12270E+02 
  47425.3752     0.12299E+02 
  47457.6374     0.12328E+02 
  47489.8995     0.12357E+02 
  47522.1617     0.12386E+02 
  47554.4238     0.12415E+02 
  47586.6860     0.12444E+02 
  47618.9482     0.12473E+02 
  47651.2103     0.12502E+02 
  47683.4725     0.12532E+02 
  47715.7346     0.12561E+02 
  47747.9968     0.12590E+02 
  47780.2590     0.12620E+02 
  47812.5211     0.12649E+02 
  47844.7833     0.12679E+02 
  47877.0454     0.12708E+02 
  47909.3076     0.12738E+02 
  47941.5698     0.12768E+02 
  47973.8319     0.12798E+02 
  48006.0941     0.12827E+02 
  48038.3562     0.12857E+02 
  48070.6184     0.12887E+02 
  48102.8806     0.12917E+02 
  48135.1427     0.12947E+02 
  48167.4049     0.12977E+02 
  48199.6670     0.13007E+02 
  48231.9292     0.13038E+02 
  48264.1914     0.13068E+02 
  48296.4535     0.13098E+02 
  48328.7157     0.13129E+02 
  48360.9778     0.13159E+02 
  48393.2400     0.13190E+02 
  48425.5022     0.13220E+02 
  48457.7643     0.13251E+02 
  48490.0265     0.13282E+02 
  48522.2886     0.13312E+02 
  48554.5508     0.13343E+02 
  48586.8130     0.13374E+02 
  48619.0751     0.13405E+02 
  48651.3373     0.13436E+02 
  48683.5994     0.13467E+02 
  48715.8616     0.13498E+02 
  48748.1238     0.13529E+02 
  48780.3859     0.13560E+02 
  48812.6481     0.13592E+02 
  48844.9102     0.13623E+02 
  48877.1724     0.13654E+02 
  48909.4346     0.13686E+02 
  48941.6967     0.13717E+02 
  48973.9589     0.13749E+02 
  49006.2210     0.13781E+02 
  49038.4832     0.13812E+02 
  49070.7454     0.13844E+02 
  49103.0075     0.13876E+02 
  49135.2697     0.13908E+02 
  49167.5318     0.13940E+02 
  49199.7940     0.13972E+02 
  49232.0562     0.14004E+02 
  49264.3183     0.14036E+02 
  49296.5805     0.14068E+02 
  49328.8426     0.14101E+02 
  49361.1048     0.14133E+02 
  49393.3670     0.14165E+02 
  49425.6291     0.14198E+02 
  49457.8913     0.14231E+02 
  49490.1534     0.14263E+02 
  49522.4156     0.14296E+02 
  49554.6778     0.14329E+02 
  49586.9399     0.14361E+02 
  49619.2021     0.14394E+02 
  49651.4642     0.14427E+02 
  49683.7264     0.14460E+02 
  49715.9886     0.14493E+02 
  49748.2507     0.14527E+02 
  49780.5129     0.14560E+02 
  49812.7750     0.14593E+02 
  49845.0372     0.14627E+02 
  49877.2994     0.14660E+02 
  49909.5615     0.14694E+02 
  49941.8237     0.14727E+02 
  49974.0858     0.14761E+02 
  50006.3480     0.14795E+02 
  50038.6102     0.14828E+02 
  50070.8723     0.14862E+02 
  50103.1345     0.14896E+02 
  50135.3966     0.14930E+02 
  50167.6588     0.14964E+02 
  50199.9210     0.14998E+02 
  50232.1831     0.15033E+02 
  50264.4453     0.15067E+02 
  50296.7074     0.15101E+02 
  50328.9696     0.15136E+02 
  50361.2318     0.15170E+02 
  50393.4939     0.15205E+02 
  50425.7561     0.15240E+02 
  50458.0182     0.15275E+02 
  50490.2804     0.15309E+02 
  50522.5426     0.15344E+02 
  50554.8047     0.15379E+02 
  50587.0669     0.15414E+02 
  50619.3290     0.15450E+02 
  50651.5912     0.15485E+02 
  50683.8534     0.15520E+02 
  50716.1155     0.15555E+02 
  50748.3777     0.15591E+02 
  50780.6398     0.15626E+02 
  50812.9020     0.15662E+02 
  50845.1642     0.15698E+02 
  50877.4263     0.15734E+02 
  50909.6885     0.15769E+02 
  50941.9506     0.15805E+02 
  50974.2128     0.15841E+02 
  51006.4750     0.15878E+02 
  51038.7371     0.15914E+02 
  51070.9993     0.15950E+02 
  51103.2614     0.15986E+02 
  51135.5236     0.16023E+02 
  51167.7858     0.16059E+02 
  51200.0479     0.16096E+02 
  51232.3101     0.16133E+02 
  51264.5722     0.16169E+02 
  51296.8344     0.16206E+02 
  51329.0966     0.16243E+02 
  51361.3587     0.16280E+02 
  51393.6209     0.16317E+02 
  51425.8830     0.16354E+02 
  51458.1452     0.16392E+02 
  51490.4074     0.16429E+02 
  51522.6695     0.16467E+02 
  51554.9317     0.16504E+02 
  51587.1938     0.16542E+02 
  51619.4560     0.16579E+02 
  51651.7182     0.16617E+02 
  51683.9803     0.16655E+02 
  51716.2425     0.16693E+02 
  51748.5046     0.16731E+02 
  51780.7668     0.16769E+02 
  51813.0290     0.16808E+02 
  51845.2911     0.16846E+02 
  51877.5533     0.16884E+02 
  51909.8154     0.16923E+02 
  51942.0776     0.16961E+02 
  51974.3398     0.17000E+02 
  52006.6019     0.17039E+02 
  52038.8641     0.17078E+02 
  52071.1262     0.17117E+02 
  52103.3884     0.17156E+02 
  52135.6506     0.17195E+02 
  52167.9127     0.17234E+02 
  52200.1749     0.17274E+02 
  52232.4370     0.17313E+02 
  52264.6992     0.17353E+02 
  52296.9614     0.17392E+02 
  52329.2235     0.17432E+02 
  52361.4857     0.17472E+02 
  52393.7478     0.17512E+02 
  52426.0100     0.17552E+02 
  52458.2722     0.17592E+02 
  52490.5343     0.17632E+02 
  52522.7965     0.17672E+02 
  52555.0586     0.17713E+02 
  52587.3208     0.17753E+02 
  52619.5830     0.17794E+02 
  52651.8451     0.17835E+02 
  52684.1073     0.17875E+02 
  52716.3694     0.17916E+02 
  52748.6316     0.17957E+02 
  52780.8938     0.17998E+02 
  52813.1559     0.18040E+02 
  52845.4181     0.18081E+02 
  52877.6802     0.18122E+02 
  52909.9424     0.18164E+02 
  52942.2046     0.18206E+02 
  52974.4667     0.18247E+02 
  53006.7289     0.18289E+02 
  53038.9910     0.18331E+02 
  53071.2532     0.18373E+02 
  53103.5154     0.18415E+02 
  53135.7775     0.18457E+02 
  53168.0397     0.18500E+02 
  53200.3018     0.18542E+02 
  53232.5640     0.18585E+02 
  53264.8262     0.18627E+02 
  53297.0883     0.18670E+02 
  53329.3505     0.18713E+02 
  53361.6126     0.18756E+02 
  53393.8748     0.18799E+02 
  53426.1370     0.18842E+02 
  53458.3991     0.18886E+02 
  53490.6613     0.18929E+02 
  53522.9234     0.18973E+02 
  53555.1856     0.19016E+02 
  53587.4478     0.19060E+02 
  53619.7099     0.19104E+02 
  53651.9721     0.19148E+02 
  53684.2342     0.19192E+02 
  53716.4964     0.19236E+02 
  53748.7586     0.19281E+02 
  53781.0207     0.19325E+02 
  53813.2829     0.19370E+02 
  53845.5450     0.19414E+02 
  53877.8072     0.19459E+02 
  53910.0694     0.19504E+02 
  53942.3315     0.19549E+02 
  53974.5937     0.19594E+02 
  54006.8558     0.19639E+02 
  54039.1180     0.19685E+02 
  54071.3802     0.19730E+02 
  54103.6423     0.19776E+02 
  54135.9045     0.19821E+02 
  54168.1666     0.19867E+02 
  54200.4288     0.19913E+02 
  54232.6910     0.19959E+02 
  54264.9531     0.20005E+02 
  54297.2153     0.20052E+02 
  54329.4774     0.20098E+02 
  54361.7396     0.20145E+02 
  54394.0018     0.20191E+02 
  54426.2639     0.20238E+02 
  54458.5261     0.20285E+02 
  54490.7882     0.20332E+02 
  54523.0504     0.20379E+02 
  54555.3126     0.20427E+02 
  54587.5747     0.20474E+02 
  54619.8369     0.20522E+02 
  54652.0990     0.20569E+02 
  54684.3612     0.20617E+02 
  54716.6234     0.20665E+02 
  54748.8855     0.20713E+02 
  54781.1477     0.20761E+02 
  54813.4098     0.20809E+02 
  54845.6720     0.20858E+02 
  54877.9342     0.20906E+02 
  54910.1963     0.20955E+02 
  54942.4585     0.21004E+02 
  54974.7206     0.21053E+02 
  55006.9828     0.21102E+02 
  55039.2450     0.21151E+02 
  55071.5071     0.21200E+02 
  55103.7693     0.21250E+02 
  55136.0314     0.21299E+02 
  55168.2936     0.21349E+02 
  55200.5558     0.21399E+02 
  55232.8179     0.21449E+02 
  55265.0801     0.21499E+02 
  55297.3422     0.21549E+02 
  55329.6044     0.21599E+02 
  55361.8666     0.21650E+02 
  55394.1287     0.21700E+02 
  55426.3909     0.21751E+02 
  55458.6530     0.21802E+02 
  55490.9152     0.21853E+02 
  55523.1774     0.21904E+02 
  55555.4395     0.21956E+02 
  55587.7017     0.22007E+02 
  55619.9638     0.22059E+02 
  55652.2260     0.22110E+02 
  55684.4882     0.22162E+02 
  55716.7503     0.22214E+02 
  55749.0125     0.22266E+02 
  55781.2746     0.22319E+02 
  55813.5368     0.22371E+02 
  55845.7990     0.22424E+02 
  55878.0611     0.22476E+02 
  55910.3233     0.22529E+02 
  55942.5854     0.22582E+02 
  55974.8476     0.22635E+02 
  56007.1098     0.22689E+02 
  56039.3719     0.22742E+02 
  56071.6341     0.22795E+02 
  56103.8962     0.22849E+02 
  56136.1584     0.22903E+02 
  56168.4206     0.22957E+02 
  56200.6827     0.23011E+02 
  56232.9449     0.23065E+02 
  56265.2070     0.23120E+02 
  56297.4692     0.23174E+02 
  56329.7314     0.23229E+02 
  56361.9935     0.23284E+02 
  56394.2557     0.23339E+02 
  56426.5178     0.23394E+02 
  56458.7800     0.23449E+02 
  56491.0422     0.23505E+02 
  56523.3043     0.23560E+02 
  56555.5665     0.23616E+02 
  56587.8286     0.23672E+02 
  56620.0908     0.23728E+02 
  56652.3530     0.23784E+02 
  56684.6151     0.23841E+02 
  56716.8773     0.23897E+02 
  56749.1394     0.23954E+02 
  56781.4016     0.24011E+02 
  56813.6638     0.24068E+02 
  56845.9259     0.24125E+02 
  56878.1881     0.24182E+02 
  56910.4502     0.24239E+02 
  56942.7124     0.24297E+02 
  56974.9746     0.24355E+02 
  57007.2367     0.24413E+02 
  57039.4989     0.24471E+02 
  57071.7610     0.24529E+02 
  57104.0232     0.24587E+02 
  57136.2854     0.24646E+02 
  57168.5475     0.24704E+02 
  57200.8097     0.24763E+02 
  57233.0718     0.24822E+02 
  57265.3340     0.24881E+02 
  57297.5962     0.24941E+02 
  57329.8583     0.25000E+02 
  57362.1205     0.25060E+02 
  57394.3826     0.25120E+02 
  57426.6448     0.25180E+02 
  57458.9070     0.25240E+02 
  57491.1691     0.25300E+02 
  57523.4313     0.25360E+02 
  57555.6934     0.25421E+02 
  57587.9556     0.25482E+02 
  57620.2178     0.25543E+02 
  57652.4799     0.25604E+02 
  57684.7421     0.25665E+02 
  57717.0042     0.25726E+02 
  57749.2664     0.25788E+02 
  57781.5286     0.25850E+02 
  57813.7907     0.25912E+02 
  57846.0529     0.25974E+02 
  57878.3150     0.26036E+02 
  57910.5772     0.26098E+02 
  57942.8394     0.26161E+02 
  57975.1015     0.26224E+02 
  58007.3637     0.26287E+02 
  58039.6258     0.26350E+02 
  58071.8880     0.26413E+02 
  58104.1502     0.26476E+02 
  58136.4123     0.26540E+02 
  58168.6745     0.26604E+02 
  58200.9366     0.26668E+02 
  58233.1988     0.26732E+02 
  58265.4610     0.26796E+02 
  58297.7231     0.26861E+02 
  58329.9853     0.26925E+02 
  58362.2474     0.26990E+02 
  58394.5096     0.27055E+02 
  58426.7718     0.27120E+02 
  58459.0339     0.27185E+02 
  58491.2961     0.27251E+02 
  58523.5582     0.27317E+02 
  58555.8204     0.27383E+02 
  58588.0826     0.27449E+02 
  58620.3447     0.27515E+02 
  58652.6069     0.27581E+02 
  58684.8690     0.27648E+02 
  58717.1312     0.27714E+02 
  58749.3934     0.27781E+02 
  58781.6555     0.27848E+02 
  58813.9177     0.27916E+02 
  58846.1798     0.27983E+02 
  58878.4420     0.28051E+02 
  58910.7042     0.28118E+02 
  58942.9663     0.28186E+02 
  58975.2285     0.28255E+02 
  59007.4906     0.28323E+02 
  59039.7528     0.28391E+02 
  59072.0150     0.28460E+02 
  59104.2771     0.28529E+02 
  59136.5393     0.28598E+02 
  59168.8014     0.28667E+02 
  59201.0636     0.28737E+02 
  59233.3258     0.28806E+02 
  59265.5879     0.28876E+02 
  59297.8501     0.28946E+02 
  59330.1122     0.29016E+02 
  59362.3744     0.29087E+02 
  59394.6366     0.29157E+02 
  59426.8987     0.29228E+02 
  59459.1609     0.29299E+02 
  59491.4230     0.29370E+02 
  59523.6852     0.29441E+02 
  59555.9474     0.29513E+02 
  59588.2095     0.29584E+02 
  59620.4717     0.29656E+02 
  59652.7338     0.29728E+02 
  59684.9960     0.29800E+02 
  59717.2582     0.29873E+02 
  59749.5203     0.29945E+02 
  59781.7825     0.30018E+02 
  59814.0446     0.30091E+02 
  59846.3068     0.30164E+02 
  59878.5690     0.30237E+02 
  59910.8311     0.30311E+02 
  59943.0933     0.30385E+02 
  59975.3554     0.30459E+02 
  60007.6176     0.30533E+02 
  60039.8798     0.30607E+02 
  60072.1419     0.30682E+02 
  60104.4041     0.30756E+02 
  60136.6662     0.30831E+02 
  60168.9284     0.30906E+02 
  60201.1906     0.30981E+02 
  60233.4527     0.31057E+02 
  60265.7149     0.31133E+02 
  60297.9770     0.31208E+02 
  60330.2392     0.31284E+02 
  60362.5014     0.31361E+02 
  60394.7635     0.31437E+02 
  60427.0257     0.31514E+02 
  60459.2878     0.31590E+02 
  60491.5500     0.31668E+02 
  60523.8122     0.31745E+02 
  60556.0743     0.31822E+02 
  60588.3365     0.31900E+02 
  60620.5986     0.31978E+02 
  60652.8608     0.32056E+02 
  60685.1230     0.32134E+02 
  60717.3851     0.32212E+02 
  60749.6473     0.32291E+02 
  60781.9094     0.32369E+02 
  60814.1716     0.32448E+02 
  60846.4338     0.32528E+02 
  60878.6959     0.32607E+02 
  60910.9581     0.32687E+02 
  60943.2202     0.32766E+02 
  60975.4824     0.32846E+02 
  61007.7446     0.32927E+02 
  61040.0067     0.33007E+02 
  61072.2689     0.33088E+02 
  61104.5310     0.33168E+02 
  61136.7932     0.33249E+02 
  61169.0554     0.33331E+02 
  61201.3175     0.33412E+02 
  61233.5797     0.33494E+02 
  61265.8418     0.33575E+02 
  61298.1040     0.33657E+02 
  61330.3662     0.33740E+02 
  61362.6283     0.33822E+02 
  61394.8905     0.33905E+02 
  61427.1526     0.33987E+02 
  61459.4148     0.34070E+02 
  61491.6770     0.34154E+02 
  61523.9391     0.34237E+02 
  61556.2013     0.34321E+02 
  61588.4634     0.34405E+02 
  61620.7256     0.34489E+02 
  61652.9878     0.34573E+02 
  61685.2499     0.34657E+02 
  61717.5121     0.34742E+02 
  61749.7742     0.34827E+02 
  61782.0364     0.34912E+02 
  61814.2986     0.34997E+02 
  61846.5607     0.35083E+02 
  61878.8229     0.35168E+02 
  61911.0850     0.35254E+02 
  61943.3472     0.35340E+02 
  61975.6094     0.35427E+02 
  62007.8715     0.35513E+02 
  62040.1337     0.35600E+02 
  62072.3958     0.35687E+02 
  62104.6580     0.35774E+02 
  62136.9202     0.35862E+02 
  62169.1823     0.35949E+02 
  62201.4445     0.36037E+02 
  62233.7066     0.36125E+02 
  62265.9688     0.36213E+02 
  62298.2310     0.36302E+02 
  62330.4931     0.36390E+02 
  62362.7553     0.36479E+02 
  62395.0174     0.36568E+02 
  62427.2796     0.36657E+02 
  62459.5418     0.36747E+02 
  62491.8039     0.36836E+02 
  62524.0661     0.36926E+02 
  62556.3282     0.37016E+02 
  62588.5904     0.37107E+02 
  62620.8526     0.37197E+02 
  62653.1147     0.37288E+02 
  62685.3769     0.37379E+02 
  62717.6390     0.37470E+02 
  62749.9012     0.37561E+02 
  62782.1634     0.37653E+02 
  62814.4255     0.37745E+02 
  62846.6877     0.37837E+02 
  62878.9498     0.37929E+02 
  62911.2120     0.38021E+02 
  62943.4742     0.38114E+02 
  62975.7363     0.38207E+02 
  63007.9985     0.38300E+02 
  63040.2606     0.38393E+02 
  63072.5228     0.38487E+02 
  63104.7850     0.38581E+02 
  63137.0471     0.38674E+02 
  63169.3093     0.38769E+02 
  63201.5714     0.38863E+02 
  63233.8336     0.38957E+02 
  63266.0958     0.39052E+02 
  63298.3579     0.39147E+02 
  63330.6201     0.39242E+02 
  63362.8822     0.39338E+02 
  63395.1444     0.39434E+02 
  63427.4066     0.39529E+02 
  63459.6687     0.39625E+02 
  63491.9309     0.39722E+02 
  63524.1930     0.39818E+02 
  63556.4552     0.39915E+02 
  63588.7174     0.40012E+02 
  63620.9795     0.40109E+02 
  63653.2417     0.40206E+02 
  63685.5038     0.40304E+02 
  63717.7660     0.40402E+02 
  63750.0282     0.40500E+02 
  63782.2903     0.40598E+02 
  63814.5525     0.40696E+02 
  63846.8146     0.40795E+02 
  63879.0768     0.40894E+02 
  63911.3390     0.40993E+02 
  63943.6011     0.41092E+02 
  63975.8633     0.41192E+02 
  64008.1254     0.41292E+02 
  64040.3876     0.41391E+02 
  64072.6498     0.41492E+02 
  64104.9119     0.41592E+02 
  64137.1741     0.41693E+02 
  64169.4362     0.41793E+02 
  64201.6984     0.41894E+02 
  64233.9606     0.41996E+02 
  64266.2227     0.42097E+02 
  64298.4849     0.42199E+02 
  64330.7470     0.42301E+02 
  64363.0092     0.42403E+02 
  64395.2714     0.42505E+02 
  64427.5335     0.42608E+02 
  64459.7957     0.42710E+02 
  64492.0578     0.42813E+02 
  64524.3200     0.42917E+02 
  64556.5822     0.43020E+02 
  64588.8443     0.43124E+02 
  64621.1065     0.43227E+02 
  64653.3686     0.43331E+02 
  64685.6308     0.43436E+02 
  64717.8930     0.43540E+02 
  64750.1551     0.43645E+02 
  64782.4173     0.43750E+02 
  64814.6794     0.43855E+02 
  64846.9416     0.43960E+02 
  64879.2038     0.44066E+02 
  64911.4659     0.44172E+02 
  64943.7281     0.44278E+02 
  64975.9902     0.44384E+02 
  65008.2524     0.44490E+02 
  65040.5146     0.44597E+02 
  65072.7767     0.44704E+02 
  65105.0389     0.44811E+02 
  65137.3010     0.44918E+02 
  65169.5632     0.45026E+02 
  65201.8254     0.45133E+02 
  65234.0875     0.45241E+02 
  65266.3497     0.45349E+02 
  65298.6118     0.45458E+02 
  65330.8740     0.45566E+02 
  65363.1362     0.45675E+02 
  65395.3983     0.45784E+02 
  65427.6605     0.45893E+02 
  65459.9226     0.46003E+02 
  65492.1848     0.46113E+02 
  65524.4470     0.46222E+02 
  65556.7091     0.46333E+02 
  65588.9713     0.46443E+02 
  65621.2334     0.46553E+02 
  65653.4956     0.46664E+02 
  65685.7578     0.46775E+02 
  65718.0199     0.46886E+02 
  65750.2821     0.46998E+02 
  65782.5442     0.47109E+02 
  65814.8064     0.47221E+02 
  65847.0686     0.47333E+02 
  65879.3307     0.47445E+02 
  65911.5929     0.47558E+02 
  65943.8550     0.47670E+02 
  65976.1172     0.47783E+02 
  66008.3794     0.47896E+02 
  66040.6415     0.48009E+02 
  66072.9037     0.48123E+02 
  66105.1658     0.48237E+02 
  66137.4280     0.48351E+02 
  66169.6902     0.48465E+02 
  66201.9523     0.48579E+02 
  66234.2145     0.48694E+02 
  66266.4766     0.48808E+02 
  66298.7388     0.48923E+02 
  66331.0010     0.49039E+02 
  66363.2631     0.49154E+02 
  66395.5253     0.49270E+02 
  66427.7874     0.49385E+02 
  66460.0496     0.49501E+02 
  66492.3118     0.49618E+02 
  66524.5739     0.49734E+02 
  66556.8361     0.49851E+02 
  66589.0982     0.49968E+02 
  66621.3604     0.50085E+02 
  66653.6226     0.50202E+02 
  66685.8847     0.50319E+02 
  66718.1469     0.50437E+02 
  66750.4090     0.50555E+02 
  66782.6712     0.50673E+02 
  66814.9334     0.50792E+02 
  66847.1955     0.50910E+02 
  66879.4577     0.51029E+02 
  66911.7198     0.51148E+02 
  66943.9820     0.51267E+02 
  66976.2442     0.51386E+02 
  67008.5063     0.51506E+02 
  67040.7685     0.51626E+02 
  67073.0306     0.51746E+02 
  67105.2928     0.51866E+02 
  67137.5550     0.51986E+02 
  67169.8171     0.52107E+02 
  67202.0793     0.52228E+02 
  67234.3414     0.52349E+02 
  67266.6036     0.52470E+02 
  67298.8658     0.52591E+02 
  67331.1279     0.52713E+02 
  67363.3901     0.52835E+02 
  67395.6522     0.52957E+02 
  67427.9144     0.53079E+02 
  67460.1766     0.53201E+02 
  67492.4387     0.53324E+02 
  67524.7009     0.53447E+02 
  67556.9630     0.53570E+02 
  67589.2252     0.53693E+02 
  67621.4874     0.53817E+02 
  67653.7495     0.53940E+02 
  67686.0117     0.54064E+02 
  67718.2738     0.54188E+02 
  67750.5360     0.54312E+02 
  67782.7982     0.54437E+02 
  67815.0603     0.54562E+02 
  67847.3225     0.54686E+02 
  67879.5846     0.54811E+02 
  67911.8468     0.54937E+02 
  67944.1090     0.55062E+02 
  67976.3711     0.55188E+02 
  68008.6333     0.55314E+02 
  68040.8954     0.55440E+02 
  68073.1576     0.55566E+02 
  68105.4198     0.55692E+02 
  68137.6819     0.55819E+02 
  68169.9441     0.55946E+02 
  68202.2062     0.56073E+02 
  68234.4684     0.56200E+02 
  68266.7306     0.56327E+02 
  68298.9927     0.56455E+02 
  68331.2549     0.56583E+02 
  68363.5170     0.56711E+02 
  68395.7792     0.56839E+02 
  68428.0414     0.56967E+02 
  68460.3035     0.57096E+02 
  68492.5657     0.57225E+02 
  68524.8278     0.57353E+02 
  68557.0900     0.57483E+02 
  68589.3522     0.57612E+02 
  68621.6143     0.57741E+02 
  68653.8765     0.57871E+02 
  68686.1386     0.58001E+02 
  68718.4008     0.58131E+02 
  68750.6630     0.58261E+02 
  68782.9251     0.58392E+02 
  68815.1873     0.58522E+02 
  68847.4494     0.58653E+02 
  68879.7116     0.58784E+02 
  68911.9738     0.58915E+02 
  68944.2359     0.59047E+02 
  68976.4981     0.59178E+02 
  69008.7602     0.59310E+02 
  69041.0224     0.59442E+02 
  69073.2846     0.59574E+02 
  69105.5467     0.59707E+02 
  69137.8089     0.59839E+02 
  69170.0710     0.59972E+02 
  69202.3332     0.60105E+02 
  69234.5954     0.60238E+02 
  69266.8575     0.60371E+02 
  69299.1197     0.60504E+02 
  69331.3818     0.60638E+02 
  69363.6440     0.60772E+02 
  69395.9062     0.60906E+02 
  69428.1683     0.61040E+02 
  69460.4305     0.61174E+02 
  69492.6926     0.61308E+02 
  69524.9548     0.61443E+02 
  69557.2170     0.61578E+02 
  69589.4791     0.61713E+02 
  69621.7413     0.61848E+02 
  69654.0034     0.61984E+02 
  69686.2656     0.62119E+02 
  69718.5278     0.62255E+02 
  69750.7899     0.62391E+02 
  69783.0521     0.62527E+02 
  69815.3142     0.62663E+02 
  69847.5764     0.62799E+02 
  69879.8386     0.62936E+02 
  69912.1007     0.63073E+02 
  69944.3629     0.63210E+02 
  69976.6250     0.63347E+02 
  70008.8872     0.63484E+02 
  70041.1494     0.63621E+02 
  70073.4115     0.63759E+02 
  70105.6737     0.63897E+02 
  70137.9358     0.64035E+02 
  70170.1980     0.64173E+02 
  70202.4602     0.64311E+02 
  70234.7223     0.64449E+02 
  70266.9845     0.64588E+02 
  70299.2466     0.64727E+02 
  70331.5088     0.64866E+02 
  70363.7710     0.65005E+02 
  70396.0331     0.65144E+02 
  70428.2953     0.65283E+02 
  70460.5574     0.65423E+02 
  70492.8196     0.65563E+02 
  70525.0818     0.65703E+02 
  70557.3439     0.65843E+02 
  70589.6061     0.65983E+02 
  70621.8682     0.66123E+02 
  70654.1304     0.66264E+02 
  70686.3926     0.66405E+02 
  70718.6547     0.66545E+02 
  70750.9169     0.66686E+02 
  70783.1790     0.66828E+02 
  70815.4412     0.66969E+02 
  70847.7034     0.67110E+02 
  70879.9655     0.67252E+02 
  70912.2277     0.67394E+02 
  70944.4898     0.67536E+02 
  70976.7520     0.67678E+02 
  71009.0142     0.67820E+02 
  71041.2763     0.67963E+02 
  71073.5385     0.68105E+02 
  71105.8006     0.68248E+02 
  71138.0628     0.68391E+02 
  71170.3250     0.68534E+02 
  71202.5871     0.68677E+02 
  71234.8493     0.68820E+02 
  71267.1114     0.68964E+02 
  71299.3736     0.69107E+02 
  71331.6358     0.69251E+02 
  71363.8979     0.69395E+02 
  71396.1601     0.69539E+02 
  71428.4222     0.69683E+02 
  71460.6844     0.69827E+02 
  71492.9466     0.69972E+02 
  71525.2087     0.70116E+02 
  71557.4709     0.70261E+02 
  71589.7330     0.70406E+02 
  71621.9952     0.70551E+02 
  71654.2574     0.70696E+02 
  71686.5195     0.70842E+02 
  71718.7817     0.70987E+02 
  71751.0438     0.71133E+02 
  71783.3060     0.71278E+02 
  71815.5682     0.71424E+02 
  71847.8303     0.71570E+02 
  71880.0925     0.71716E+02 
  71912.3546     0.71863E+02 
  71944.6168     0.72009E+02 
  71976.8790     0.72155E+02 
  72009.1411     0.72302E+02 
  72041.4033     0.72449E+02 
  72073.6654     0.72596E+02 
  72105.9276     0.72743E+02 
  72138.1898     0.72890E+02 
  72170.4519     0.73037E+02 
  72202.7141     0.73185E+02 
  72234.9762     0.73332E+02 
  72267.2384     0.73480E+02 
  72299.5006     0.73628E+02 
  72331.7627     0.73776E+02 
  72364.0249     0.73924E+02 
  72396.2870     0.74072E+02 
  72428.5492     0.74220E+02 
  72460.8114     0.74369E+02 
  72493.0735     0.74517E+02 
  72525.3357     0.74666E+02 
  72557.5978     0.74815E+02 
  72589.8600     0.74964E+02 
