  32262.1600     0.78750E-01 
  32294.4222     0.79068E-01 
  32326.6843     0.79387E-01 
  32358.9465     0.79707E-01 
  32391.2086     0.80028E-01 
  32423.4708     0.80350E-01 
  32455.7330     0.80673E-01 
  32487.9951     0.80996E-01 
  32520.2573     0.81321E-01 
  32552.5194     0.81647E-01 
  32584.7816     0.81974E-01 
  32617.0438     0.82301E-01 
  32649.3059     0.82630E-01 
  32681.5681     0.82960E-01 
  32713.8302     0.83290E-01 
  32746.0924     0.83622E-01 
  32778.3546     0.83955E-01 
  32810.6167     0.84288E-01 
  32842.8789     0.84623E-01 
  32875.1410     0.84959E-01 
  32907.4032     0.85295E-01 
  32939.6654     0.85633E-01 
  32971.9275     0.85972E-01 
  33004.1897     0.86311E-01 
  33036.4518     0.86652E-01 
  33068.7140     0.86994E-01 
  33100.9762     0.87336E-01 
  33133.2383     0.87680E-01 
  33165.5005     0.88025E-01 
  33197.7626     0.88370E-01 
  33230.0248     0.88717E-01 
  33262.2870     0.89065E-01 
  33294.5491     0.89414E-01 
  33326.8113     0.89763E-01 
  33359.0734     0.90114E-01 
  33391.3356     0.90466E-01 
  33423.5978     0.90819E-01 
  33455.8599     0.91173E-01 
  33488.1221     0.91528E-01 
  33520.3842     0.91884E-01 
  33552.6464     0.92241E-01 
  33584.9086     0.92599E-01 
  33617.1707     0.92958E-01 
  33649.4329     0.93318E-01 
  33681.6950     0.93679E-01 
  33713.9572     0.94041E-01 
  33746.2194     0.94405E-01 
  33778.4815     0.94769E-01 
  33810.7437     0.95134E-01 
  33843.0058     0.95501E-01 
  33875.2680     0.95868E-01 
  33907.5302     0.96237E-01 
  33939.7923     0.96607E-01 
  33972.0545     0.96977E-01 
  34004.3166     0.97349E-01 
  34036.5788     0.97722E-01 
  34068.8410     0.98096E-01 
  34101.1031     0.98471E-01 
  34133.3653     0.98847E-01 
  34165.6274     0.99224E-01 
  34197.8896     0.99602E-01 
  34230.1518     0.99981E-01 
  34262.4139     0.10036E+00 
  34294.6761     0.10074E+00 
  34326.9382     0.10113E+00 
  34359.2004     0.10151E+00 
  34391.4626     0.10189E+00 
  34423.7247     0.10228E+00 
  34455.9869     0.10267E+00 
  34488.2490     0.10305E+00 
  34520.5112     0.10344E+00 
  34552.7734     0.10383E+00 
  34585.0355     0.10423E+00 
  34617.2977     0.10462E+00 
  34649.5598     0.10501E+00 
  34681.8220     0.10541E+00 
  34714.0842     0.10580E+00 
  34746.3463     0.10620E+00 
  34778.6085     0.10660E+00 
  34810.8706     0.10700E+00 
  34843.1328     0.10740E+00 
  34875.3950     0.10780E+00 
  34907.6571     0.10820E+00 
  34939.9193     0.10860E+00 
  34972.1814     0.10901E+00 
  35004.4436     0.10941E+00 
  35036.7058     0.10982E+00 
  35068.9679     0.11023E+00 
  35101.2301     0.11064E+00 
  35133.4922     0.11105E+00 
  35165.7544     0.11146E+00 
  35198.0166     0.11187E+00 
  35230.2787     0.11229E+00 
  35262.5409     0.11270E+00 
  35294.8030     0.11312E+00 
  35327.0652     0.11353E+00 
  35359.3274     0.11395E+00 
  35391.5895     0.11437E+00 
  35423.8517     0.11479E+00 
  35456.1138     0.11521E+00 
  35488.3760     0.11564E+00 
  35520.6382     0.11606E+00 
  35552.9003     0.11649E+00 
  35585.1625     0.11691E+00 
  35617.4246     0.11734E+00 
  35649.6868     0.11777E+00 
  35681.9490     0.11820E+00 
  35714.2111     0.11863E+00 
  35746.4733     0.11906E+00 
  35778.7354     0.11950E+00 
  35810.9976     0.11993E+00 
  35843.2598     0.12037E+00 
  35875.5219     0.12081E+00 
  35907.7841     0.12124E+00 
  35940.0462     0.12168E+00 
  35972.3084     0.12212E+00 
  36004.5706     0.12257E+00 
  36036.8327     0.12301E+00 
  36069.0949     0.12345E+00 
  36101.3570     0.12390E+00 
  36133.6192     0.12435E+00 
  36165.8814     0.12479E+00 
  36198.1435     0.12524E+00 
  36230.4057     0.12569E+00 
  36262.6678     0.12615E+00 
  36294.9300     0.12660E+00 
  36327.1922     0.12705E+00 
  36359.4543     0.12751E+00 
  36391.7165     0.12796E+00 
  36423.9786     0.12842E+00 
  36456.2408     0.12888E+00 
  36488.5030     0.12934E+00 
  36520.7651     0.12980E+00 
  36553.0273     0.13026E+00 
  36585.2894     0.13073E+00 
  36617.5516     0.13119E+00 
  36649.8138     0.13166E+00 
  36682.0759     0.13213E+00 
  36714.3381     0.13260E+00 
  36746.6002     0.13307E+00 
  36778.8624     0.13354E+00 
  36811.1246     0.13401E+00 
  36843.3867     0.13448E+00 
  36875.6489     0.13496E+00 
  36907.9110     0.13544E+00 
  36940.1732     0.13591E+00 
  36972.4354     0.13639E+00 
  37004.6975     0.13687E+00 
  37036.9597     0.13735E+00 
  37069.2218     0.13784E+00 
  37101.4840     0.13832E+00 
  37133.7462     0.13880E+00 
  37166.0083     0.13929E+00 
  37198.2705     0.13978E+00 
  37230.5326     0.14027E+00 
  37262.7948     0.14076E+00 
  37295.0570     0.14125E+00 
  37327.3191     0.14174E+00 
  37359.5813     0.14224E+00 
  37391.8434     0.14273E+00 
  37424.1056     0.14323E+00 
  37456.3678     0.14373E+00 
  37488.6299     0.14423E+00 
  37520.8921     0.14473E+00 
  37553.1542     0.14523E+00 
  37585.4164     0.14573E+00 
  37617.6786     0.14624E+00 
  37649.9407     0.14674E+00 
  37682.2029     0.14725E+00 
  37714.4650     0.14776E+00 
  37746.7272     0.14827E+00 
  37778.9894     0.14878E+00 
  37811.2515     0.14929E+00 
  37843.5137     0.14981E+00 
  37875.7758     0.15032E+00 
  37908.0380     0.15084E+00 
  37940.3002     0.15136E+00 
  37972.5623     0.15187E+00 
  38004.8245     0.15239E+00 
  38037.0866     0.15292E+00 
  38069.3488     0.15344E+00 
  38101.6110     0.15396E+00 
  38133.8731     0.15449E+00 
  38166.1353     0.15502E+00 
  38198.3974     0.15555E+00 
  38230.6596     0.15608E+00 
  38262.9218     0.15661E+00 
  38295.1839     0.15714E+00 
  38327.4461     0.15767E+00 
  38359.7082     0.15821E+00 
  38391.9704     0.15875E+00 
  38424.2326     0.15928E+00 
  38456.4947     0.15982E+00 
  38488.7569     0.16036E+00 
  38521.0190     0.16091E+00 
  38553.2812     0.16145E+00 
  38585.5434     0.16199E+00 
  38617.8055     0.16254E+00 
  38650.0677     0.16309E+00 
  38682.3298     0.16364E+00 
  38714.5920     0.16419E+00 
  38746.8542     0.16474E+00 
  38779.1163     0.16529E+00 
  38811.3785     0.16585E+00 
  38843.6406     0.16640E+00 
  38875.9028     0.16696E+00 
  38908.1650     0.16752E+00 
  38940.4271     0.16808E+00 
  38972.6893     0.16864E+00 
  39004.9514     0.16920E+00 
  39037.2136     0.16977E+00 
  39069.4758     0.17033E+00 
  39101.7379     0.17090E+00 
  39134.0001     0.17147E+00 
  39166.2622     0.17204E+00 
  39198.5244     0.17261E+00 
  39230.7866     0.17318E+00 
  39263.0487     0.17376E+00 
  39295.3109     0.17433E+00 
  39327.5730     0.17491E+00 
  39359.8352     0.17549E+00 
  39392.0974     0.17607E+00 
  39424.3595     0.17665E+00 
  39456.6217     0.17723E+00 
  39488.8838     0.17782E+00 
  39521.1460     0.17840E+00 
  39553.4082     0.17899E+00 
  39585.6703     0.17958E+00 
  39617.9325     0.18017E+00 
  39650.1946     0.18076E+00 
  39682.4568     0.18135E+00 
  39714.7190     0.18195E+00 
  39746.9811     0.18255E+00 
  39779.2433     0.18314E+00 
  39811.5054     0.18374E+00 
  39843.7676     0.18434E+00 
  39876.0298     0.18494E+00 
  39908.2919     0.18555E+00 
  39940.5541     0.18615E+00 
  39972.8162     0.18676E+00 
  40005.0784     0.18737E+00 
  40037.3406     0.18798E+00 
  40069.6027     0.18859E+00 
  40101.8649     0.18920E+00 
  40134.1270     0.18981E+00 
  40166.3892     0.19043E+00 
  40198.6514     0.19104E+00 
  40230.9135     0.19166E+00 
  40263.1757     0.19228E+00 
  40295.4378     0.19290E+00 
  40327.7000     0.19353E+00 
  40359.9622     0.19415E+00 
  40392.2243     0.19478E+00 
  40424.4865     0.19540E+00 
  40456.7486     0.19603E+00 
  40489.0108     0.19666E+00 
  40521.2730     0.19729E+00 
  40553.5351     0.19793E+00 
  40585.7973     0.19856E+00 
  40618.0594     0.19920E+00 
  40650.3216     0.19984E+00 
  40682.5838     0.20048E+00 
  40714.8459     0.20112E+00 
  40747.1081     0.20176E+00 
  40779.3702     0.20240E+00 
  40811.6324     0.20305E+00 
  40843.8946     0.20370E+00 
  40876.1567     0.20434E+00 
  40908.4189     0.20499E+00 
  40940.6810     0.20565E+00 
  40972.9432     0.20630E+00 
  41005.2054     0.20695E+00 
  41037.4675     0.20761E+00 
  41069.7297     0.20827E+00 
  41101.9918     0.20893E+00 
  41134.2540     0.20959E+00 
  41166.5162     0.21025E+00 
  41198.7783     0.21092E+00 
  41231.0405     0.21158E+00 
  41263.3026     0.21225E+00 
  41295.5648     0.21292E+00 
  41327.8270     0.21359E+00 
  41360.0891     0.21426E+00 
  41392.3513     0.21493E+00 
  41424.6134     0.21561E+00 
  41456.8756     0.21629E+00 
  41489.1378     0.21697E+00 
  41521.3999     0.21765E+00 
  41553.6621     0.21833E+00 
  41585.9242     0.21901E+00 
  41618.1864     0.21970E+00 
  41650.4486     0.22038E+00 
  41682.7107     0.22107E+00 
  41714.9729     0.22176E+00 
  41747.2350     0.22245E+00 
  41779.4972     0.22314E+00 
  41811.7594     0.22384E+00 
  41844.0215     0.22453E+00 
  41876.2837     0.22523E+00 
  41908.5458     0.22593E+00 
  41940.8080     0.22663E+00 
  41973.0702     0.22734E+00 
  42005.3323     0.22804E+00 
  42037.5945     0.22875E+00 
  42069.8566     0.22945E+00 
  42102.1188     0.23016E+00 
  42134.3810     0.23087E+00 
  42166.6431     0.23159E+00 
  42198.9053     0.23230E+00 
  42231.1674     0.23302E+00 
  42263.4296     0.23373E+00 
  42295.6918     0.23445E+00 
  42327.9539     0.23517E+00 
  42360.2161     0.23590E+00 
  42392.4782     0.23662E+00 
  42424.7404     0.23735E+00 
  42457.0026     0.23807E+00 
  42489.2647     0.23880E+00 
  42521.5269     0.23953E+00 
  42553.7890     0.24027E+00 
  42586.0512     0.24100E+00 
  42618.3134     0.24174E+00 
  42650.5755     0.24247E+00 
  42682.8377     0.24321E+00 
  42715.0998     0.24395E+00 
  42747.3620     0.24470E+00 
  42779.6242     0.24544E+00 
  42811.8863     0.24619E+00 
  42844.1485     0.24693E+00 
  42876.4106     0.24768E+00 
  42908.6728     0.24844E+00 
  42940.9350     0.24919E+00 
  42973.1971     0.24994E+00 
  43005.4593     0.25070E+00 
  43037.7214     0.25146E+00 
  43069.9836     0.25222E+00 
  43102.2458     0.25298E+00 
  43134.5079     0.25374E+00 
  43166.7701     0.25451E+00 
  43199.0322     0.25527E+00 
  43231.2944     0.25604E+00 
  43263.5566     0.25681E+00 
  43295.8187     0.25758E+00 
  43328.0809     0.25836E+00 
  43360.3430     0.25913E+00 
  43392.6052     0.25991E+00 
  43424.8674     0.26069E+00 
  43457.1295     0.26147E+00 
  43489.3917     0.26225E+00 
  43521.6538     0.26303E+00 
  43553.9160     0.26382E+00 
  43586.1782     0.26461E+00 
  43618.4403     0.26540E+00 
  43650.7025     0.26619E+00 
  43682.9646     0.26698E+00 
  43715.2268     0.26778E+00 
  43747.4890     0.26857E+00 
  43779.7511     0.26937E+00 
  43812.0133     0.27017E+00 
  43844.2754     0.27097E+00 
  43876.5376     0.27177E+00 
  43908.7998     0.27258E+00 
  43941.0619     0.27339E+00 
  43973.3241     0.27420E+00 
  44005.5862     0.27501E+00 
  44037.8484     0.27582E+00 
  44070.1106     0.27663E+00 
  44102.3727     0.27745E+00 
  44134.6349     0.27827E+00 
  44166.8970     0.27909E+00 
  44199.1592     0.27991E+00 
  44231.4214     0.28073E+00 
  44263.6835     0.28156E+00 
  44295.9457     0.28238E+00 
  44328.2078     0.28321E+00 
  44360.4700     0.28404E+00 
  44392.7322     0.28488E+00 
  44424.9943     0.28571E+00 
  44457.2565     0.28655E+00 
  44489.5186     0.28738E+00 
  44521.7808     0.28822E+00 
  44554.0430     0.28907E+00 
  44586.3051     0.28991E+00 
  44618.5673     0.29075E+00 
  44650.8294     0.29160E+00 
  44683.0916     0.29245E+00 
  44715.3538     0.29330E+00 
  44747.6159     0.29415E+00 
  44779.8781     0.29501E+00 
  44812.1402     0.29586E+00 
  44844.4024     0.29672E+00 
  44876.6646     0.29758E+00 
  44908.9267     0.29844E+00 
  44941.1889     0.29931E+00 
  44973.4510     0.30017E+00 
  45005.7132     0.30104E+00 
  45037.9754     0.30191E+00 
  45070.2375     0.30278E+00 
  45102.4997     0.30366E+00 
  45134.7618     0.30453E+00 
  45167.0240     0.30541E+00 
  45199.2862     0.30629E+00 
  45231.5483     0.30717E+00 
  45263.8105     0.30805E+00 
  45296.0726     0.30893E+00 
  45328.3348     0.30982E+00 
  45360.5970     0.31071E+00 
  45392.8591     0.31160E+00 
  45425.1213     0.31249E+00 
  45457.3834     0.31339E+00 
  45489.6456     0.31428E+00 
  45521.9078     0.31518E+00 
  45554.1699     0.31608E+00 
  45586.4321     0.31698E+00 
  45618.6942     0.31789E+00 
  45650.9564     0.31879E+00 
  45683.2186     0.31970E+00 
  45715.4807     0.32061E+00 
  45747.7429     0.32152E+00 
  45780.0050     0.32243E+00 
  45812.2672     0.32335E+00 
  45844.5294     0.32427E+00 
  45876.7915     0.32519E+00 
  45909.0537     0.32611E+00 
  45941.3158     0.32703E+00 
  45973.5780     0.32796E+00 
  46005.8402     0.32888E+00 
  46038.1023     0.32981E+00 
  46070.3645     0.33074E+00 
  46102.6266     0.33168E+00 
  46134.8888     0.33261E+00 
  46167.1510     0.33355E+00 
  46199.4131     0.33449E+00 
  46231.6753     0.33543E+00 
  46263.9374     0.33637E+00 
  46296.1996     0.33732E+00 
  46328.4618     0.33826E+00 
  46360.7239     0.33921E+00 
  46392.9861     0.34016E+00 
  46425.2482     0.34112E+00 
  46457.5104     0.34207E+00 
  46489.7726     0.34303E+00 
  46522.0347     0.34399E+00 
  46554.2969     0.34495E+00 
  46586.5590     0.34591E+00 
  46618.8212     0.34688E+00 
  46651.0834     0.34784E+00 
  46683.3455     0.34881E+00 
  46715.6077     0.34978E+00 
  46747.8698     0.35076E+00 
  46780.1320     0.35173E+00 
  46812.3942     0.35271E+00 
  46844.6563     0.35369E+00 
  46876.9185     0.35467E+00 
  46909.1806     0.35565E+00 
  46941.4428     0.35664E+00 
  46973.7050     0.35762E+00 
  47005.9671     0.35861E+00 
  47038.2293     0.35960E+00 
  47070.4914     0.36060E+00 
  47102.7536     0.36159E+00 
  47135.0158     0.36259E+00 
  47167.2779     0.36359E+00 
  47199.5401     0.36459E+00 
  47231.8022     0.36560E+00 
  47264.0644     0.36660E+00 
  47296.3266     0.36761E+00 
  47328.5887     0.36862E+00 
  47360.8509     0.36963E+00 
  47393.1130     0.37065E+00 
  47425.3752     0.37166E+00 
  47457.6374     0.37268E+00 
  47489.8995     0.37370E+00 
  47522.1617     0.37472E+00 
  47554.4238     0.37575E+00 
  47586.6860     0.37678E+00 
  47618.9482     0.37780E+00 
  47651.2103     0.37883E+00 
  47683.4725     0.37987E+00 
  47715.7346     0.38090E+00 
  47747.9968     0.38194E+00 
  47780.2590     0.38298E+00 
  47812.5211     0.38402E+00 
  47844.7833     0.38506E+00 
  47877.0454     0.38611E+00 
  47909.3076     0.38716E+00 
  47941.5698     0.38821E+00 
  47973.8319     0.38926E+00 
  48006.0941     0.39032E+00 
  48038.3562     0.39137E+00 
  48070.6184     0.39243E+00 
  48102.8806     0.39349E+00 
  48135.1427     0.39455E+00 
  48167.4049     0.39562E+00 
  48199.6670     0.39669E+00 
  48231.9292     0.39776E+00 
  48264.1914     0.39883E+00 
  48296.4535     0.39990E+00 
  48328.7157     0.40098E+00 
  48360.9778     0.40205E+00 
  48393.2400     0.40313E+00 
  48425.5022     0.40422E+00 
  48457.7643     0.40530E+00 
  48490.0265     0.40639E+00 
  48522.2886     0.40748E+00 
  48554.5508     0.40857E+00 
  48586.8130     0.40966E+00 
  48619.0751     0.41076E+00 
  48651.3373     0.41185E+00 
  48683.5994     0.41295E+00 
  48715.8616     0.41406E+00 
  48748.1238     0.41516E+00 
  48780.3859     0.41627E+00 
  48812.6481     0.41738E+00 
  48844.9102     0.41849E+00 
  48877.1724     0.41960E+00 
  48909.4346     0.42071E+00 
  48941.6967     0.42183E+00 
  48973.9589     0.42295E+00 
  49006.2210     0.42407E+00 
  49038.4832     0.42520E+00 
  49070.7454     0.42632E+00 
  49103.0075     0.42745E+00 
  49135.2697     0.42858E+00 
  49167.5318     0.42972E+00 
  49199.7940     0.43085E+00 
  49232.0562     0.43199E+00 
  49264.3183     0.43313E+00 
  49296.5805     0.43427E+00 
  49328.8426     0.43542E+00 
  49361.1048     0.43656E+00 
  49393.3670     0.43771E+00 
  49425.6291     0.43886E+00 
  49457.8913     0.44002E+00 
  49490.1534     0.44117E+00 
  49522.4156     0.44233E+00 
  49554.6778     0.44349E+00 
  49586.9399     0.44465E+00 
  49619.2021     0.44582E+00 
  49651.4642     0.44699E+00 
  49683.7264     0.44815E+00 
  49715.9886     0.44933E+00 
  49748.2507     0.45050E+00 
  49780.5129     0.45168E+00 
  49812.7750     0.45286E+00 
  49845.0372     0.45404E+00 
  49877.2994     0.45522E+00 
  49909.5615     0.45641E+00 
  49941.8237     0.45759E+00 
  49974.0858     0.45878E+00 
  50006.3480     0.45998E+00 
  50038.6102     0.46117E+00 
  50070.8723     0.46237E+00 
  50103.1345     0.46357E+00 
  50135.3966     0.46477E+00 
  50167.6588     0.46597E+00 
  50199.9210     0.46718E+00 
  50232.1831     0.46839E+00 
  50264.4453     0.46960E+00 
  50296.7074     0.47081E+00 
  50328.9696     0.47203E+00 
  50361.2318     0.47325E+00 
  50393.4939     0.47447E+00 
  50425.7561     0.47569E+00 
  50458.0182     0.47692E+00 
  50490.2804     0.47814E+00 
  50522.5426     0.47937E+00 
  50554.8047     0.48061E+00 
  50587.0669     0.48184E+00 
  50619.3290     0.48308E+00 
  50651.5912     0.48432E+00 
  50683.8534     0.48556E+00 
  50716.1155     0.48680E+00 
  50748.3777     0.48805E+00 
  50780.6398     0.48930E+00 
  50812.9020     0.49055E+00 
  50845.1642     0.49180E+00 
  50877.4263     0.49306E+00 
  50909.6885     0.49432E+00 
  50941.9506     0.49558E+00 
  50974.2128     0.49684E+00 
  51006.4750     0.49811E+00 
  51038.7371     0.49938E+00 
  51070.9993     0.50065E+00 
  51103.2614     0.50192E+00 
  51135.5236     0.50320E+00 
  51167.7858     0.50448E+00 
  51200.0479     0.50576E+00 
  51232.3101     0.50704E+00 
  51264.5722     0.50832E+00 
  51296.8344     0.50961E+00 
  51329.0966     0.51090E+00 
  51361.3587     0.51219E+00 
  51393.6209     0.51349E+00 
  51425.8830     0.51479E+00 
  51458.1452     0.51609E+00 
  51490.4074     0.51739E+00 
  51522.6695     0.51869E+00 
  51554.9317     0.52000E+00 
  51587.1938     0.52131E+00 
  51619.4560     0.52262E+00 
  51651.7182     0.52394E+00 
  51683.9803     0.52526E+00 
  51716.2425     0.52658E+00 
  51748.5046     0.52790E+00 
  51780.7668     0.52922E+00 
  51813.0290     0.53055E+00 
  51845.2911     0.53188E+00 
  51877.5533     0.53321E+00 
  51909.8154     0.53455E+00 
  51942.0776     0.53588E+00 
  51974.3398     0.53722E+00 
  52006.6019     0.53857E+00 
  52038.8641     0.53991E+00 
  52071.1262     0.54126E+00 
  52103.3884     0.54261E+00 
  52135.6506     0.54396E+00 
  52167.9127     0.54531E+00 
  52200.1749     0.54667E+00 
  52232.4370     0.54803E+00 
  52264.6992     0.54939E+00 
  52296.9614     0.55076E+00 
  52329.2235     0.55213E+00 
  52361.4857     0.55350E+00 
  52393.7478     0.55487E+00 
  52426.0100     0.55624E+00 
  52458.2722     0.55762E+00 
  52490.5343     0.55900E+00 
  52522.7965     0.56039E+00 
  52555.0586     0.56177E+00 
  52587.3208     0.56316E+00 
  52619.5830     0.56455E+00 
  52651.8451     0.56594E+00 
  52684.1073     0.56734E+00 
  52716.3694     0.56874E+00 
  52748.6316     0.57014E+00 
  52780.8938     0.57154E+00 
  52813.1559     0.57295E+00 
  52845.4181     0.57435E+00 
  52877.6802     0.57577E+00 
  52909.9424     0.57718E+00 
  52942.2046     0.57860E+00 
  52974.4667     0.58001E+00 
  53006.7289     0.58144E+00 
  53038.9910     0.58286E+00 
  53071.2532     0.58429E+00 
  53103.5154     0.58572E+00 
  53135.7775     0.58715E+00 
  53168.0397     0.58858E+00 
  53200.3018     0.59002E+00 
  53232.5640     0.59146E+00 
  53264.8262     0.59290E+00 
  53297.0883     0.59435E+00 
  53329.3505     0.59580E+00 
  53361.6126     0.59725E+00 
  53393.8748     0.59870E+00 
  53426.1370     0.60015E+00 
  53458.3991     0.60161E+00 
  53490.6613     0.60307E+00 
  53522.9234     0.60454E+00 
  53555.1856     0.60600E+00 
  53587.4478     0.60747E+00 
  53619.7099     0.60894E+00 
  53651.9721     0.61042E+00 
  53684.2342     0.61190E+00 
  53716.4964     0.61338E+00 
  53748.7586     0.61486E+00 
  53781.0207     0.61634E+00 
  53813.2829     0.61783E+00 
  53845.5450     0.61932E+00 
  53877.8072     0.62081E+00 
  53910.0694     0.62231E+00 
  53942.3315     0.62381E+00 
  53974.5937     0.62531E+00 
  54006.8558     0.62681E+00 
  54039.1180     0.62832E+00 
  54071.3802     0.62983E+00 
  54103.6423     0.63134E+00 
  54135.9045     0.63286E+00 
  54168.1666     0.63437E+00 
  54200.4288     0.63589E+00 
  54232.6910     0.63742E+00 
  54264.9531     0.63894E+00 
  54297.2153     0.64047E+00 
  54329.4774     0.64200E+00 
  54361.7396     0.64354E+00 
  54394.0018     0.64507E+00 
  54426.2639     0.64661E+00 
  54458.5261     0.64815E+00 
  54490.7882     0.64970E+00 
  54523.0504     0.65125E+00 
  54555.3126     0.65280E+00 
  54587.5747     0.65435E+00 
  54619.8369     0.65591E+00 
  54652.0990     0.65747E+00 
  54684.3612     0.65903E+00 
  54716.6234     0.66059E+00 
  54748.8855     0.66216E+00 
  54781.1477     0.66373E+00 
  54813.4098     0.66530E+00 
  54845.6720     0.66688E+00 
  54877.9342     0.66845E+00 
  54910.1963     0.67004E+00 
  54942.4585     0.67162E+00 
  54974.7206     0.67321E+00 
  55006.9828     0.67480E+00 
  55039.2450     0.67639E+00 
  55071.5071     0.67798E+00 
  55103.7693     0.67958E+00 
  55136.0314     0.68118E+00 
  55168.2936     0.68278E+00 
  55200.5558     0.68439E+00 
  55232.8179     0.68600E+00 
  55265.0801     0.68761E+00 
  55297.3422     0.68923E+00 
  55329.6044     0.69084E+00 
  55361.8666     0.69246E+00 
  55394.1287     0.69409E+00 
  55426.3909     0.69571E+00 
  55458.6530     0.69734E+00 
  55490.9152     0.69898E+00 
  55523.1774     0.70061E+00 
  55555.4395     0.70225E+00 
  55587.7017     0.70389E+00 
  55619.9638     0.70553E+00 
  55652.2260     0.70718E+00 
  55684.4882     0.70883E+00 
  55716.7503     0.71048E+00 
  55749.0125     0.71213E+00 
  55781.2746     0.71379E+00 
  55813.5368     0.71545E+00 
  55845.7990     0.71712E+00 
  55878.0611     0.71878E+00 
  55910.3233     0.72045E+00 
  55942.5854     0.72212E+00 
  55974.8476     0.72380E+00 
  56007.1098     0.72548E+00 
  56039.3719     0.72716E+00 
  56071.6341     0.72884E+00 
  56103.8962     0.73053E+00 
  56136.1584     0.73222E+00 
  56168.4206     0.73391E+00 
  56200.6827     0.73561E+00 
  56232.9449     0.73730E+00 
  56265.2070     0.73901E+00 
  56297.4692     0.74071E+00 
  56329.7314     0.74242E+00 
  56361.9935     0.74413E+00 
  56394.2557     0.74584E+00 
  56426.5178     0.74756E+00 
  56458.7800     0.74928E+00 
  56491.0422     0.75100E+00 
  56523.3043     0.75272E+00 
  56555.5665     0.75445E+00 
  56587.8286     0.75618E+00 
  56620.0908     0.75792E+00 
  56652.3530     0.75965E+00 
  56684.6151     0.76139E+00 
  56716.8773     0.76314E+00 
  56749.1394     0.76488E+00 
  56781.4016     0.76663E+00 
  56813.6638     0.76838E+00 
  56845.9259     0.77014E+00 
  56878.1881     0.77190E+00 
  56910.4502     0.77366E+00 
  56942.7124     0.77542E+00 
  56974.9746     0.77719E+00 
  57007.2367     0.77896E+00 
  57039.4989     0.78073E+00 
  57071.7610     0.78251E+00 
  57104.0232     0.78429E+00 
  57136.2854     0.78607E+00 
  57168.5475     0.78785E+00 
  57200.8097     0.78964E+00 
  57233.0718     0.79143E+00 
  57265.3340     0.79323E+00 
  57297.5962     0.79502E+00 
  57329.8583     0.79682E+00 
  57362.1205     0.79863E+00 
  57394.3826     0.80043E+00 
  57426.6448     0.80224E+00 
  57458.9070     0.80405E+00 
  57491.1691     0.80587E+00 
  57523.4313     0.80769E+00 
  57555.6934     0.80951E+00 
  57587.9556     0.81134E+00 
  57620.2178     0.81316E+00 
  57652.4799     0.81499E+00 
  57684.7421     0.81683E+00 
  57717.0042     0.81866E+00 
  57749.2664     0.82051E+00 
  57781.5286     0.82235E+00 
  57813.7907     0.82419E+00 
  57846.0529     0.82604E+00 
  57878.3150     0.82790E+00 
  57910.5772     0.82975E+00 
  57942.8394     0.83161E+00 
  57975.1015     0.83347E+00 
  58007.3637     0.83534E+00 
  58039.6258     0.83721E+00 
  58071.8880     0.83908E+00 
  58104.1502     0.84095E+00 
  58136.4123     0.84283E+00 
  58168.6745     0.84471E+00 
  58200.9366     0.84659E+00 
  58233.1988     0.84848E+00 
  58265.4610     0.85037E+00 
  58297.7231     0.85226E+00 
  58329.9853     0.85416E+00 
  58362.2474     0.85606E+00 
  58394.5096     0.85796E+00 
  58426.7718     0.85987E+00 
  58459.0339     0.86178E+00 
  58491.2961     0.86369E+00 
  58523.5582     0.86561E+00 
  58555.8204     0.86752E+00 
  58588.0826     0.86945E+00 
  58620.3447     0.87137E+00 
  58652.6069     0.87330E+00 
  58684.8690     0.87523E+00 
  58717.1312     0.87717E+00 
  58749.3934     0.87910E+00 
  58781.6555     0.88104E+00 
  58813.9177     0.88299E+00 
  58846.1798     0.88494E+00 
  58878.4420     0.88689E+00 
  58910.7042     0.88884E+00 
  58942.9663     0.89080E+00 
  58975.2285     0.89276E+00 
  59007.4906     0.89472E+00 
  59039.7528     0.89669E+00 
  59072.0150     0.89866E+00 
  59104.2771     0.90063E+00 
  59136.5393     0.90261E+00 
  59168.8014     0.90459E+00 
  59201.0636     0.90657E+00 
  59233.3258     0.90856E+00 
  59265.5879     0.91055E+00 
  59297.8501     0.91254E+00 
  59330.1122     0.91453E+00 
  59362.3744     0.91653E+00 
  59394.6366     0.91854E+00 
  59426.8987     0.92054E+00 
  59459.1609     0.92255E+00 
  59491.4230     0.92456E+00 
  59523.6852     0.92658E+00 
  59555.9474     0.92860E+00 
  59588.2095     0.93062E+00 
  59620.4717     0.93265E+00 
  59652.7338     0.93468E+00 
  59684.9960     0.93671E+00 
  59717.2582     0.93874E+00 
  59749.5203     0.94078E+00 
  59781.7825     0.94282E+00 
  59814.0446     0.94487E+00 
  59846.3068     0.94692E+00 
  59878.5690     0.94897E+00 
  59910.8311     0.95103E+00 
  59943.0933     0.95308E+00 
  59975.3554     0.95515E+00 
  60007.6176     0.95721E+00 
  60039.8798     0.95928E+00 
  60072.1419     0.96135E+00 
  60104.4041     0.96343E+00 
  60136.6662     0.96551E+00 
  60168.9284     0.96759E+00 
  60201.1906     0.96967E+00 
  60233.4527     0.97176E+00 
  60265.7149     0.97386E+00 
  60297.9770     0.97595E+00 
  60330.2392     0.97805E+00 
  60362.5014     0.98015E+00 
  60394.7635     0.98226E+00 
  60427.0257     0.98437E+00 
  60459.2878     0.98648E+00 
  60491.5500     0.98860E+00 
  60523.8122     0.99071E+00 
  60556.0743     0.99284E+00 
  60588.3365     0.99496E+00 
  60620.5986     0.99709E+00 
  60652.8608     0.99923E+00 
  60685.1230     0.10014E+01 
  60717.3851     0.10035E+01 
  60749.6473     0.10056E+01 
  60781.9094     0.10078E+01 
  60814.1716     0.10099E+01 
  60846.4338     0.10121E+01 
  60878.6959     0.10143E+01 
  60910.9581     0.10164E+01 
  60943.2202     0.10186E+01 
  60975.4824     0.10207E+01 
  61007.7446     0.10229E+01 
  61040.0067     0.10251E+01 
  61072.2689     0.10273E+01 
  61104.5310     0.10294E+01 
  61136.7932     0.10316E+01 
  61169.0554     0.10338E+01 
  61201.3175     0.10360E+01 
  61233.5797     0.10382E+01 
  61265.8418     0.10404E+01 
  61298.1040     0.10426E+01 
  61330.3662     0.10448E+01 
  61362.6283     0.10470E+01 
  61394.8905     0.10492E+01 
  61427.1526     0.10514E+01 
  61459.4148     0.10537E+01 
  61491.6770     0.10559E+01 
  61523.9391     0.10581E+01 
  61556.2013     0.10603E+01 
  61588.4634     0.10626E+01 
  61620.7256     0.10648E+01 
  61652.9878     0.10671E+01 
  61685.2499     0.10693E+01 
  61717.5121     0.10716E+01 
  61749.7742     0.10738E+01 
  61782.0364     0.10761E+01 
  61814.2986     0.10783E+01 
  61846.5607     0.10806E+01 
  61878.8229     0.10828E+01 
  61911.0850     0.10851E+01 
  61943.3472     0.10874E+01 
  61975.6094     0.10897E+01 
  62007.8715     0.10919E+01 
  62040.1337     0.10942E+01 
  62072.3958     0.10965E+01 
  62104.6580     0.10988E+01 
  62136.9202     0.11011E+01 
  62169.1823     0.11034E+01 
  62201.4445     0.11057E+01 
  62233.7066     0.11080E+01 
  62265.9688     0.11103E+01 
  62298.2310     0.11126E+01 
  62330.4931     0.11149E+01 
  62362.7553     0.11173E+01 
  62395.0174     0.11196E+01 
  62427.2796     0.11219E+01 
  62459.5418     0.11242E+01 
  62491.8039     0.11266E+01 
  62524.0661     0.11289E+01 
  62556.3282     0.11312E+01 
  62588.5904     0.11336E+01 
  62620.8526     0.11359E+01 
  62653.1147     0.11383E+01 
  62685.3769     0.11406E+01 
  62717.6390     0.11430E+01 
  62749.9012     0.11454E+01 
  62782.1634     0.11477E+01 
  62814.4255     0.11501E+01 
  62846.6877     0.11525E+01 
  62878.9498     0.11548E+01 
  62911.2120     0.11572E+01 
  62943.4742     0.11596E+01 
  62975.7363     0.11620E+01 
  63007.9985     0.11644E+01 
  63040.2606     0.11668E+01 
  63072.5228     0.11692E+01 
  63104.7850     0.11716E+01 
  63137.0471     0.11740E+01 
  63169.3093     0.11764E+01 
  63201.5714     0.11788E+01 
  63233.8336     0.11812E+01 
  63266.0958     0.11837E+01 
  63298.3579     0.11861E+01 
  63330.6201     0.11885E+01 
  63362.8822     0.11909E+01 
  63395.1444     0.11934E+01 
  63427.4066     0.11958E+01 
  63459.6687     0.11983E+01 
  63491.9309     0.12007E+01 
  63524.1930     0.12032E+01 
  63556.4552     0.12056E+01 
  63588.7174     0.12081E+01 
  63620.9795     0.12105E+01 
  63653.2417     0.12130E+01 
  63685.5038     0.12155E+01 
  63717.7660     0.12180E+01 
  63750.0282     0.12204E+01 
  63782.2903     0.12229E+01 
  63814.5525     0.12254E+01 
  63846.8146     0.12279E+01 
  63879.0768     0.12304E+01 
  63911.3390     0.12329E+01 
  63943.6011     0.12354E+01 
  63975.8633     0.12379E+01 
  64008.1254     0.12404E+01 
  64040.3876     0.12429E+01 
  64072.6498     0.12454E+01 
  64104.9119     0.12479E+01 
  64137.1741     0.12505E+01 
  64169.4362     0.12530E+01 
  64201.6984     0.12555E+01 
  64233.9606     0.12581E+01 
  64266.2227     0.12606E+01 
  64298.4849     0.12631E+01 
  64330.7470     0.12657E+01 
  64363.0092     0.12682E+01 
  64395.2714     0.12708E+01 
  64427.5335     0.12733E+01 
  64459.7957     0.12759E+01 
  64492.0578     0.12785E+01 
  64524.3200     0.12810E+01 
  64556.5822     0.12836E+01 
  64588.8443     0.12862E+01 
  64621.1065     0.12888E+01 
  64653.3686     0.12914E+01 
  64685.6308     0.12939E+01 
  64717.8930     0.12965E+01 
  64750.1551     0.12991E+01 
  64782.4173     0.13017E+01 
  64814.6794     0.13043E+01 
  64846.9416     0.13069E+01 
  64879.2038     0.13096E+01 
  64911.4659     0.13122E+01 
  64943.7281     0.13148E+01 
  64975.9902     0.13174E+01 
  65008.2524     0.13200E+01 
  65040.5146     0.13227E+01 
  65072.7767     0.13253E+01 
  65105.0389     0.13280E+01 
  65137.3010     0.13306E+01 
  65169.5632     0.13332E+01 
  65201.8254     0.13359E+01 
  65234.0875     0.13386E+01 
  65266.3497     0.13412E+01 
  65298.6118     0.13439E+01 
  65330.8740     0.13465E+01 
  65363.1362     0.13492E+01 
  65395.3983     0.13519E+01 
  65427.6605     0.13546E+01 
  65459.9226     0.13573E+01 
  65492.1848     0.13599E+01 
  65524.4470     0.13626E+01 
  65556.7091     0.13653E+01 
  65588.9713     0.13680E+01 
  65621.2334     0.13707E+01 
  65653.4956     0.13734E+01 
  65685.7578     0.13761E+01 
  65718.0199     0.13789E+01 
  65750.2821     0.13816E+01 
  65782.5442     0.13843E+01 
  65814.8064     0.13870E+01 
  65847.0686     0.13898E+01 
  65879.3307     0.13925E+01 
  65911.5929     0.13952E+01 
  65943.8550     0.13980E+01 
  65976.1172     0.14007E+01 
  66008.3794     0.14035E+01 
  66040.6415     0.14062E+01 
  66072.9037     0.14090E+01 
  66105.1658     0.14118E+01 
  66137.4280     0.14145E+01 
  66169.6902     0.14173E+01 
  66201.9523     0.14201E+01 
  66234.2145     0.14229E+01 
  66266.4766     0.14256E+01 
  66298.7388     0.14284E+01 
  66331.0010     0.14312E+01 
  66363.2631     0.14340E+01 
  66395.5253     0.14368E+01 
  66427.7874     0.14396E+01 
  66460.0496     0.14424E+01 
  66492.3118     0.14452E+01 
  66524.5739     0.14481E+01 
  66556.8361     0.14509E+01 
  66589.0982     0.14537E+01 
  66621.3604     0.14565E+01 
  66653.6226     0.14594E+01 
  66685.8847     0.14622E+01 
  66718.1469     0.14650E+01 
  66750.4090     0.14679E+01 
  66782.6712     0.14707E+01 
  66814.9334     0.14736E+01 
  66847.1955     0.14764E+01 
  66879.4577     0.14793E+01 
  66911.7198     0.14822E+01 
  66943.9820     0.14850E+01 
  66976.2442     0.14879E+01 
  67008.5063     0.14908E+01 
  67040.7685     0.14937E+01 
  67073.0306     0.14966E+01 
  67105.2928     0.14995E+01 
  67137.5550     0.15024E+01 
  67169.8171     0.15053E+01 
  67202.0793     0.15082E+01 
  67234.3414     0.15111E+01 
  67266.6036     0.15140E+01 
  67298.8658     0.15169E+01 
  67331.1279     0.15198E+01 
  67363.3901     0.15227E+01 
  67395.6522     0.15257E+01 
  67427.9144     0.15286E+01 
  67460.1766     0.15315E+01 
  67492.4387     0.15345E+01 
  67524.7009     0.15374E+01 
  67556.9630     0.15404E+01 
  67589.2252     0.15433E+01 
  67621.4874     0.15463E+01 
  67653.7495     0.15493E+01 
  67686.0117     0.15522E+01 
  67718.2738     0.15552E+01 
  67750.5360     0.15582E+01 
  67782.7982     0.15611E+01 
  67815.0603     0.15641E+01 
  67847.3225     0.15671E+01 
  67879.5846     0.15701E+01 
  67911.8468     0.15731E+01 
  67944.1090     0.15761E+01 
  67976.3711     0.15791E+01 
  68008.6333     0.15821E+01 
  68040.8954     0.15851E+01 
  68073.1576     0.15882E+01 
  68105.4198     0.15912E+01 
  68137.6819     0.15942E+01 
  68169.9441     0.15972E+01 
  68202.2062     0.16003E+01 
  68234.4684     0.16033E+01 
  68266.7306     0.16064E+01 
  68298.9927     0.16094E+01 
  68331.2549     0.16125E+01 
  68363.5170     0.16155E+01 
  68395.7792     0.16186E+01 
  68428.0414     0.16217E+01 
  68460.3035     0.16247E+01 
  68492.5657     0.16278E+01 
  68524.8278     0.16309E+01 
  68557.0900     0.16340E+01 
  68589.3522     0.16370E+01 
  68621.6143     0.16401E+01 
  68653.8765     0.16432E+01 
  68686.1386     0.16463E+01 
  68718.4008     0.16494E+01 
  68750.6630     0.16526E+01 
  68782.9251     0.16557E+01 
  68815.1873     0.16588E+01 
  68847.4494     0.16619E+01 
  68879.7116     0.16650E+01 
  68911.9738     0.16682E+01 
  68944.2359     0.16713E+01 
  68976.4981     0.16744E+01 
  69008.7602     0.16776E+01 
  69041.0224     0.16807E+01 
  69073.2846     0.16839E+01 
  69105.5467     0.16871E+01 
  69137.8089     0.16902E+01 
  69170.0710     0.16934E+01 
  69202.3332     0.16966E+01 
  69234.5954     0.16997E+01 
  69266.8575     0.17029E+01 
  69299.1197     0.17061E+01 
  69331.3818     0.17093E+01 
  69363.6440     0.17125E+01 
  69395.9062     0.17157E+01 
  69428.1683     0.17189E+01 
  69460.4305     0.17221E+01 
  69492.6926     0.17253E+01 
  69524.9548     0.17285E+01 
  69557.2170     0.17317E+01 
  69589.4791     0.17350E+01 
  69621.7413     0.17382E+01 
  69654.0034     0.17414E+01 
  69686.2656     0.17447E+01 
  69718.5278     0.17479E+01 
  69750.7899     0.17512E+01 
  69783.0521     0.17544E+01 
  69815.3142     0.17577E+01 
  69847.5764     0.17609E+01 
  69879.8386     0.17642E+01 
  69912.1007     0.17675E+01 
  69944.3629     0.17708E+01 
  69976.6250     0.17740E+01 
  70008.8872     0.17773E+01 
  70041.1494     0.17806E+01 
  70073.4115     0.17839E+01 
  70105.6737     0.17872E+01 
  70137.9358     0.17905E+01 
  70170.1980     0.17938E+01 
  70202.4602     0.17971E+01 
  70234.7223     0.18004E+01 
  70266.9845     0.18038E+01 
  70299.2466     0.18071E+01 
  70331.5088     0.18104E+01 
  70363.7710     0.18137E+01 
  70396.0331     0.18171E+01 
  70428.2953     0.18204E+01 
  70460.5574     0.18238E+01 
  70492.8196     0.18271E+01 
  70525.0818     0.18305E+01 
  70557.3439     0.18339E+01 
  70589.6061     0.18372E+01 
  70621.8682     0.18406E+01 
  70654.1304     0.18440E+01 
  70686.3926     0.18474E+01 
  70718.6547     0.18507E+01 
  70750.9169     0.18541E+01 
  70783.1790     0.18575E+01 
  70815.4412     0.18609E+01 
  70847.7034     0.18643E+01 
  70879.9655     0.18677E+01 
  70912.2277     0.18712E+01 
  70944.4898     0.18746E+01 
  70976.7520     0.18780E+01 
  71009.0142     0.18814E+01 
  71041.2763     0.18849E+01 
  71073.5385     0.18883E+01 
  71105.8006     0.18917E+01 
  71138.0628     0.18952E+01 
  71170.3250     0.18986E+01 
  71202.5871     0.19021E+01 
  71234.8493     0.19055E+01 
  71267.1114     0.19090E+01 
  71299.3736     0.19125E+01 
  71331.6358     0.19160E+01 
  71363.8979     0.19194E+01 
  71396.1601     0.19229E+01 
  71428.4222     0.19264E+01 
  71460.6844     0.19299E+01 
  71492.9466     0.19334E+01 
  71525.2087     0.19369E+01 
  71557.4709     0.19404E+01 
  71589.7330     0.19439E+01 
  71621.9952     0.19474E+01 
  71654.2574     0.19510E+01 
  71686.5195     0.19545E+01 
  71718.7817     0.19580E+01 
  71751.0438     0.19616E+01 
  71783.3060     0.19651E+01 
  71815.5682     0.19687E+01 
  71847.8303     0.19722E+01 
  71880.0925     0.19758E+01 
  71912.3546     0.19793E+01 
  71944.6168     0.19829E+01 
  71976.8790     0.19865E+01 
  72009.1411     0.19900E+01 
  72041.4033     0.19936E+01 
  72073.6654     0.19972E+01 
  72105.9276     0.20008E+01 
  72138.1898     0.20044E+01 
  72170.4519     0.20080E+01 
  72202.7141     0.20116E+01 
  72234.9762     0.20152E+01 
  72267.2384     0.20188E+01 
  72299.5006     0.20224E+01 
  72331.7627     0.20261E+01 
  72364.0249     0.20297E+01 
  72396.2870     0.20333E+01 
  72428.5492     0.20370E+01 
  72460.8114     0.20406E+01 
  72493.0735     0.20443E+01 
  72525.3357     0.20479E+01 
  72557.5978     0.20516E+01 
  72589.8600     0.20552E+01 
