  32262.1600     0.71342E-05 
  32294.4222     0.72062E-05 
  32326.6843     0.72787E-05 
  32358.9465     0.73517E-05 
  32391.2086     0.74251E-05 
  32423.4708     0.74990E-05 
  32455.7330     0.75734E-05 
  32487.9951     0.76483E-05 
  32520.2573     0.77236E-05 
  32552.5194     0.77995E-05 
  32584.7816     0.78758E-05 
  32617.0438     0.79526E-05 
  32649.3059     0.80298E-05 
  32681.5681     0.81076E-05 
  32713.8302     0.81858E-05 
  32746.0924     0.82645E-05 
  32778.3546     0.83437E-05 
  32810.6167     0.84233E-05 
  32842.8789     0.85034E-05 
  32875.1410     0.85840E-05 
  32907.4032     0.86651E-05 
  32939.6654     0.87467E-05 
  32971.9275     0.88287E-05 
  33004.1897     0.89112E-05 
  33036.4518     0.89941E-05 
  33068.7140     0.90776E-05 
  33100.9762     0.91615E-05 
  33133.2383     0.92459E-05 
  33165.5005     0.93307E-05 
  33197.7626     0.94160E-05 
  33230.0248     0.95018E-05 
  33262.2870     0.95881E-05 
  33294.5491     0.96748E-05 
  33326.8113     0.97620E-05 
  33359.0734     0.98496E-05 
  33391.3356     0.99377E-05 
  33423.5978     0.10026E-04 
  33455.8599     0.10115E-04 
  33488.1221     0.10205E-04 
  33520.3842     0.10295E-04 
  33552.6464     0.10385E-04 
  33584.9086     0.10476E-04 
  33617.1707     0.10567E-04 
  33649.4329     0.10659E-04 
  33681.6950     0.10751E-04 
  33713.9572     0.10844E-04 
  33746.2194     0.10937E-04 
  33778.4815     0.11030E-04 
  33810.7437     0.11124E-04 
  33843.0058     0.11219E-04 
  33875.2680     0.11314E-04 
  33907.5302     0.11409E-04 
  33939.7923     0.11505E-04 
  33972.0545     0.11601E-04 
  34004.3166     0.11697E-04 
  34036.5788     0.11794E-04 
  34068.8410     0.11892E-04 
  34101.1031     0.11990E-04 
  34133.3653     0.12088E-04 
  34165.6274     0.12187E-04 
  34197.8896     0.12286E-04 
  34230.1518     0.12385E-04 
  34262.4139     0.12485E-04 
  34294.6761     0.12586E-04 
  34326.9382     0.12686E-04 
  34359.2004     0.12788E-04 
  34391.4626     0.12889E-04 
  34423.7247     0.12991E-04 
  34455.9869     0.13093E-04 
  34488.2490     0.13196E-04 
  34520.5112     0.13299E-04 
  34552.7734     0.13403E-04 
  34585.0355     0.13507E-04 
  34617.2977     0.13611E-04 
  34649.5598     0.13716E-04 
  34681.8220     0.13821E-04 
  34714.0842     0.13926E-04 
  34746.3463     0.14032E-04 
  34778.6085     0.14138E-04 
  34810.8706     0.14244E-04 
  34843.1328     0.14351E-04 
  34875.3950     0.14459E-04 
  34907.6571     0.14566E-04 
  34939.9193     0.14674E-04 
  34972.1814     0.14782E-04 
  35004.4436     0.14891E-04 
  35036.7058     0.15000E-04 
  35068.9679     0.15109E-04 
  35101.2301     0.15219E-04 
  35133.4922     0.15329E-04 
  35165.7544     0.15439E-04 
  35198.0166     0.15549E-04 
  35230.2787     0.15660E-04 
  35262.5409     0.15771E-04 
  35294.8030     0.15883E-04 
  35327.0652     0.15995E-04 
  35359.3274     0.16107E-04 
  35391.5895     0.16219E-04 
  35423.8517     0.16332E-04 
  35456.1138     0.16445E-04 
  35488.3760     0.16558E-04 
  35520.6382     0.16672E-04 
  35552.9003     0.16785E-04 
  35585.1625     0.16899E-04 
  35617.4246     0.17014E-04 
  35649.6868     0.17128E-04 
  35681.9490     0.17243E-04 
  35714.2111     0.17358E-04 
  35746.4733     0.17474E-04 
  35778.7354     0.17589E-04 
  35810.9976     0.17705E-04 
  35843.2598     0.17821E-04 
  35875.5219     0.17937E-04 
  35907.7841     0.18054E-04 
  35940.0462     0.18170E-04 
  35972.3084     0.18287E-04 
  36004.5706     0.18404E-04 
  36036.8327     0.18522E-04 
  36069.0949     0.18639E-04 
  36101.3570     0.18757E-04 
  36133.6192     0.18875E-04 
  36165.8814     0.18993E-04 
  36198.1435     0.19111E-04 
  36230.4057     0.19230E-04 
  36262.6678     0.19348E-04 
  36294.9300     0.19467E-04 
  36327.1922     0.19586E-04 
  36359.4543     0.19705E-04 
  36391.7165     0.19824E-04 
  36423.9786     0.19943E-04 
  36456.2408     0.20063E-04 
  36488.5030     0.20182E-04 
  36520.7651     0.20302E-04 
  36553.0273     0.20422E-04 
  36585.2894     0.20542E-04 
  36617.5516     0.20662E-04 
  36649.8138     0.20782E-04 
  36682.0759     0.20902E-04 
  36714.3381     0.21023E-04 
  36746.6002     0.21143E-04 
  36778.8624     0.21263E-04 
  36811.1246     0.21384E-04 
  36843.3867     0.21505E-04 
  36875.6489     0.21625E-04 
  36907.9110     0.21746E-04 
  36940.1732     0.21867E-04 
  36972.4354     0.21988E-04 
  37004.6975     0.22108E-04 
  37036.9597     0.22229E-04 
  37069.2218     0.22350E-04 
  37101.4840     0.22471E-04 
  37133.7462     0.22592E-04 
  37166.0083     0.22713E-04 
  37198.2705     0.22834E-04 
  37230.5326     0.22955E-04 
  37262.7948     0.23076E-04 
  37295.0570     0.23197E-04 
  37327.3191     0.23317E-04 
  37359.5813     0.23438E-04 
  37391.8434     0.23559E-04 
  37424.1056     0.23680E-04 
  37456.3678     0.23801E-04 
  37488.6299     0.23921E-04 
  37520.8921     0.24042E-04 
  37553.1542     0.24162E-04 
  37585.4164     0.24283E-04 
  37617.6786     0.24403E-04 
  37649.9407     0.24523E-04 
  37682.2029     0.24643E-04 
  37714.4650     0.24763E-04 
  37746.7272     0.24883E-04 
  37778.9894     0.25003E-04 
  37811.2515     0.25123E-04 
  37843.5137     0.25243E-04 
  37875.7758     0.25362E-04 
  37908.0380     0.25481E-04 
  37940.3002     0.25600E-04 
  37972.5623     0.25720E-04 
  38004.8245     0.25838E-04 
  38037.0866     0.25957E-04 
  38069.3488     0.26076E-04 
  38101.6110     0.26194E-04 
  38133.8731     0.26312E-04 
  38166.1353     0.26430E-04 
  38198.3974     0.26548E-04 
  38230.6596     0.26665E-04 
  38262.9218     0.26783E-04 
  38295.1839     0.26900E-04 
  38327.4461     0.27017E-04 
  38359.7082     0.27133E-04 
  38391.9704     0.27250E-04 
  38424.2326     0.27366E-04 
  38456.4947     0.27482E-04 
  38488.7569     0.27597E-04 
  38521.0190     0.27713E-04 
  38553.2812     0.27828E-04 
  38585.5434     0.27943E-04 
  38617.8055     0.28057E-04 
  38650.0677     0.28172E-04 
  38682.3298     0.28286E-04 
  38714.5920     0.28399E-04 
  38746.8542     0.28513E-04 
  38779.1163     0.28626E-04 
  38811.3785     0.28739E-04 
  38843.6406     0.28851E-04 
  38875.9028     0.28963E-04 
  38908.1650     0.29075E-04 
  38940.4271     0.29186E-04 
  38972.6893     0.29297E-04 
  39004.9514     0.29408E-04 
  39037.2136     0.29518E-04 
  39069.4758     0.29628E-04 
  39101.7379     0.29738E-04 
  39134.0001     0.29847E-04 
  39166.2622     0.29955E-04 
  39198.5244     0.30064E-04 
  39230.7866     0.30172E-04 
  39263.0487     0.30279E-04 
  39295.3109     0.30386E-04 
  39327.5730     0.30493E-04 
  39359.8352     0.30599E-04 
  39392.0974     0.30705E-04 
  39424.3595     0.30811E-04 
  39456.6217     0.30916E-04 
  39488.8838     0.31020E-04 
  39521.1460     0.31124E-04 
  39553.4082     0.31228E-04 
  39585.6703     0.31331E-04 
  39617.9325     0.31433E-04 
  39650.1946     0.31535E-04 
  39682.4568     0.31637E-04 
  39714.7190     0.31738E-04 
  39746.9811     0.31839E-04 
  39779.2433     0.31939E-04 
  39811.5054     0.32039E-04 
  39843.7676     0.32138E-04 
  39876.0298     0.32236E-04 
  39908.2919     0.32334E-04 
  39940.5541     0.32432E-04 
  39972.8162     0.32529E-04 
  40005.0784     0.32625E-04 
  40037.3406     0.32721E-04 
  40069.6027     0.32816E-04 
  40101.8649     0.32911E-04 
  40134.1270     0.33005E-04 
  40166.3892     0.33099E-04 
  40198.6514     0.33192E-04 
  40230.9135     0.33284E-04 
  40263.1757     0.33376E-04 
  40295.4378     0.33467E-04 
  40327.7000     0.33558E-04 
  40359.9622     0.33648E-04 
  40392.2243     0.33737E-04 
  40424.4865     0.33826E-04 
  40456.7486     0.33914E-04 
  40489.0108     0.34002E-04 
  40521.2730     0.34088E-04 
  40553.5351     0.34175E-04 
  40585.7973     0.34260E-04 
  40618.0594     0.34345E-04 
  40650.3216     0.34429E-04 
  40682.5838     0.34513E-04 
  40714.8459     0.34596E-04 
  40747.1081     0.34678E-04 
  40779.3702     0.34760E-04 
  40811.6324     0.34841E-04 
  40843.8946     0.34921E-04 
  40876.1567     0.35001E-04 
  40908.4189     0.35080E-04 
  40940.6810     0.35158E-04 
  40972.9432     0.35235E-04 
  41005.2054     0.35312E-04 
  41037.4675     0.35388E-04 
  41069.7297     0.35463E-04 
  41101.9918     0.35538E-04 
  41134.2540     0.35612E-04 
  41166.5162     0.35685E-04 
  41198.7783     0.35757E-04 
  41231.0405     0.35829E-04 
  41263.3026     0.35900E-04 
  41295.5648     0.35970E-04 
  41327.8270     0.36040E-04 
  41360.0891     0.36109E-04 
  41392.3513     0.36176E-04 
  41424.6134     0.36244E-04 
  41456.8756     0.36310E-04 
  41489.1378     0.36376E-04 
  41521.3999     0.36441E-04 
  41553.6621     0.36505E-04 
  41585.9242     0.36568E-04 
  41618.1864     0.36631E-04 
  41650.4486     0.36693E-04 
  41682.7107     0.36754E-04 
  41714.9729     0.36814E-04 
  41747.2350     0.36873E-04 
  41779.4972     0.36932E-04 
  41811.7594     0.36990E-04 
  41844.0215     0.37047E-04 
  41876.2837     0.37103E-04 
  41908.5458     0.37158E-04 
  41940.8080     0.37213E-04 
  41973.0702     0.37267E-04 
  42005.3323     0.37320E-04 
  42037.5945     0.37372E-04 
  42069.8566     0.37423E-04 
  42102.1188     0.37474E-04 
  42134.3810     0.37523E-04 
  42166.6431     0.37572E-04 
  42198.9053     0.37620E-04 
  42231.1674     0.37667E-04 
  42263.4296     0.37714E-04 
  42295.6918     0.37759E-04 
  42327.9539     0.37804E-04 
  42360.2161     0.37847E-04 
  42392.4782     0.37890E-04 
  42424.7404     0.37933E-04 
  42457.0026     0.37974E-04 
  42489.2647     0.38014E-04 
  42521.5269     0.38054E-04 
  42553.7890     0.38092E-04 
  42586.0512     0.38130E-04 
  42618.3134     0.38167E-04 
  42650.5755     0.38203E-04 
  42682.8377     0.38239E-04 
  42715.0998     0.38273E-04 
  42747.3620     0.38306E-04 
  42779.6242     0.38339E-04 
  42811.8863     0.38371E-04 
  42844.1485     0.38402E-04 
  42876.4106     0.38432E-04 
  42908.6728     0.38461E-04 
  42940.9350     0.38489E-04 
  42973.1971     0.38517E-04 
  43005.4593     0.38543E-04 
  43037.7214     0.38569E-04 
  43069.9836     0.38594E-04 
  43102.2458     0.38618E-04 
  43134.5079     0.38641E-04 
  43166.7701     0.38663E-04 
  43199.0322     0.38684E-04 
  43231.2944     0.38705E-04 
  43263.5566     0.38724E-04 
  43295.8187     0.38743E-04 
  43328.0809     0.38761E-04 
  43360.3430     0.38778E-04 
  43392.6052     0.38794E-04 
  43424.8674     0.38809E-04 
  43457.1295     0.38823E-04 
  43489.3917     0.38836E-04 
  43521.6538     0.38849E-04 
  43553.9160     0.38860E-04 
  43586.1782     0.38871E-04 
  43618.4403     0.38881E-04 
  43650.7025     0.38890E-04 
  43682.9646     0.38898E-04 
  43715.2268     0.38905E-04 
  43747.4890     0.38911E-04 
  43779.7511     0.38917E-04 
  43812.0133     0.38921E-04 
  43844.2754     0.38925E-04 
  43876.5376     0.38928E-04 
  43908.7998     0.38930E-04 
  43941.0619     0.38931E-04 
  43973.3241     0.38931E-04 
  44005.5862     0.38930E-04 
  44037.8484     0.38929E-04 
  44070.1106     0.38926E-04 
  44102.3727     0.38923E-04 
  44134.6349     0.38919E-04 
  44166.8970     0.38914E-04 
  44199.1592     0.38908E-04 
  44231.4214     0.38901E-04 
  44263.6835     0.38893E-04 
  44295.9457     0.38885E-04 
  44328.2078     0.38875E-04 
  44360.4700     0.38865E-04 
  44392.7322     0.38854E-04 
  44424.9943     0.38842E-04 
  44457.2565     0.38829E-04 
  44489.5186     0.38815E-04 
  44521.7808     0.38801E-04 
  44554.0430     0.38786E-04 
  44586.3051     0.38769E-04 
  44618.5673     0.38752E-04 
  44650.8294     0.38734E-04 
  44683.0916     0.38716E-04 
  44715.3538     0.38696E-04 
  44747.6159     0.38675E-04 
  44779.8781     0.38654E-04 
  44812.1402     0.38632E-04 
  44844.4024     0.38609E-04 
  44876.6646     0.38585E-04 
  44908.9267     0.38561E-04 
  44941.1889     0.38535E-04 
  44973.4510     0.38509E-04 
  45005.7132     0.38482E-04 
  45037.9754     0.38454E-04 
  45070.2375     0.38425E-04 
  45102.4997     0.38396E-04 
  45134.7618     0.38365E-04 
  45167.0240     0.38334E-04 
  45199.2862     0.38302E-04 
  45231.5483     0.38269E-04 
  45263.8105     0.38236E-04 
  45296.0726     0.38201E-04 
  45328.3348     0.38166E-04 
  45360.5970     0.38130E-04 
  45392.8591     0.38094E-04 
  45425.1213     0.38056E-04 
  45457.3834     0.38018E-04 
  45489.6456     0.37979E-04 
  45521.9078     0.37939E-04 
  45554.1699     0.37898E-04 
  45586.4321     0.37857E-04 
  45618.6942     0.37815E-04 
  45650.9564     0.37772E-04 
  45683.2186     0.37728E-04 
  45715.4807     0.37684E-04 
  45747.7429     0.37638E-04 
  45780.0050     0.37592E-04 
  45812.2672     0.37546E-04 
  45844.5294     0.37498E-04 
  45876.7915     0.37450E-04 
  45909.0537     0.37401E-04 
  45941.3158     0.37352E-04 
  45973.5780     0.37301E-04 
  46005.8402     0.37250E-04 
  46038.1023     0.37198E-04 
  46070.3645     0.37146E-04 
  46102.6266     0.37093E-04 
  46134.8888     0.37039E-04 
  46167.1510     0.36984E-04 
  46199.4131     0.36929E-04 
  46231.6753     0.36873E-04 
  46263.9374     0.36816E-04 
  46296.1996     0.36758E-04 
  46328.4618     0.36700E-04 
  46360.7239     0.36642E-04 
  46392.9861     0.36582E-04 
  46425.2482     0.36522E-04 
  46457.5104     0.36461E-04 
  46489.7726     0.36400E-04 
  46522.0347     0.36338E-04 
  46554.2969     0.36275E-04 
  46586.5590     0.36211E-04 
  46618.8212     0.36147E-04 
  46651.0834     0.36083E-04 
  46683.3455     0.36017E-04 
  46715.6077     0.35951E-04 
  46747.8698     0.35885E-04 
  46780.1320     0.35818E-04 
  46812.3942     0.35750E-04 
  46844.6563     0.35681E-04 
  46876.9185     0.35612E-04 
  46909.1806     0.35543E-04 
  46941.4428     0.35472E-04 
  46973.7050     0.35401E-04 
  47005.9671     0.35330E-04 
  47038.2293     0.35258E-04 
  47070.4914     0.35185E-04 
  47102.7536     0.35112E-04 
  47135.0158     0.35038E-04 
  47167.2779     0.34964E-04 
  47199.5401     0.34889E-04 
  47231.8022     0.34814E-04 
  47264.0644     0.34738E-04 
  47296.3266     0.34661E-04 
  47328.5887     0.34584E-04 
  47360.8509     0.34506E-04 
  47393.1130     0.34428E-04 
  47425.3752     0.34349E-04 
  47457.6374     0.34270E-04 
  47489.8995     0.34190E-04 
  47522.1617     0.34110E-04 
  47554.4238     0.34029E-04 
  47586.6860     0.33948E-04 
  47618.9482     0.33866E-04 
  47651.2103     0.33784E-04 
  47683.4725     0.33701E-04 
  47715.7346     0.33618E-04 
  47747.9968     0.33534E-04 
  47780.2590     0.33450E-04 
  47812.5211     0.33365E-04 
  47844.7833     0.33280E-04 
  47877.0454     0.33194E-04 
  47909.3076     0.33108E-04 
  47941.5698     0.33021E-04 
  47973.8319     0.32934E-04 
  48006.0941     0.32847E-04 
  48038.3562     0.32759E-04 
  48070.6184     0.32671E-04 
  48102.8806     0.32582E-04 
  48135.1427     0.32493E-04 
  48167.4049     0.32403E-04 
  48199.6670     0.32313E-04 
  48231.9292     0.32223E-04 
  48264.1914     0.32132E-04 
  48296.4535     0.32041E-04 
  48328.7157     0.31949E-04 
  48360.9778     0.31857E-04 
  48393.2400     0.31765E-04 
  48425.5022     0.31672E-04 
  48457.7643     0.31579E-04 
  48490.0265     0.31486E-04 
  48522.2886     0.31392E-04 
  48554.5508     0.31298E-04 
  48586.8130     0.31203E-04 
  48619.0751     0.31108E-04 
  48651.3373     0.31013E-04 
  48683.5994     0.30918E-04 
  48715.8616     0.30822E-04 
  48748.1238     0.30726E-04 
  48780.3859     0.30629E-04 
  48812.6481     0.30532E-04 
  48844.9102     0.30435E-04 
  48877.1724     0.30338E-04 
  48909.4346     0.30240E-04 
  48941.6967     0.30142E-04 
  48973.9589     0.30043E-04 
  49006.2210     0.29945E-04 
  49038.4832     0.29846E-04 
  49070.7454     0.29747E-04 
  49103.0075     0.29647E-04 
  49135.2697     0.29547E-04 
  49167.5318     0.29447E-04 
  49199.7940     0.29347E-04 
  49232.0562     0.29247E-04 
  49264.3183     0.29146E-04 
  49296.5805     0.29045E-04 
  49328.8426     0.28944E-04 
  49361.1048     0.28842E-04 
  49393.3670     0.28740E-04 
  49425.6291     0.28639E-04 
  49457.8913     0.28536E-04 
  49490.1534     0.28434E-04 
  49522.4156     0.28332E-04 
  49554.6778     0.28229E-04 
  49586.9399     0.28126E-04 
  49619.2021     0.28023E-04 
  49651.4642     0.27919E-04 
  49683.7264     0.27816E-04 
  49715.9886     0.27712E-04 
  49748.2507     0.27608E-04 
  49780.5129     0.27504E-04 
  49812.7750     0.27400E-04 
  49845.0372     0.27296E-04 
  49877.2994     0.27191E-04 
  49909.5615     0.27086E-04 
  49941.8237     0.26982E-04 
  49974.0858     0.26877E-04 
  50006.3480     0.26771E-04 
  50038.6102     0.26666E-04 
  50070.8723     0.26561E-04 
  50103.1345     0.26455E-04 
  50135.3966     0.26350E-04 
  50167.6588     0.26244E-04 
  50199.9210     0.26138E-04 
  50232.1831     0.26032E-04 
  50264.4453     0.25926E-04 
  50296.7074     0.25820E-04 
  50328.9696     0.25714E-04 
  50361.2318     0.25608E-04 
  50393.4939     0.25501E-04 
  50425.7561     0.25395E-04 
  50458.0182     0.25288E-04 
  50490.2804     0.25182E-04 
  50522.5426     0.25075E-04 
  50554.8047     0.24968E-04 
  50587.0669     0.24861E-04 
  50619.3290     0.24754E-04 
  50651.5912     0.24648E-04 
  50683.8534     0.24541E-04 
  50716.1155     0.24434E-04 
  50748.3777     0.24327E-04 
  50780.6398     0.24219E-04 
  50812.9020     0.24112E-04 
  50845.1642     0.24005E-04 
  50877.4263     0.23898E-04 
  50909.6885     0.23791E-04 
  50941.9506     0.23684E-04 
  50974.2128     0.23577E-04 
  51006.4750     0.23469E-04 
  51038.7371     0.23362E-04 
  51070.9993     0.23255E-04 
  51103.2614     0.23148E-04 
  51135.5236     0.23041E-04 
  51167.7858     0.22934E-04 
  51200.0479     0.22826E-04 
  51232.3101     0.22719E-04 
  51264.5722     0.22612E-04 
  51296.8344     0.22505E-04 
  51329.0966     0.22398E-04 
  51361.3587     0.22291E-04 
  51393.6209     0.22184E-04 
  51425.8830     0.22077E-04 
  51458.1452     0.21971E-04 
  51490.4074     0.21864E-04 
  51522.6695     0.21757E-04 
  51554.9317     0.21651E-04 
  51587.1938     0.21544E-04 
  51619.4560     0.21437E-04 
  51651.7182     0.21331E-04 
  51683.9803     0.21225E-04 
  51716.2425     0.21118E-04 
  51748.5046     0.21012E-04 
  51780.7668     0.20906E-04 
  51813.0290     0.20800E-04 
  51845.2911     0.20694E-04 
  51877.5533     0.20588E-04 
  51909.8154     0.20482E-04 
  51942.0776     0.20377E-04 
  51974.3398     0.20271E-04 
  52006.6019     0.20165E-04 
  52038.8641     0.20060E-04 
  52071.1262     0.19955E-04 
  52103.3884     0.19850E-04 
  52135.6506     0.19745E-04 
  52167.9127     0.19640E-04 
  52200.1749     0.19535E-04 
  52232.4370     0.19431E-04 
  52264.6992     0.19326E-04 
  52296.9614     0.19222E-04 
  52329.2235     0.19117E-04 
  52361.4857     0.19013E-04 
  52393.7478     0.18909E-04 
  52426.0100     0.18806E-04 
  52458.2722     0.18702E-04 
  52490.5343     0.18599E-04 
  52522.7965     0.18495E-04 
  52555.0586     0.18392E-04 
  52587.3208     0.18289E-04 
  52619.5830     0.18186E-04 
  52651.8451     0.18084E-04 
  52684.1073     0.17981E-04 
  52716.3694     0.17879E-04 
  52748.6316     0.17777E-04 
  52780.8938     0.17675E-04 
  52813.1559     0.17573E-04 
  52845.4181     0.17471E-04 
  52877.6802     0.17370E-04 
  52909.9424     0.17268E-04 
  52942.2046     0.17167E-04 
  52974.4667     0.17066E-04 
  53006.7289     0.16966E-04 
  53038.9910     0.16865E-04 
  53071.2532     0.16765E-04 
  53103.5154     0.16665E-04 
  53135.7775     0.16565E-04 
  53168.0397     0.16465E-04 
  53200.3018     0.16366E-04 
  53232.5640     0.16267E-04 
  53264.8262     0.16168E-04 
  53297.0883     0.16069E-04 
  53329.3505     0.15970E-04 
  53361.6126     0.15872E-04 
  53393.8748     0.15774E-04 
  53426.1370     0.15676E-04 
  53458.3991     0.15578E-04 
  53490.6613     0.15480E-04 
  53522.9234     0.15383E-04 
  53555.1856     0.15286E-04 
  53587.4478     0.15189E-04 
  53619.7099     0.15093E-04 
  53651.9721     0.14996E-04 
  53684.2342     0.14900E-04 
  53716.4964     0.14804E-04 
  53748.7586     0.14709E-04 
  53781.0207     0.14613E-04 
  53813.2829     0.14518E-04 
  53845.5450     0.14423E-04 
  53877.8072     0.14329E-04 
  53910.0694     0.14234E-04 
  53942.3315     0.14140E-04 
  53974.5937     0.14046E-04 
  54006.8558     0.13953E-04 
  54039.1180     0.13859E-04 
  54071.3802     0.13766E-04 
  54103.6423     0.13673E-04 
  54135.9045     0.13581E-04 
  54168.1666     0.13488E-04 
  54200.4288     0.13396E-04 
  54232.6910     0.13305E-04 
  54264.9531     0.13213E-04 
  54297.2153     0.13122E-04 
  54329.4774     0.13031E-04 
  54361.7396     0.12940E-04 
  54394.0018     0.12850E-04 
  54426.2639     0.12760E-04 
  54458.5261     0.12670E-04 
  54490.7882     0.12580E-04 
  54523.0504     0.12491E-04 
  54555.3126     0.12402E-04 
  54587.5747     0.12313E-04 
  54619.8369     0.12224E-04 
  54652.0990     0.12136E-04 
  54684.3612     0.12048E-04 
  54716.6234     0.11961E-04 
  54748.8855     0.11873E-04 
  54781.1477     0.11786E-04 
  54813.4098     0.11700E-04 
  54845.6720     0.11613E-04 
  54877.9342     0.11527E-04 
  54910.1963     0.11441E-04 
  54942.4585     0.11355E-04 
  54974.7206     0.11270E-04 
  55006.9828     0.11185E-04 
  55039.2450     0.11100E-04 
  55071.5071     0.11016E-04 
  55103.7693     0.10932E-04 
  55136.0314     0.10848E-04 
  55168.2936     0.10764E-04 
  55200.5558     0.10681E-04 
  55232.8179     0.10598E-04 
  55265.0801     0.10516E-04 
  55297.3422     0.10433E-04 
  55329.6044     0.10351E-04 
  55361.8666     0.10270E-04 
  55394.1287     0.10188E-04 
  55426.3909     0.10107E-04 
  55458.6530     0.10026E-04 
  55490.9152     0.99459E-05 
  55523.1774     0.98658E-05 
  55555.4395     0.97859E-05 
  55587.7017     0.97063E-05 
  55619.9638     0.96271E-05 
  55652.2260     0.95482E-05 
  55684.4882     0.94695E-05 
  55716.7503     0.93912E-05 
  55749.0125     0.93132E-05 
  55781.2746     0.92355E-05 
  55813.5368     0.91582E-05 
  55845.7990     0.90811E-05 
  55878.0611     0.90043E-05 
  55910.3233     0.89279E-05 
  55942.5854     0.88518E-05 
  55974.8476     0.87760E-05 
  56007.1098     0.87005E-05 
  56039.3719     0.86254E-05 
  56071.6341     0.85505E-05 
  56103.8962     0.84760E-05 
  56136.1584     0.84018E-05 
  56168.4206     0.83279E-05 
  56200.6827     0.82543E-05 
  56232.9449     0.81810E-05 
  56265.2070     0.81081E-05 
  56297.4692     0.80355E-05 
  56329.7314     0.79632E-05 
  56361.9935     0.78912E-05 
  56394.2557     0.78196E-05 
  56426.5178     0.77482E-05 
  56458.7800     0.76772E-05 
  56491.0422     0.76065E-05 
  56523.3043     0.75362E-05 
  56555.5665     0.74661E-05 
  56587.8286     0.73964E-05 
  56620.0908     0.73270E-05 
  56652.3530     0.72579E-05 
  56684.6151     0.71892E-05 
  56716.8773     0.71208E-05 
  56749.1394     0.70527E-05 
  56781.4016     0.69849E-05 
  56813.6638     0.69174E-05 
  56845.9259     0.68503E-05 
  56878.1881     0.67835E-05 
  56910.4502     0.67170E-05 
  56942.7124     0.66509E-05 
  56974.9746     0.65851E-05 
  57007.2367     0.65196E-05 
  57039.4989     0.64544E-05 
  57071.7610     0.63895E-05 
  57104.0232     0.63250E-05 
  57136.2854     0.62608E-05 
  57168.5475     0.61970E-05 
  57200.8097     0.61334E-05 
  57233.0718     0.60702E-05 
  57265.3340     0.60073E-05 
  57297.5962     0.59448E-05 
  57329.8583     0.58826E-05 
  57362.1205     0.58207E-05 
  57394.3826     0.57591E-05 
  57426.6448     0.56979E-05 
  57458.9070     0.56369E-05 
  57491.1691     0.55764E-05 
  57523.4313     0.55161E-05 
  57555.6934     0.54562E-05 
  57587.9556     0.53966E-05 
  57620.2178     0.53373E-05 
  57652.4799     0.52784E-05 
  57684.7421     0.52198E-05 
  57717.0042     0.51615E-05 
  57749.2664     0.51036E-05 
  57781.5286     0.50460E-05 
  57813.7907     0.49887E-05 
  57846.0529     0.49317E-05 
  57878.3150     0.48751E-05 
  57910.5772     0.48188E-05 
  57942.8394     0.47629E-05 
  57975.1015     0.47073E-05 
  58007.3637     0.46520E-05 
  58039.6258     0.45970E-05 
  58071.8880     0.45424E-05 
  58104.1502     0.44881E-05 
  58136.4123     0.44341E-05 
  58168.6745     0.43805E-05 
  58200.9366     0.43272E-05 
  58233.1988     0.42743E-05 
  58265.4610     0.42216E-05 
  58297.7231     0.41694E-05 
  58329.9853     0.41174E-05 
  58362.2474     0.40658E-05 
  58394.5096     0.40145E-05 
  58426.7718     0.39636E-05 
  58459.0339     0.39130E-05 
  58491.2961     0.38627E-05 
  58523.5582     0.38128E-05 
  58555.8204     0.37632E-05 
  58588.0826     0.37139E-05 
  58620.3447     0.36650E-05 
  58652.6069     0.36164E-05 
  58684.8690     0.35682E-05 
  58717.1312     0.35203E-05 
  58749.3934     0.34727E-05 
  58781.6555     0.34255E-05 
  58813.9177     0.33786E-05 
  58846.1798     0.33321E-05 
  58878.4420     0.32859E-05 
  58910.7042     0.32401E-05 
  58942.9663     0.31946E-05 
  58975.2285     0.31494E-05 
  59007.4906     0.31046E-05 
  59039.7528     0.30602E-05 
  59072.0150     0.30161E-05 
  59104.2771     0.29723E-05 
  59136.5393     0.29289E-05 
  59168.8014     0.28858E-05 
  59201.0636     0.28431E-05 
  59233.3258     0.28007E-05 
  59265.5879     0.27587E-05 
  59297.8501     0.27170E-05 
  59330.1122     0.26757E-05 
  59362.3744     0.26348E-05 
  59394.6366     0.25942E-05 
  59426.8987     0.25539E-05 
  59459.1609     0.25141E-05 
  59491.4230     0.24745E-05 
  59523.6852     0.24354E-05 
  59555.9474     0.23966E-05 
  59588.2095     0.23581E-05 
  59620.4717     0.23200E-05 
  59652.7338     0.22823E-05 
  59684.9960     0.22450E-05 
  59717.2582     0.22080E-05 
  59749.5203     0.21714E-05 
  59781.7825     0.21351E-05 
  59814.0446     0.20992E-05 
  59846.3068     0.20637E-05 
  59878.5690     0.20286E-05 
  59910.8311     0.19939E-05 
  59943.0933     0.19595E-05 
  59975.3554     0.19255E-05 
  60007.6176     0.18919E-05 
  60039.8798     0.18586E-05 
  60072.1419     0.18258E-05 
  60104.4041     0.17933E-05 
  60136.6662     0.17612E-05 
  60168.9284     0.17295E-05 
  60201.1906     0.16982E-05 
  60233.4527     0.16673E-05 
  60265.7149     0.16368E-05 
  60297.9770     0.16067E-05 
  60330.2392     0.15769E-05 
  60362.5014     0.15476E-05 
  60394.7635     0.15187E-05 
  60427.0257     0.14902E-05 
  60459.2878     0.14621E-05 
  60491.5500     0.14344E-05 
  60523.8122     0.14071E-05 
  60556.0743     0.13802E-05 
  60588.3365     0.13538E-05 
  60620.5986     0.13277E-05 
  60652.8608     0.13021E-05 
  60685.1230     0.12769E-05 
  60717.3851     0.12521E-05 
  60749.6473     0.12278E-05 
  60781.9094     0.12039E-05 
  60814.1716     0.11804E-05 
  60846.4338     0.11574E-05 
  60878.6959     0.11348E-05 
  60910.9581     0.11126E-05 
  60943.2202     0.10909E-05 
  60975.4824     0.10696E-05 
  61007.7446     0.10488E-05 
  61040.0067     0.10285E-05 
  61072.2689     0.10086E-05 
  61104.5310     0.98918E-06 
  61136.7932     0.97022E-06 
  61169.0554     0.95173E-06 
  61201.3175     0.93371E-06 
  61233.5797     0.91617E-06 
  61265.8418     0.89911E-06 
  61298.1040     0.88253E-06 
  61330.3662     0.86644E-06 
  61362.6283     0.85084E-06 
  61394.8905     0.83574E-06 
  61427.1526     0.82114E-06 
  61459.4148     0.80705E-06 
  61491.6770     0.79346E-06 
  61523.9391     0.78038E-06 
  61556.2013     0.76783E-06 
  61588.4634     0.75579E-06 
  61620.7256     0.74428E-06 
  61652.9878     0.73330E-06 
  61685.2499     0.72286E-06 
  61717.5121     0.71295E-06 
  61749.7742     0.70359E-06 
  61782.0364     0.69478E-06 
  61814.2986     0.68653E-06 
  61846.5607     0.67884E-06 
  61878.8229     0.67171E-06 
  61911.0850     0.66515E-06 
  61943.3472     0.65917E-06 
  61975.6094     0.65377E-06 
  62007.8715     0.64895E-06 
  62040.1337     0.64473E-06 
  62072.3958     0.64111E-06 
  62104.6580     0.63809E-06 
  62136.9202     0.63569E-06 
  62169.1823     0.63389E-06 
  62201.4445     0.63273E-06 
  62233.7066     0.63218E-06 
  62265.9688     0.63228E-06 
  62298.2310     0.63302E-06 
  62330.4931     0.63440E-06 
  62362.7553     0.63644E-06 
  62395.0174     0.63914E-06 
  62427.2796     0.64250E-06 
  62459.5418     0.64655E-06 
  62491.8039     0.65127E-06 
  62524.0661     0.65669E-06 
  62556.3282     0.66280E-06 
  62588.5904     0.66961E-06 
  62620.8526     0.67714E-06 
  62653.1147     0.68538E-06 
  62685.3769     0.69435E-06 
  62717.6390     0.70406E-06 
  62749.9012     0.71451E-06 
  62782.1634     0.72571E-06 
  62814.4255     0.73766E-06 
  62846.6877     0.75039E-06 
  62878.9498     0.76389E-06 
  62911.2120     0.77817E-06 
  62943.4742     0.79325E-06 
  62975.7363     0.80912E-06 
  63007.9985     0.82581E-06 
  63040.2606     0.84332E-06 
  63072.5228     0.86165E-06 
  63104.7850     0.88083E-06 
  63137.0471     0.90084E-06 
  63169.3093     0.92172E-06 
  63201.5714     0.94346E-06 
  63233.8336     0.96608E-06 
  63266.0958     0.98958E-06 
  63298.3579     0.10140E-05 
  63330.6201     0.10393E-05 
  63362.8822     0.10655E-05 
  63395.1444     0.10927E-05 
  63427.4066     0.11207E-05 
  63459.6687     0.11498E-05 
  63491.9309     0.11798E-05 
  63524.1930     0.12107E-05 
  63556.4552     0.12427E-05 
  63588.7174     0.12756E-05 
  63620.9795     0.13096E-05 
  63653.2417     0.13445E-05 
  63685.5038     0.13805E-05 
  63717.7660     0.14175E-05 
  63750.0282     0.14556E-05 
  63782.2903     0.14947E-05 
  63814.5525     0.15349E-05 
  63846.8146     0.15762E-05 
  63879.0768     0.16186E-05 
  63911.3390     0.16621E-05 
  63943.6011     0.17068E-05 
  63975.8633     0.17525E-05 
  64008.1254     0.17995E-05 
  64040.3876     0.18475E-05 
  64072.6498     0.18968E-05 
  64104.9119     0.19473E-05 
  64137.1741     0.19989E-05 
  64169.4362     0.20518E-05 
  64201.6984     0.21060E-05 
  64233.9606     0.21613E-05 
  64266.2227     0.22180E-05 
  64298.4849     0.22759E-05 
  64330.7470     0.23351E-05 
  64363.0092     0.23956E-05 
  64395.2714     0.24574E-05 
  64427.5335     0.25206E-05 
  64459.7957     0.25851E-05 
  64492.0578     0.26510E-05 
  64524.3200     0.27183E-05 
  64556.5822     0.27870E-05 
  64588.8443     0.28570E-05 
  64621.1065     0.29286E-05 
  64653.3686     0.30015E-05 
  64685.6308     0.30760E-05 
  64717.8930     0.31519E-05 
  64750.1551     0.32293E-05 
  64782.4173     0.33083E-05 
  64814.6794     0.33887E-05 
  64846.9416     0.34707E-05 
  64879.2038     0.35543E-05 
  64911.4659     0.36395E-05 
  64943.7281     0.37263E-05 
  64975.9902     0.38147E-05 
  65008.2524     0.39047E-05 
  65040.5146     0.39964E-05 
  65072.7767     0.40898E-05 
  65105.0389     0.41848E-05 
  65137.3010     0.42816E-05 
  65169.5632     0.43802E-05 
  65201.8254     0.44804E-05 
  65234.0875     0.45825E-05 
  65266.3497     0.46863E-05 
  65298.6118     0.47920E-05 
  65330.8740     0.48994E-05 
  65363.1362     0.50088E-05 
  65395.3983     0.51200E-05 
  65427.6605     0.52331E-05 
  65459.9226     0.53481E-05 
  65492.1848     0.54651E-05 
  65524.4470     0.55840E-05 
  65556.7091     0.57048E-05 
  65588.9713     0.58277E-05 
  65621.2334     0.59526E-05 
  65653.4956     0.60796E-05 
  65685.7578     0.62086E-05 
  65718.0199     0.63397E-05 
  65750.2821     0.64729E-05 
  65782.5442     0.66082E-05 
  65814.8064     0.67457E-05 
  65847.0686     0.68854E-05 
  65879.3307     0.70273E-05 
  65911.5929     0.71714E-05 
  65943.8550     0.73177E-05 
  65976.1172     0.74663E-05 
  66008.3794     0.76172E-05 
  66040.6415     0.77704E-05 
  66072.9037     0.79260E-05 
  66105.1658     0.80839E-05 
  66137.4280     0.82442E-05 
  66169.6902     0.84069E-05 
  66201.9523     0.85721E-05 
  66234.2145     0.87397E-05 
  66266.4766     0.89099E-05 
  66298.7388     0.90825E-05 
  66331.0010     0.92577E-05 
  66363.2631     0.94354E-05 
  66395.5253     0.96157E-05 
  66427.7874     0.97987E-05 
  66460.0496     0.99843E-05 
  66492.3118     0.10173E-04 
  66524.5739     0.10364E-04 
  66556.8361     0.10557E-04 
  66589.0982     0.10754E-04 
  66621.3604     0.10953E-04 
  66653.6226     0.11155E-04 
  66685.8847     0.11360E-04 
  66718.1469     0.11567E-04 
  66750.4090     0.11778E-04 
  66782.6712     0.11991E-04 
  66814.9334     0.12208E-04 
  66847.1955     0.12427E-04 
  66879.4577     0.12650E-04 
  66911.7198     0.12875E-04 
  66943.9820     0.13104E-04 
  66976.2442     0.13335E-04 
  67008.5063     0.13570E-04 
  67040.7685     0.13808E-04 
  67073.0306     0.14049E-04 
  67105.2928     0.14293E-04 
  67137.5550     0.14540E-04 
  67169.8171     0.14791E-04 
  67202.0793     0.15045E-04 
  67234.3414     0.15302E-04 
  67266.6036     0.15563E-04 
  67298.8658     0.15827E-04 
  67331.1279     0.16094E-04 
  67363.3901     0.16365E-04 
  67395.6522     0.16639E-04 
  67427.9144     0.16917E-04 
  67460.1766     0.17198E-04 
  67492.4387     0.17483E-04 
  67524.7009     0.17772E-04 
  67556.9630     0.18064E-04 
  67589.2252     0.18360E-04 
  67621.4874     0.18659E-04 
  67653.7495     0.18962E-04 
  67686.0117     0.19269E-04 
  67718.2738     0.19580E-04 
  67750.5360     0.19894E-04 
  67782.7982     0.20213E-04 
  67815.0603     0.20535E-04 
  67847.3225     0.20861E-04 
  67879.5846     0.21191E-04 
  67911.8468     0.21525E-04 
  67944.1090     0.21863E-04 
  67976.3711     0.22205E-04 
  68008.6333     0.22551E-04 
  68040.8954     0.22901E-04 
  68073.1576     0.23255E-04 
  68105.4198     0.23614E-04 
  68137.6819     0.23976E-04 
  68169.9441     0.24343E-04 
  68202.2062     0.24714E-04 
  68234.4684     0.25090E-04 
  68266.7306     0.25470E-04 
  68298.9927     0.25854E-04 
  68331.2549     0.26242E-04 
  68363.5170     0.26635E-04 
  68395.7792     0.27032E-04 
  68428.0414     0.27434E-04 
  68460.3035     0.27841E-04 
  68492.5657     0.28252E-04 
  68524.8278     0.28667E-04 
  68557.0900     0.29087E-04 
  68589.3522     0.29512E-04 
  68621.6143     0.29941E-04 
  68653.8765     0.30376E-04 
  68686.1386     0.30815E-04 
  68718.4008     0.31258E-04 
  68750.6630     0.31707E-04 
  68782.9251     0.32160E-04 
  68815.1873     0.32618E-04 
  68847.4494     0.33082E-04 
  68879.7116     0.33550E-04 
  68911.9738     0.34023E-04 
  68944.2359     0.34501E-04 
  68976.4981     0.34984E-04 
  69008.7602     0.35472E-04 
  69041.0224     0.35966E-04 
  69073.2846     0.36464E-04 
  69105.5467     0.36968E-04 
  69137.8089     0.37477E-04 
  69170.0710     0.37991E-04 
  69202.3332     0.38510E-04 
  69234.5954     0.39035E-04 
  69266.8575     0.39565E-04 
  69299.1197     0.40101E-04 
  69331.3818     0.40642E-04 
  69363.6440     0.41188E-04 
  69395.9062     0.41740E-04 
  69428.1683     0.42297E-04 
  69460.4305     0.42860E-04 
  69492.6926     0.43428E-04 
  69524.9548     0.44002E-04 
  69557.2170     0.44581E-04 
  69589.4791     0.45167E-04 
  69621.7413     0.45758E-04 
  69654.0034     0.46354E-04 
  69686.2656     0.46957E-04 
  69718.5278     0.47565E-04 
  69750.7899     0.48179E-04 
  69783.0521     0.48799E-04 
  69815.3142     0.49424E-04 
  69847.5764     0.50056E-04 
  69879.8386     0.50694E-04 
  69912.1007     0.51337E-04 
  69944.3629     0.51987E-04 
  69976.6250     0.52642E-04 
  70008.8872     0.53304E-04 
  70041.1494     0.53971E-04 
  70073.4115     0.54645E-04 
  70105.6737     0.55325E-04 
  70137.9358     0.56011E-04 
  70170.1980     0.56703E-04 
  70202.4602     0.57402E-04 
  70234.7223     0.58107E-04 
  70266.9845     0.58818E-04 
  70299.2466     0.59535E-04 
  70331.5088     0.60259E-04 
  70363.7710     0.60989E-04 
  70396.0331     0.61725E-04 
  70428.2953     0.62468E-04 
  70460.5574     0.63217E-04 
  70492.8196     0.63973E-04 
  70525.0818     0.64735E-04 
  70557.3439     0.65504E-04 
  70589.6061     0.66279E-04 
  70621.8682     0.67061E-04 
  70654.1304     0.67850E-04 
  70686.3926     0.68645E-04 
  70718.6547     0.69447E-04 
  70750.9169     0.70255E-04 
  70783.1790     0.71070E-04 
  70815.4412     0.71892E-04 
  70847.7034     0.72720E-04 
  70879.9655     0.73556E-04 
  70912.2277     0.74398E-04 
  70944.4898     0.75246E-04 
  70976.7520     0.76102E-04 
  71009.0142     0.76964E-04 
  71041.2763     0.77834E-04 
  71073.5385     0.78710E-04 
  71105.8006     0.79593E-04 
  71138.0628     0.80483E-04 
  71170.3250     0.81380E-04 
  71202.5871     0.82284E-04 
  71234.8493     0.83195E-04 
  71267.1114     0.84113E-04 
  71299.3736     0.85037E-04 
  71331.6358     0.85969E-04 
  71363.8979     0.86908E-04 
  71396.1601     0.87854E-04 
  71428.4222     0.88807E-04 
  71460.6844     0.89767E-04 
  71492.9466     0.90735E-04 
  71525.2087     0.91709E-04 
  71557.4709     0.92690E-04 
  71589.7330     0.93679E-04 
  71621.9952     0.94675E-04 
  71654.2574     0.95678E-04 
  71686.5195     0.96688E-04 
  71718.7817     0.97705E-04 
  71751.0438     0.98729E-04 
  71783.3060     0.99761E-04 
  71815.5682     0.10080E-03 
  71847.8303     0.10185E-03 
  71880.0925     0.10290E-03 
  71912.3546     0.10396E-03 
  71944.6168     0.10503E-03 
  71976.8790     0.10610E-03 
  72009.1411     0.10719E-03 
  72041.4033     0.10827E-03 
  72073.6654     0.10937E-03 
  72105.9276     0.11048E-03 
  72138.1898     0.11159E-03 
  72170.4519     0.11271E-03 
  72202.7141     0.11383E-03 
  72234.9762     0.11497E-03 
  72267.2384     0.11611E-03 
  72299.5006     0.11725E-03 
  72331.7627     0.11841E-03 
  72364.0249     0.11957E-03 
  72396.2870     0.12074E-03 
  72428.5492     0.12192E-03 
  72460.8114     0.12310E-03 
  72493.0735     0.12429E-03 
  72525.3357     0.12549E-03 
  72557.5978     0.12670E-03 
  72589.8600     0.12791E-03 
