  32262.1600     0.66411E-04 
  32294.4222     0.67338E-04 
  32326.6843     0.68274E-04 
  32358.9465     0.69219E-04 
  32391.2086     0.70172E-04 
  32423.4708     0.71134E-04 
  32455.7330     0.72105E-04 
  32487.9951     0.73084E-04 
  32520.2573     0.74072E-04 
  32552.5194     0.75068E-04 
  32584.7816     0.76073E-04 
  32617.0438     0.77086E-04 
  32649.3059     0.78108E-04 
  32681.5681     0.79138E-04 
  32713.8302     0.80177E-04 
  32746.0924     0.81224E-04 
  32778.3546     0.82280E-04 
  32810.6167     0.83345E-04 
  32842.8789     0.84417E-04 
  32875.1410     0.85499E-04 
  32907.4032     0.86588E-04 
  32939.6654     0.87686E-04 
  32971.9275     0.88793E-04 
  33004.1897     0.89907E-04 
  33036.4518     0.91030E-04 
  33068.7140     0.92161E-04 
  33100.9762     0.93301E-04 
  33133.2383     0.94449E-04 
  33165.5005     0.95604E-04 
  33197.7626     0.96768E-04 
  33230.0248     0.97941E-04 
  33262.2870     0.99121E-04 
  33294.5491     0.10031E-03 
  33326.8113     0.10151E-03 
  33359.0734     0.10271E-03 
  33391.3356     0.10392E-03 
  33423.5978     0.10514E-03 
  33455.8599     0.10637E-03 
  33488.1221     0.10760E-03 
  33520.3842     0.10885E-03 
  33552.6464     0.11010E-03 
  33584.9086     0.11136E-03 
  33617.1707     0.11262E-03 
  33649.4329     0.11390E-03 
  33681.6950     0.11518E-03 
  33713.9572     0.11647E-03 
  33746.2194     0.11776E-03 
  33778.4815     0.11906E-03 
  33810.7437     0.12037E-03 
  33843.0058     0.12169E-03 
  33875.2680     0.12302E-03 
  33907.5302     0.12435E-03 
  33939.7923     0.12568E-03 
  33972.0545     0.12703E-03 
  34004.3166     0.12838E-03 
  34036.5788     0.12974E-03 
  34068.8410     0.13111E-03 
  34101.1031     0.13248E-03 
  34133.3653     0.13385E-03 
  34165.6274     0.13524E-03 
  34197.8896     0.13663E-03 
  34230.1518     0.13803E-03 
  34262.4139     0.13943E-03 
  34294.6761     0.14084E-03 
  34326.9382     0.14226E-03 
  34359.2004     0.14368E-03 
  34391.4626     0.14510E-03 
  34423.7247     0.14654E-03 
  34455.9869     0.14797E-03 
  34488.2490     0.14942E-03 
  34520.5112     0.15087E-03 
  34552.7734     0.15232E-03 
  34585.0355     0.15378E-03 
  34617.2977     0.15525E-03 
  34649.5598     0.15672E-03 
  34681.8220     0.15819E-03 
  34714.0842     0.15967E-03 
  34746.3463     0.16116E-03 
  34778.6085     0.16265E-03 
  34810.8706     0.16414E-03 
  34843.1328     0.16564E-03 
  34875.3950     0.16714E-03 
  34907.6571     0.16865E-03 
  34939.9193     0.17016E-03 
  34972.1814     0.17167E-03 
  35004.4436     0.17319E-03 
  35036.7058     0.17471E-03 
  35068.9679     0.17624E-03 
  35101.2301     0.17777E-03 
  35133.4922     0.17930E-03 
  35165.7544     0.18084E-03 
  35198.0166     0.18238E-03 
  35230.2787     0.18392E-03 
  35262.5409     0.18547E-03 
  35294.8030     0.18702E-03 
  35327.0652     0.18857E-03 
  35359.3274     0.19012E-03 
  35391.5895     0.19168E-03 
  35423.8517     0.19324E-03 
  35456.1138     0.19480E-03 
  35488.3760     0.19636E-03 
  35520.6382     0.19793E-03 
  35552.9003     0.19950E-03 
  35585.1625     0.20107E-03 
  35617.4246     0.20264E-03 
  35649.6868     0.20421E-03 
  35681.9490     0.20578E-03 
  35714.2111     0.20736E-03 
  35746.4733     0.20893E-03 
  35778.7354     0.21051E-03 
  35810.9976     0.21209E-03 
  35843.2598     0.21367E-03 
  35875.5219     0.21524E-03 
  35907.7841     0.21682E-03 
  35940.0462     0.21840E-03 
  35972.3084     0.21998E-03 
  36004.5706     0.22156E-03 
  36036.8327     0.22314E-03 
  36069.0949     0.22472E-03 
  36101.3570     0.22630E-03 
  36133.6192     0.22788E-03 
  36165.8814     0.22946E-03 
  36198.1435     0.23104E-03 
  36230.4057     0.23262E-03 
  36262.6678     0.23419E-03 
  36294.9300     0.23577E-03 
  36327.1922     0.23734E-03 
  36359.4543     0.23891E-03 
  36391.7165     0.24048E-03 
  36423.9786     0.24205E-03 
  36456.2408     0.24362E-03 
  36488.5030     0.24519E-03 
  36520.7651     0.24675E-03 
  36553.0273     0.24831E-03 
  36585.2894     0.24987E-03 
  36617.5516     0.25143E-03 
  36649.8138     0.25298E-03 
  36682.0759     0.25453E-03 
  36714.3381     0.25608E-03 
  36746.6002     0.25762E-03 
  36778.8624     0.25917E-03 
  36811.1246     0.26071E-03 
  36843.3867     0.26224E-03 
  36875.6489     0.26377E-03 
  36907.9110     0.26530E-03 
  36940.1732     0.26682E-03 
  36972.4354     0.26835E-03 
  37004.6975     0.26986E-03 
  37036.9597     0.27137E-03 
  37069.2218     0.27288E-03 
  37101.4840     0.27438E-03 
  37133.7462     0.27588E-03 
  37166.0083     0.27738E-03 
  37198.2705     0.27887E-03 
  37230.5326     0.28035E-03 
  37262.7948     0.28183E-03 
  37295.0570     0.28330E-03 
  37327.3191     0.28477E-03 
  37359.5813     0.28624E-03 
  37391.8434     0.28769E-03 
  37424.1056     0.28914E-03 
  37456.3678     0.29059E-03 
  37488.6299     0.29203E-03 
  37520.8921     0.29346E-03 
  37553.1542     0.29489E-03 
  37585.4164     0.29631E-03 
  37617.6786     0.29773E-03 
  37649.9407     0.29913E-03 
  37682.2029     0.30053E-03 
  37714.4650     0.30193E-03 
  37746.7272     0.30332E-03 
  37778.9894     0.30470E-03 
  37811.2515     0.30607E-03 
  37843.5137     0.30744E-03 
  37875.7758     0.30879E-03 
  37908.0380     0.31014E-03 
  37940.3002     0.31149E-03 
  37972.5623     0.31282E-03 
  38004.8245     0.31415E-03 
  38037.0866     0.31547E-03 
  38069.3488     0.31678E-03 
  38101.6110     0.31808E-03 
  38133.8731     0.31938E-03 
  38166.1353     0.32066E-03 
  38198.3974     0.32194E-03 
  38230.6596     0.32321E-03 
  38262.9218     0.32447E-03 
  38295.1839     0.32572E-03 
  38327.4461     0.32696E-03 
  38359.7082     0.32820E-03 
  38391.9704     0.32942E-03 
  38424.2326     0.33064E-03 
  38456.4947     0.33184E-03 
  38488.7569     0.33304E-03 
  38521.0190     0.33422E-03 
  38553.2812     0.33540E-03 
  38585.5434     0.33657E-03 
  38617.8055     0.33772E-03 
  38650.0677     0.33887E-03 
  38682.3298     0.34001E-03 
  38714.5920     0.34114E-03 
  38746.8542     0.34225E-03 
  38779.1163     0.34336E-03 
  38811.3785     0.34445E-03 
  38843.6406     0.34554E-03 
  38875.9028     0.34662E-03 
  38908.1650     0.34768E-03 
  38940.4271     0.34873E-03 
  38972.6893     0.34978E-03 
  39004.9514     0.35081E-03 
  39037.2136     0.35183E-03 
  39069.4758     0.35284E-03 
  39101.7379     0.35384E-03 
  39134.0001     0.35483E-03 
  39166.2622     0.35580E-03 
  39198.5244     0.35677E-03 
  39230.7866     0.35772E-03 
  39263.0487     0.35866E-03 
  39295.3109     0.35960E-03 
  39327.5730     0.36051E-03 
  39359.8352     0.36142E-03 
  39392.0974     0.36232E-03 
  39424.3595     0.36320E-03 
  39456.6217     0.36407E-03 
  39488.8838     0.36494E-03 
  39521.1460     0.36578E-03 
  39553.4082     0.36662E-03 
  39585.6703     0.36744E-03 
  39617.9325     0.36826E-03 
  39650.1946     0.36906E-03 
  39682.4568     0.36985E-03 
  39714.7190     0.37062E-03 
  39746.9811     0.37138E-03 
  39779.2433     0.37214E-03 
  39811.5054     0.37287E-03 
  39843.7676     0.37360E-03 
  39876.0298     0.37431E-03 
  39908.2919     0.37502E-03 
  39940.5541     0.37570E-03 
  39972.8162     0.37638E-03 
  40005.0784     0.37704E-03 
  40037.3406     0.37769E-03 
  40069.6027     0.37833E-03 
  40101.8649     0.37896E-03 
  40134.1270     0.37957E-03 
  40166.3892     0.38017E-03 
  40198.6514     0.38076E-03 
  40230.9135     0.38133E-03 
  40263.1757     0.38189E-03 
  40295.4378     0.38244E-03 
  40327.7000     0.38298E-03 
  40359.9622     0.38350E-03 
  40392.2243     0.38401E-03 
  40424.4865     0.38450E-03 
  40456.7486     0.38499E-03 
  40489.0108     0.38546E-03 
  40521.2730     0.38592E-03 
  40553.5351     0.38636E-03 
  40585.7973     0.38679E-03 
  40618.0594     0.38721E-03 
  40650.3216     0.38761E-03 
  40682.5838     0.38801E-03 
  40714.8459     0.38839E-03 
  40747.1081     0.38875E-03 
  40779.3702     0.38911E-03 
  40811.6324     0.38945E-03 
  40843.8946     0.38977E-03 
  40876.1567     0.39009E-03 
  40908.4189     0.39039E-03 
  40940.6810     0.39067E-03 
  40972.9432     0.39095E-03 
  41005.2054     0.39121E-03 
  41037.4675     0.39146E-03 
  41069.7297     0.39169E-03 
  41101.9918     0.39191E-03 
  41134.2540     0.39212E-03 
  41166.5162     0.39232E-03 
  41198.7783     0.39250E-03 
  41231.0405     0.39267E-03 
  41263.3026     0.39283E-03 
  41295.5648     0.39297E-03 
  41327.8270     0.39311E-03 
  41360.0891     0.39322E-03 
  41392.3513     0.39333E-03 
  41424.6134     0.39342E-03 
  41456.8756     0.39350E-03 
  41489.1378     0.39357E-03 
  41521.3999     0.39362E-03 
  41553.6621     0.39366E-03 
  41585.9242     0.39369E-03 
  41618.1864     0.39371E-03 
  41650.4486     0.39371E-03 
  41682.7107     0.39370E-03 
  41714.9729     0.39368E-03 
  41747.2350     0.39364E-03 
  41779.4972     0.39360E-03 
  41811.7594     0.39354E-03 
  41844.0215     0.39346E-03 
  41876.2837     0.39338E-03 
  41908.5458     0.39328E-03 
  41940.8080     0.39317E-03 
  41973.0702     0.39305E-03 
  42005.3323     0.39291E-03 
  42037.5945     0.39277E-03 
  42069.8566     0.39261E-03 
  42102.1188     0.39244E-03 
  42134.3810     0.39226E-03 
  42166.6431     0.39206E-03 
  42198.9053     0.39185E-03 
  42231.1674     0.39163E-03 
  42263.4296     0.39140E-03 
  42295.6918     0.39116E-03 
  42327.9539     0.39090E-03 
  42360.2161     0.39064E-03 
  42392.4782     0.39036E-03 
  42424.7404     0.39007E-03 
  42457.0026     0.38977E-03 
  42489.2647     0.38946E-03 
  42521.5269     0.38913E-03 
  42553.7890     0.38879E-03 
  42586.0512     0.38845E-03 
  42618.3134     0.38809E-03 
  42650.5755     0.38772E-03 
  42682.8377     0.38734E-03 
  42715.0998     0.38694E-03 
  42747.3620     0.38654E-03 
  42779.6242     0.38613E-03 
  42811.8863     0.38570E-03 
  42844.1485     0.38527E-03 
  42876.4106     0.38482E-03 
  42908.6728     0.38436E-03 
  42940.9350     0.38389E-03 
  42973.1971     0.38341E-03 
  43005.4593     0.38292E-03 
  43037.7214     0.38242E-03 
  43069.9836     0.38191E-03 
  43102.2458     0.38139E-03 
  43134.5079     0.38086E-03 
  43166.7701     0.38032E-03 
  43199.0322     0.37977E-03 
  43231.2944     0.37920E-03 
  43263.5566     0.37863E-03 
  43295.8187     0.37805E-03 
  43328.0809     0.37746E-03 
  43360.3430     0.37686E-03 
  43392.6052     0.37625E-03 
  43424.8674     0.37563E-03 
  43457.1295     0.37500E-03 
  43489.3917     0.37436E-03 
  43521.6538     0.37371E-03 
  43553.9160     0.37305E-03 
  43586.1782     0.37238E-03 
  43618.4403     0.37171E-03 
  43650.7025     0.37102E-03 
  43682.9646     0.37033E-03 
  43715.2268     0.36962E-03 
  43747.4890     0.36891E-03 
  43779.7511     0.36819E-03 
  43812.0133     0.36746E-03 
  43844.2754     0.36672E-03 
  43876.5376     0.36597E-03 
  43908.7998     0.36522E-03 
  43941.0619     0.36445E-03 
  43973.3241     0.36368E-03 
  44005.5862     0.36290E-03 
  44037.8484     0.36211E-03 
  44070.1106     0.36131E-03 
  44102.3727     0.36051E-03 
  44134.6349     0.35970E-03 
  44166.8970     0.35888E-03 
  44199.1592     0.35805E-03 
  44231.4214     0.35721E-03 
  44263.6835     0.35637E-03 
  44295.9457     0.35552E-03 
  44328.2078     0.35466E-03 
  44360.4700     0.35380E-03 
  44392.7322     0.35292E-03 
  44424.9943     0.35204E-03 
  44457.2565     0.35116E-03 
  44489.5186     0.35026E-03 
  44521.7808     0.34936E-03 
  44554.0430     0.34846E-03 
  44586.3051     0.34754E-03 
  44618.5673     0.34662E-03 
  44650.8294     0.34569E-03 
  44683.0916     0.34476E-03 
  44715.3538     0.34382E-03 
  44747.6159     0.34288E-03 
  44779.8781     0.34192E-03 
  44812.1402     0.34096E-03 
  44844.4024     0.34000E-03 
  44876.6646     0.33903E-03 
  44908.9267     0.33805E-03 
  44941.1889     0.33707E-03 
  44973.4510     0.33608E-03 
  45005.7132     0.33509E-03 
  45037.9754     0.33409E-03 
  45070.2375     0.33309E-03 
  45102.4997     0.33208E-03 
  45134.7618     0.33106E-03 
  45167.0240     0.33004E-03 
  45199.2862     0.32902E-03 
  45231.5483     0.32799E-03 
  45263.8105     0.32695E-03 
  45296.0726     0.32591E-03 
  45328.3348     0.32487E-03 
  45360.5970     0.32382E-03 
  45392.8591     0.32277E-03 
  45425.1213     0.32171E-03 
  45457.3834     0.32064E-03 
  45489.6456     0.31958E-03 
  45521.9078     0.31851E-03 
  45554.1699     0.31743E-03 
  45586.4321     0.31635E-03 
  45618.6942     0.31527E-03 
  45650.9564     0.31418E-03 
  45683.2186     0.31309E-03 
  45715.4807     0.31199E-03 
  45747.7429     0.31089E-03 
  45780.0050     0.30979E-03 
  45812.2672     0.30869E-03 
  45844.5294     0.30758E-03 
  45876.7915     0.30646E-03 
  45909.0537     0.30535E-03 
  45941.3158     0.30423E-03 
  45973.5780     0.30311E-03 
  46005.8402     0.30198E-03 
  46038.1023     0.30085E-03 
  46070.3645     0.29972E-03 
  46102.6266     0.29859E-03 
  46134.8888     0.29745E-03 
  46167.1510     0.29631E-03 
  46199.4131     0.29517E-03 
  46231.6753     0.29402E-03 
  46263.9374     0.29288E-03 
  46296.1996     0.29173E-03 
  46328.4618     0.29058E-03 
  46360.7239     0.28942E-03 
  46392.9861     0.28827E-03 
  46425.2482     0.28711E-03 
  46457.5104     0.28595E-03 
  46489.7726     0.28479E-03 
  46522.0347     0.28363E-03 
  46554.2969     0.28246E-03 
  46586.5590     0.28129E-03 
  46618.8212     0.28012E-03 
  46651.0834     0.27895E-03 
  46683.3455     0.27778E-03 
  46715.6077     0.27661E-03 
  46747.8698     0.27544E-03 
  46780.1320     0.27426E-03 
  46812.3942     0.27308E-03 
  46844.6563     0.27191E-03 
  46876.9185     0.27073E-03 
  46909.1806     0.26955E-03 
  46941.4428     0.26837E-03 
  46973.7050     0.26719E-03 
  47005.9671     0.26600E-03 
  47038.2293     0.26482E-03 
  47070.4914     0.26364E-03 
  47102.7536     0.26245E-03 
  47135.0158     0.26127E-03 
  47167.2779     0.26008E-03 
  47199.5401     0.25890E-03 
  47231.8022     0.25771E-03 
  47264.0644     0.25653E-03 
  47296.3266     0.25534E-03 
  47328.5887     0.25416E-03 
  47360.8509     0.25297E-03 
  47393.1130     0.25178E-03 
  47425.3752     0.25060E-03 
  47457.6374     0.24941E-03 
  47489.8995     0.24823E-03 
  47522.1617     0.24704E-03 
  47554.4238     0.24585E-03 
  47586.6860     0.24467E-03 
  47618.9482     0.24349E-03 
  47651.2103     0.24230E-03 
  47683.4725     0.24112E-03 
  47715.7346     0.23994E-03 
  47747.9968     0.23875E-03 
  47780.2590     0.23757E-03 
  47812.5211     0.23639E-03 
  47844.7833     0.23521E-03 
  47877.0454     0.23403E-03 
  47909.3076     0.23285E-03 
  47941.5698     0.23168E-03 
  47973.8319     0.23050E-03 
  48006.0941     0.22933E-03 
  48038.3562     0.22815E-03 
  48070.6184     0.22698E-03 
  48102.8806     0.22581E-03 
  48135.1427     0.22464E-03 
  48167.4049     0.22347E-03 
  48199.6670     0.22230E-03 
  48231.9292     0.22114E-03 
  48264.1914     0.21997E-03 
  48296.4535     0.21881E-03 
  48328.7157     0.21765E-03 
  48360.9778     0.21649E-03 
  48393.2400     0.21533E-03 
  48425.5022     0.21417E-03 
  48457.7643     0.21302E-03 
  48490.0265     0.21187E-03 
  48522.2886     0.21071E-03 
  48554.5508     0.20957E-03 
  48586.8130     0.20842E-03 
  48619.0751     0.20727E-03 
  48651.3373     0.20613E-03 
  48683.5994     0.20499E-03 
  48715.8616     0.20385E-03 
  48748.1238     0.20271E-03 
  48780.3859     0.20158E-03 
  48812.6481     0.20045E-03 
  48844.9102     0.19932E-03 
  48877.1724     0.19819E-03 
  48909.4346     0.19706E-03 
  48941.6967     0.19594E-03 
  48973.9589     0.19482E-03 
  49006.2210     0.19370E-03 
  49038.4832     0.19259E-03 
  49070.7454     0.19147E-03 
  49103.0075     0.19036E-03 
  49135.2697     0.18925E-03 
  49167.5318     0.18815E-03 
  49199.7940     0.18705E-03 
  49232.0562     0.18595E-03 
  49264.3183     0.18485E-03 
  49296.5805     0.18375E-03 
  49328.8426     0.18266E-03 
  49361.1048     0.18157E-03 
  49393.3670     0.18049E-03 
  49425.6291     0.17940E-03 
  49457.8913     0.17832E-03 
  49490.1534     0.17725E-03 
  49522.4156     0.17617E-03 
  49554.6778     0.17510E-03 
  49586.9399     0.17403E-03 
  49619.2021     0.17297E-03 
  49651.4642     0.17190E-03 
  49683.7264     0.17085E-03 
  49715.9886     0.16979E-03 
  49748.2507     0.16874E-03 
  49780.5129     0.16769E-03 
  49812.7750     0.16664E-03 
  49845.0372     0.16560E-03 
  49877.2994     0.16456E-03 
  49909.5615     0.16352E-03 
  49941.8237     0.16249E-03 
  49974.0858     0.16146E-03 
  50006.3480     0.16043E-03 
  50038.6102     0.15941E-03 
  50070.8723     0.15839E-03 
  50103.1345     0.15737E-03 
  50135.3966     0.15636E-03 
  50167.6588     0.15535E-03 
  50199.9210     0.15434E-03 
  50232.1831     0.15334E-03 
  50264.4453     0.15234E-03 
  50296.7074     0.15134E-03 
  50328.9696     0.15035E-03 
  50361.2318     0.14936E-03 
  50393.4939     0.14838E-03 
  50425.7561     0.14739E-03 
  50458.0182     0.14642E-03 
  50490.2804     0.14544E-03 
  50522.5426     0.14447E-03 
  50554.8047     0.14350E-03 
  50587.0669     0.14254E-03 
  50619.3290     0.14158E-03 
  50651.5912     0.14063E-03 
  50683.8534     0.13967E-03 
  50716.1155     0.13872E-03 
  50748.3777     0.13778E-03 
  50780.6398     0.13684E-03 
  50812.9020     0.13590E-03 
  50845.1642     0.13497E-03 
  50877.4263     0.13404E-03 
  50909.6885     0.13311E-03 
  50941.9506     0.13219E-03 
  50974.2128     0.13127E-03 
  51006.4750     0.13035E-03 
  51038.7371     0.12944E-03 
  51070.9993     0.12854E-03 
  51103.2614     0.12763E-03 
  51135.5236     0.12673E-03 
  51167.7858     0.12584E-03 
  51200.0479     0.12495E-03 
  51232.3101     0.12406E-03 
  51264.5722     0.12317E-03 
  51296.8344     0.12229E-03 
  51329.0966     0.12142E-03 
  51361.3587     0.12055E-03 
  51393.6209     0.11968E-03 
  51425.8830     0.11881E-03 
  51458.1452     0.11795E-03 
  51490.4074     0.11709E-03 
  51522.6695     0.11624E-03 
  51554.9317     0.11539E-03 
  51587.1938     0.11455E-03 
  51619.4560     0.11371E-03 
  51651.7182     0.11287E-03 
  51683.9803     0.11204E-03 
  51716.2425     0.11121E-03 
  51748.5046     0.11038E-03 
  51780.7668     0.10956E-03 
  51813.0290     0.10874E-03 
  51845.2911     0.10793E-03 
  51877.5533     0.10712E-03 
  51909.8154     0.10631E-03 
  51942.0776     0.10551E-03 
  51974.3398     0.10471E-03 
  52006.6019     0.10392E-03 
  52038.8641     0.10313E-03 
  52071.1262     0.10234E-03 
  52103.3884     0.10156E-03 
  52135.6506     0.10078E-03 
  52167.9127     0.10001E-03 
  52200.1749     0.99238E-04 
  52232.4370     0.98471E-04 
  52264.6992     0.97708E-04 
  52296.9614     0.96950E-04 
  52329.2235     0.96195E-04 
  52361.4857     0.95444E-04 
  52393.7478     0.94697E-04 
  52426.0100     0.93954E-04 
  52458.2722     0.93215E-04 
  52490.5343     0.92480E-04 
  52522.7965     0.91749E-04 
  52555.0586     0.91021E-04 
  52587.3208     0.90298E-04 
  52619.5830     0.89578E-04 
  52651.8451     0.88862E-04 
  52684.1073     0.88150E-04 
  52716.3694     0.87442E-04 
  52748.6316     0.86738E-04 
  52780.8938     0.86037E-04 
  52813.1559     0.85341E-04 
  52845.4181     0.84648E-04 
  52877.6802     0.83959E-04 
  52909.9424     0.83274E-04 
  52942.2046     0.82593E-04 
  52974.4667     0.81916E-04 
  53006.7289     0.81242E-04 
  53038.9910     0.80572E-04 
  53071.2532     0.79906E-04 
  53103.5154     0.79244E-04 
  53135.7775     0.78586E-04 
  53168.0397     0.77931E-04 
  53200.3018     0.77280E-04 
  53232.5640     0.76633E-04 
  53264.8262     0.75989E-04 
  53297.0883     0.75350E-04 
  53329.3505     0.74714E-04 
  53361.6126     0.74082E-04 
  53393.8748     0.73453E-04 
  53426.1370     0.72828E-04 
  53458.3991     0.72207E-04 
  53490.6613     0.71590E-04 
  53522.9234     0.70976E-04 
  53555.1856     0.70366E-04 
  53587.4478     0.69759E-04 
  53619.7099     0.69156E-04 
  53651.9721     0.68557E-04 
  53684.2342     0.67961E-04 
  53716.4964     0.67370E-04 
  53748.7586     0.66781E-04 
  53781.0207     0.66196E-04 
  53813.2829     0.65615E-04 
  53845.5450     0.65037E-04 
  53877.8072     0.64463E-04 
  53910.0694     0.63893E-04 
  53942.3315     0.63326E-04 
  53974.5937     0.62762E-04 
  54006.8558     0.62202E-04 
  54039.1180     0.61646E-04 
  54071.3802     0.61093E-04 
  54103.6423     0.60543E-04 
  54135.9045     0.59997E-04 
  54168.1666     0.59455E-04 
  54200.4288     0.58916E-04 
  54232.6910     0.58380E-04 
  54264.9531     0.57848E-04 
  54297.2153     0.57319E-04 
  54329.4774     0.56793E-04 
  54361.7396     0.56271E-04 
  54394.0018     0.55752E-04 
  54426.2639     0.55237E-04 
  54458.5261     0.54725E-04 
  54490.7882     0.54216E-04 
  54523.0504     0.53711E-04 
  54555.3126     0.53209E-04 
  54587.5747     0.52710E-04 
  54619.8369     0.52215E-04 
  54652.0990     0.51723E-04 
  54684.3612     0.51234E-04 
  54716.6234     0.50748E-04 
  54748.8855     0.50265E-04 
  54781.1477     0.49786E-04 
  54813.4098     0.49310E-04 
  54845.6720     0.48837E-04 
  54877.9342     0.48368E-04 
  54910.1963     0.47901E-04 
  54942.4585     0.47438E-04 
  54974.7206     0.46977E-04 
  55006.9828     0.46520E-04 
  55039.2450     0.46066E-04 
  55071.5071     0.45615E-04 
  55103.7693     0.45168E-04 
  55136.0314     0.44723E-04 
  55168.2936     0.44281E-04 
  55200.5558     0.43843E-04 
  55232.8179     0.43407E-04 
  55265.0801     0.42975E-04 
  55297.3422     0.42545E-04 
  55329.6044     0.42118E-04 
  55361.8666     0.41695E-04 
  55394.1287     0.41274E-04 
  55426.3909     0.40857E-04 
  55458.6530     0.40442E-04 
  55490.9152     0.40030E-04 
  55523.1774     0.39621E-04 
  55555.4395     0.39215E-04 
  55587.7017     0.38812E-04 
  55619.9638     0.38412E-04 
  55652.2260     0.38015E-04 
  55684.4882     0.37620E-04 
  55716.7503     0.37228E-04 
  55749.0125     0.36839E-04 
  55781.2746     0.36453E-04 
  55813.5368     0.36070E-04 
  55845.7990     0.35690E-04 
  55878.0611     0.35312E-04 
  55910.3233     0.34937E-04 
  55942.5854     0.34565E-04 
  55974.8476     0.34195E-04 
  56007.1098     0.33828E-04 
  56039.3719     0.33464E-04 
  56071.6341     0.33103E-04 
  56103.8962     0.32744E-04 
  56136.1584     0.32388E-04 
  56168.4206     0.32034E-04 
  56200.6827     0.31683E-04 
  56232.9449     0.31335E-04 
  56265.2070     0.30990E-04 
  56297.4692     0.30647E-04 
  56329.7314     0.30306E-04 
  56361.9935     0.29968E-04 
  56394.2557     0.29633E-04 
  56426.5178     0.29300E-04 
  56458.7800     0.28970E-04 
  56491.0422     0.28642E-04 
  56523.3043     0.28317E-04 
  56555.5665     0.27994E-04 
  56587.8286     0.27673E-04 
  56620.0908     0.27355E-04 
  56652.3530     0.27040E-04 
  56684.6151     0.26727E-04 
  56716.8773     0.26416E-04 
  56749.1394     0.26108E-04 
  56781.4016     0.25802E-04 
  56813.6638     0.25499E-04 
  56845.9259     0.25198E-04 
  56878.1881     0.24899E-04 
  56910.4502     0.24603E-04 
  56942.7124     0.24309E-04 
  56974.9746     0.24017E-04 
  57007.2367     0.23728E-04 
  57039.4989     0.23441E-04 
  57071.7610     0.23156E-04 
  57104.0232     0.22873E-04 
  57136.2854     0.22593E-04 
  57168.5475     0.22315E-04 
  57200.8097     0.22039E-04 
  57233.0718     0.21765E-04 
  57265.3340     0.21494E-04 
  57297.5962     0.21225E-04 
  57329.8583     0.20958E-04 
  57362.1205     0.20693E-04 
  57394.3826     0.20430E-04 
  57426.6448     0.20169E-04 
  57458.9070     0.19911E-04 
  57491.1691     0.19655E-04 
  57523.4313     0.19400E-04 
  57555.6934     0.19148E-04 
  57587.9556     0.18898E-04 
  57620.2178     0.18650E-04 
  57652.4799     0.18404E-04 
  57684.7421     0.18160E-04 
  57717.0042     0.17919E-04 
  57749.2664     0.17679E-04 
  57781.5286     0.17441E-04 
  57813.7907     0.17205E-04 
  57846.0529     0.16972E-04 
  57878.3150     0.16740E-04 
  57910.5772     0.16510E-04 
  57942.8394     0.16282E-04 
  57975.1015     0.16056E-04 
  58007.3637     0.15833E-04 
  58039.6258     0.15611E-04 
  58071.8880     0.15391E-04 
  58104.1502     0.15172E-04 
  58136.4123     0.14956E-04 
  58168.6745     0.14742E-04 
  58200.9366     0.14529E-04 
  58233.1988     0.14319E-04 
  58265.4610     0.14110E-04 
  58297.7231     0.13903E-04 
  58329.9853     0.13698E-04 
  58362.2474     0.13495E-04 
  58394.5096     0.13294E-04 
  58426.7718     0.13094E-04 
  58459.0339     0.12896E-04 
  58491.2961     0.12700E-04 
  58523.5582     0.12506E-04 
  58555.8204     0.12314E-04 
  58588.0826     0.12123E-04 
  58620.3447     0.11934E-04 
  58652.6069     0.11747E-04 
  58684.8690     0.11562E-04 
  58717.1312     0.11378E-04 
  58749.3934     0.11196E-04 
  58781.6555     0.11016E-04 
  58813.9177     0.10837E-04 
  58846.1798     0.10661E-04 
  58878.4420     0.10485E-04 
  58910.7042     0.10312E-04 
  58942.9663     0.10140E-04 
  58975.2285     0.99700E-05 
  59007.4906     0.98016E-05 
  59039.7528     0.96348E-05 
  59072.0150     0.94696E-05 
  59104.2771     0.93061E-05 
  59136.5393     0.91442E-05 
  59168.8014     0.89839E-05 
  59201.0636     0.88252E-05 
  59233.3258     0.86681E-05 
  59265.5879     0.85126E-05 
  59297.8501     0.83588E-05 
  59330.1122     0.82065E-05 
  59362.3744     0.80557E-05 
  59394.6366     0.79066E-05 
  59426.8987     0.77590E-05 
  59459.1609     0.76129E-05 
  59491.4230     0.74684E-05 
  59523.6852     0.73255E-05 
  59555.9474     0.71841E-05 
  59588.2095     0.70442E-05 
  59620.4717     0.69058E-05 
  59652.7338     0.67690E-05 
  59684.9960     0.66337E-05 
  59717.2582     0.64999E-05 
  59749.5203     0.63675E-05 
  59781.7825     0.62367E-05 
  59814.0446     0.61074E-05 
  59846.3068     0.59796E-05 
  59878.5690     0.58532E-05 
  59910.8311     0.57284E-05 
  59943.0933     0.56050E-05 
  59975.3554     0.54830E-05 
  60007.6176     0.53625E-05 
  60039.8798     0.52435E-05 
  60072.1419     0.51260E-05 
  60104.4041     0.50099E-05 
  60136.6662     0.48952E-05 
  60168.9284     0.47820E-05 
  60201.1906     0.46702E-05 
  60233.4527     0.45599E-05 
  60265.7149     0.44510E-05 
  60297.9770     0.43435E-05 
  60330.2392     0.42374E-05 
  60362.5014     0.41328E-05 
  60394.7635     0.40296E-05 
  60427.0257     0.39278E-05 
  60459.2878     0.38274E-05 
  60491.5500     0.37284E-05 
  60523.8122     0.36309E-05 
  60556.0743     0.35347E-05 
  60588.3365     0.34400E-05 
  60620.5986     0.33466E-05 
  60652.8608     0.32547E-05 
  60685.1230     0.31642E-05 
  60717.3851     0.30750E-05 
  60749.6473     0.29873E-05 
  60781.9094     0.29009E-05 
  60814.1716     0.28160E-05 
  60846.4338     0.27324E-05 
  60878.6959     0.26503E-05 
  60910.9581     0.25695E-05 
  60943.2202     0.24901E-05 
  60975.4824     0.24122E-05 
  61007.7446     0.23356E-05 
  61040.0067     0.22604E-05 
  61072.2689     0.21866E-05 
  61104.5310     0.21142E-05 
  61136.7932     0.20432E-05 
  61169.0554     0.19736E-05 
  61201.3175     0.19054E-05 
  61233.5797     0.18386E-05 
  61265.8418     0.17732E-05 
  61298.1040     0.17092E-05 
  61330.3662     0.16466E-05 
  61362.6283     0.15854E-05 
  61394.8905     0.15257E-05 
  61427.1526     0.14673E-05 
  61459.4148     0.14104E-05 
  61491.6770     0.13549E-05 
  61523.9391     0.13008E-05 
  61556.2013     0.12481E-05 
  61588.4634     0.11969E-05 
  61620.7256     0.11470E-05 
  61652.9878     0.10987E-05 
  61685.2499     0.10517E-05 
  61717.5121     0.10063E-05 
  61749.7742     0.96224E-06 
  61782.0364     0.91967E-06 
  61814.2986     0.87856E-06 
  61846.5607     0.83892E-06 
  61878.8229     0.80075E-06 
  61911.0850     0.76407E-06 
  61943.3472     0.72887E-06 
  61975.6094     0.69516E-06 
  62007.8715     0.66296E-06 
  62040.1337     0.63226E-06 
  62072.3958     0.60308E-06 
  62104.6580     0.57542E-06 
  62136.9202     0.54930E-06 
  62169.1823     0.52471E-06 
  62201.4445     0.50167E-06 
  62233.7066     0.48019E-06 
  62265.9688     0.46028E-06 
  62298.2310     0.44194E-06 
  62330.4931     0.42519E-06 
  62362.7553     0.41003E-06 
  62395.0174     0.39649E-06 
  62427.2796     0.38456E-06 
  62459.5418     0.37426E-06 
  62491.8039     0.36560E-06 
  62524.0661     0.35860E-06 
  62556.3282     0.35327E-06 
  62588.5904     0.34961E-06 
  62620.8526     0.34764E-06 
  62653.1147     0.34738E-06 
  62685.3769     0.34885E-06 
  62717.6390     0.35204E-06 
  62749.9012     0.35698E-06 
  62782.1634     0.36369E-06 
  62814.4255     0.37218E-06 
  62846.6877     0.38247E-06 
  62878.9498     0.39456E-06 
  62911.2120     0.40849E-06 
  62943.4742     0.42427E-06 
  62975.7363     0.44191E-06 
  63007.9985     0.46143E-06 
  63040.2606     0.48285E-06 
  63072.5228     0.50620E-06 
  63104.7850     0.53149E-06 
  63137.0471     0.55875E-06 
  63169.3093     0.58798E-06 
  63201.5714     0.61922E-06 
  63233.8336     0.65249E-06 
  63266.0958     0.68781E-06 
  63298.3579     0.72520E-06 
  63330.6201     0.76469E-06 
  63362.8822     0.80630E-06 
  63395.1444     0.85005E-06 
  63427.4066     0.89598E-06 
  63459.6687     0.94411E-06 
  63491.9309     0.99446E-06 
  63524.1930     0.10471E-05 
  63556.4552     0.11020E-05 
  63588.7174     0.11592E-05 
  63620.9795     0.12187E-05 
  63653.2417     0.12806E-05 
  63685.5038     0.13449E-05 
  63717.7660     0.14117E-05 
  63750.0282     0.14809E-05 
  63782.2903     0.15526E-05 
  63814.5525     0.16268E-05 
  63846.8146     0.17037E-05 
  63879.0768     0.17831E-05 
  63911.3390     0.18652E-05 
  63943.6011     0.19499E-05 
  63975.8633     0.20374E-05 
  64008.1254     0.21276E-05 
  64040.3876     0.22207E-05 
  64072.6498     0.23165E-05 
  64104.9119     0.24153E-05 
  64137.1741     0.25170E-05 
  64169.4362     0.26217E-05 
  64201.6984     0.27293E-05 
  64233.9606     0.28401E-05 
  64266.2227     0.29540E-05 
  64298.4849     0.30710E-05 
  64330.7470     0.31912E-05 
  64363.0092     0.33147E-05 
  64395.2714     0.34415E-05 
  64427.5335     0.35717E-05 
  64459.7957     0.37053E-05 
  64492.0578     0.38424E-05 
  64524.3200     0.39831E-05 
  64556.5822     0.41273E-05 
  64588.8443     0.42752E-05 
  64621.1065     0.44268E-05 
  64653.3686     0.45822E-05 
  64685.6308     0.47415E-05 
  64717.8930     0.49046E-05 
  64750.1551     0.50718E-05 
  64782.4173     0.52430E-05 
  64814.6794     0.54183E-05 
  64846.9416     0.55978E-05 
  64879.2038     0.57816E-05 
  64911.4659     0.59697E-05 
  64943.7281     0.61623E-05 
  64975.9902     0.63594E-05 
  65008.2524     0.65610E-05 
  65040.5146     0.67673E-05 
  65072.7767     0.69783E-05 
  65105.0389     0.71942E-05 
  65137.3010     0.74150E-05 
  65169.5632     0.76409E-05 
  65201.8254     0.78718E-05 
  65234.0875     0.81080E-05 
  65266.3497     0.83494E-05 
  65298.6118     0.85963E-05 
  65330.8740     0.88486E-05 
  65363.1362     0.91066E-05 
  65395.3983     0.93702E-05 
  65427.6605     0.96397E-05 
  65459.9226     0.99151E-05 
  65492.1848     0.10197E-04 
  65524.4470     0.10484E-04 
  65556.7091     0.10778E-04 
  65588.9713     0.11078E-04 
  65621.2334     0.11385E-04 
  65653.4956     0.11699E-04 
  65685.7578     0.12019E-04 
  65718.0199     0.12346E-04 
  65750.2821     0.12680E-04 
  65782.5442     0.13022E-04 
  65814.8064     0.13370E-04 
  65847.0686     0.13727E-04 
  65879.3307     0.14090E-04 
  65911.5929     0.14462E-04 
  65943.8550     0.14841E-04 
  65976.1172     0.15229E-04 
  66008.3794     0.15625E-04 
  66040.6415     0.16029E-04 
  66072.9037     0.16442E-04 
  66105.1658     0.16863E-04 
  66137.4280     0.17293E-04 
  66169.6902     0.17733E-04 
  66201.9523     0.18181E-04 
  66234.2145     0.18640E-04 
  66266.4766     0.19107E-04 
  66298.7388     0.19585E-04 
  66331.0010     0.20073E-04 
  66363.2631     0.20571E-04 
  66395.5253     0.21079E-04 
  66427.7874     0.21598E-04 
  66460.0496     0.22128E-04 
  66492.3118     0.22669E-04 
  66524.5739     0.23221E-04 
  66556.8361     0.23784E-04 
  66589.0982     0.24360E-04 
  66621.3604     0.24947E-04 
  66653.6226     0.25547E-04 
  66685.8847     0.26159E-04 
  66718.1469     0.26784E-04 
  66750.4090     0.27422E-04 
  66782.6712     0.28073E-04 
  66814.9334     0.28737E-04 
  66847.1955     0.29416E-04 
  66879.4577     0.30108E-04 
  66911.7198     0.30815E-04 
  66943.9820     0.31536E-04 
  66976.2442     0.32273E-04 
  67008.5063     0.33024E-04 
  67040.7685     0.33791E-04 
  67073.0306     0.34574E-04 
  67105.2928     0.35373E-04 
  67137.5550     0.36188E-04 
  67169.8171     0.37020E-04 
  67202.0793     0.37869E-04 
  67234.3414     0.38736E-04 
  67266.6036     0.39621E-04 
  67298.8658     0.40523E-04 
  67331.1279     0.41444E-04 
  67363.3901     0.42384E-04 
  67395.6522     0.43344E-04 
  67427.9144     0.44322E-04 
  67460.1766     0.45321E-04 
  67492.4387     0.46340E-04 
  67524.7009     0.47380E-04 
  67556.9630     0.48441E-04 
  67589.2252     0.49524E-04 
  67621.4874     0.50629E-04 
  67653.7495     0.51756E-04 
  67686.0117     0.52906E-04 
  67718.2738     0.54079E-04 
  67750.5360     0.55276E-04 
  67782.7982     0.56497E-04 
  67815.0603     0.57743E-04 
  67847.3225     0.59014E-04 
  67879.5846     0.60311E-04 
  67911.8468     0.61633E-04 
  67944.1090     0.62982E-04 
  67976.3711     0.64359E-04 
  68008.6333     0.65762E-04 
  68040.8954     0.67194E-04 
  68073.1576     0.68655E-04 
  68105.4198     0.70144E-04 
  68137.6819     0.71664E-04 
  68169.9441     0.73213E-04 
  68202.2062     0.74793E-04 
  68234.4684     0.76405E-04 
  68266.7306     0.78048E-04 
  68298.9927     0.79724E-04 
  68331.2549     0.81433E-04 
  68363.5170     0.83176E-04 
  68395.7792     0.84952E-04 
  68428.0414     0.86764E-04 
  68460.3035     0.88611E-04 
  68492.5657     0.90495E-04 
  68524.8278     0.92415E-04 
  68557.0900     0.94372E-04 
  68589.3522     0.96367E-04 
  68621.6143     0.98402E-04 
  68653.8765     0.10048E-03 
  68686.1386     0.10259E-03 
  68718.4008     0.10474E-03 
  68750.6630     0.10694E-03 
  68782.9251     0.10918E-03 
  68815.1873     0.11146E-03 
  68847.4494     0.11378E-03 
  68879.7116     0.11615E-03 
  68911.9738     0.11856E-03 
  68944.2359     0.12102E-03 
  68976.4981     0.12353E-03 
  69008.7602     0.12608E-03 
  69041.0224     0.12868E-03 
  69073.2846     0.13133E-03 
  69105.5467     0.13403E-03 
  69137.8089     0.13678E-03 
  69170.0710     0.13958E-03 
  69202.3332     0.14244E-03 
  69234.5954     0.14534E-03 
  69266.8575     0.14830E-03 
  69299.1197     0.15132E-03 
  69331.3818     0.15439E-03 
  69363.6440     0.15751E-03 
  69395.9062     0.16070E-03 
  69428.1683     0.16394E-03 
  69460.4305     0.16724E-03 
  69492.6926     0.17060E-03 
  69524.9548     0.17402E-03 
  69557.2170     0.17750E-03 
  69589.4791     0.18104E-03 
  69621.7413     0.18465E-03 
  69654.0034     0.18832E-03 
  69686.2656     0.19206E-03 
  69718.5278     0.19586E-03 
  69750.7899     0.19973E-03 
  69783.0521     0.20367E-03 
  69815.3142     0.20767E-03 
  69847.5764     0.21175E-03 
  69879.8386     0.21590E-03 
  69912.1007     0.22012E-03 
  69944.3629     0.22441E-03 
  69976.6250     0.22878E-03 
  70008.8872     0.23322E-03 
  70041.1494     0.23773E-03 
  70073.4115     0.24233E-03 
  70105.6737     0.24700E-03 
  70137.9358     0.25175E-03 
  70170.1980     0.25658E-03 
  70202.4602     0.26149E-03 
  70234.7223     0.26648E-03 
  70266.9845     0.27156E-03 
  70299.2466     0.27672E-03 
  70331.5088     0.28196E-03 
  70363.7710     0.28729E-03 
  70396.0331     0.29271E-03 
  70428.2953     0.29822E-03 
  70460.5574     0.30381E-03 
  70492.8196     0.30950E-03 
  70525.0818     0.31527E-03 
  70557.3439     0.32114E-03 
  70589.6061     0.32710E-03 
  70621.8682     0.33316E-03 
  70654.1304     0.33931E-03 
  70686.3926     0.34556E-03 
  70718.6547     0.35191E-03 
  70750.9169     0.35835E-03 
  70783.1790     0.36490E-03 
  70815.4412     0.37154E-03 
  70847.7034     0.37829E-03 
  70879.9655     0.38514E-03 
  70912.2277     0.39210E-03 
  70944.4898     0.39916E-03 
  70976.7520     0.40632E-03 
  71009.0142     0.41360E-03 
  71041.2763     0.42098E-03 
  71073.5385     0.42847E-03 
  71105.8006     0.43607E-03 
  71138.0628     0.44378E-03 
  71170.3250     0.45161E-03 
  71202.5871     0.45955E-03 
  71234.8493     0.46760E-03 
  71267.1114     0.47577E-03 
  71299.3736     0.48405E-03 
  71331.6358     0.49245E-03 
  71363.8979     0.50098E-03 
  71396.1601     0.50962E-03 
  71428.4222     0.51838E-03 
  71460.6844     0.52726E-03 
  71492.9466     0.53627E-03 
  71525.2087     0.54540E-03 
  71557.4709     0.55465E-03 
  71589.7330     0.56403E-03 
  71621.9952     0.57354E-03 
  71654.2574     0.58317E-03 
  71686.5195     0.59293E-03 
  71718.7817     0.60282E-03 
  71751.0438     0.61285E-03 
  71783.3060     0.62300E-03 
  71815.5682     0.63328E-03 
  71847.8303     0.64370E-03 
  71880.0925     0.65425E-03 
  71912.3546     0.66494E-03 
  71944.6168     0.67576E-03 
  71976.8790     0.68672E-03 
  72009.1411     0.69781E-03 
  72041.4033     0.70905E-03 
  72073.6654     0.72042E-03 
  72105.9276     0.73193E-03 
  72138.1898     0.74358E-03 
  72170.4519     0.75538E-03 
  72202.7141     0.76731E-03 
  72234.9762     0.77939E-03 
  72267.2384     0.79161E-03 
  72299.5006     0.80398E-03 
  72331.7627     0.81649E-03 
  72364.0249     0.82914E-03 
  72396.2870     0.84195E-03 
  72428.5492     0.85489E-03 
  72460.8114     0.86799E-03 
  72493.0735     0.88123E-03 
  72525.3357     0.89462E-03 
  72557.5978     0.90817E-03 
  72589.8600     0.92186E-03 
