  32262.1600     0.97772E+00 
  32294.4222     0.98701E+00 
  32326.6843     0.99634E+00 
  32358.9465     0.10057E+01 
  32391.2086     0.10152E+01 
  32423.4708     0.10247E+01 
  32455.7330     0.10343E+01 
  32487.9951     0.10439E+01 
  32520.2573     0.10536E+01 
  32552.5194     0.10633E+01 
  32584.7816     0.10731E+01 
  32617.0438     0.10829E+01 
  32649.3059     0.10928E+01 
  32681.5681     0.11028E+01 
  32713.8302     0.11128E+01 
  32746.0924     0.11229E+01 
  32778.3546     0.11330E+01 
  32810.6167     0.11432E+01 
  32842.8789     0.11534E+01 
  32875.1410     0.11637E+01 
  32907.4032     0.11741E+01 
  32939.6654     0.11845E+01 
  32971.9275     0.11950E+01 
  33004.1897     0.12055E+01 
  33036.4518     0.12161E+01 
  33068.7140     0.12267E+01 
  33100.9762     0.12374E+01 
  33133.2383     0.12481E+01 
  33165.5005     0.12589E+01 
  33197.7626     0.12698E+01 
  33230.0248     0.12807E+01 
  33262.2870     0.12916E+01 
  33294.5491     0.13027E+01 
  33326.8113     0.13137E+01 
  33359.0734     0.13249E+01 
  33391.3356     0.13360E+01 
  33423.5978     0.13473E+01 
  33455.8599     0.13586E+01 
  33488.1221     0.13699E+01 
  33520.3842     0.13813E+01 
  33552.6464     0.13927E+01 
  33584.9086     0.14042E+01 
  33617.1707     0.14158E+01 
  33649.4329     0.14274E+01 
  33681.6950     0.14391E+01 
  33713.9572     0.14508E+01 
  33746.2194     0.14625E+01 
  33778.4815     0.14744E+01 
  33810.7437     0.14862E+01 
  33843.0058     0.14981E+01 
  33875.2680     0.15101E+01 
  33907.5302     0.15221E+01 
  33939.7923     0.15342E+01 
  33972.0545     0.15463E+01 
  34004.3166     0.15585E+01 
  34036.5788     0.15707E+01 
  34068.8410     0.15830E+01 
  34101.1031     0.15953E+01 
  34133.3653     0.16077E+01 
  34165.6274     0.16201E+01 
  34197.8896     0.16326E+01 
  34230.1518     0.16451E+01 
  34262.4139     0.16577E+01 
  34294.6761     0.16703E+01 
  34326.9382     0.16829E+01 
  34359.2004     0.16956E+01 
  34391.4626     0.17084E+01 
  34423.7247     0.17212E+01 
  34455.9869     0.17341E+01 
  34488.2490     0.17469E+01 
  34520.5112     0.17599E+01 
  34552.7734     0.17729E+01 
  34585.0355     0.17859E+01 
  34617.2977     0.17990E+01 
  34649.5598     0.18121E+01 
  34681.8220     0.18253E+01 
  34714.0842     0.18385E+01 
  34746.3463     0.18517E+01 
  34778.6085     0.18650E+01 
  34810.8706     0.18783E+01 
  34843.1328     0.18917E+01 
  34875.3950     0.19051E+01 
  34907.6571     0.19186E+01 
  34939.9193     0.19321E+01 
  34972.1814     0.19456E+01 
  35004.4436     0.19592E+01 
  35036.7058     0.19728E+01 
  35068.9679     0.19865E+01 
  35101.2301     0.20002E+01 
  35133.4922     0.20139E+01 
  35165.7544     0.20277E+01 
  35198.0166     0.20415E+01 
  35230.2787     0.20553E+01 
  35262.5409     0.20692E+01 
  35294.8030     0.20831E+01 
  35327.0652     0.20971E+01 
  35359.3274     0.21111E+01 
  35391.5895     0.21251E+01 
  35423.8517     0.21392E+01 
  35456.1138     0.21533E+01 
  35488.3760     0.21674E+01 
  35520.6382     0.21815E+01 
  35552.9003     0.21957E+01 
  35585.1625     0.22100E+01 
  35617.4246     0.22242E+01 
  35649.6868     0.22385E+01 
  35681.9490     0.22528E+01 
  35714.2111     0.22671E+01 
  35746.4733     0.22815E+01 
  35778.7354     0.22959E+01 
  35810.9976     0.23104E+01 
  35843.2598     0.23248E+01 
  35875.5219     0.23393E+01 
  35907.7841     0.23538E+01 
  35940.0462     0.23683E+01 
  35972.3084     0.23829E+01 
  36004.5706     0.23975E+01 
  36036.8327     0.24121E+01 
  36069.0949     0.24267E+01 
  36101.3570     0.24414E+01 
  36133.6192     0.24561E+01 
  36165.8814     0.24708E+01 
  36198.1435     0.24855E+01 
  36230.4057     0.25002E+01 
  36262.6678     0.25150E+01 
  36294.9300     0.25298E+01 
  36327.1922     0.25446E+01 
  36359.4543     0.25594E+01 
  36391.7165     0.25742E+01 
  36423.9786     0.25891E+01 
  36456.2408     0.26040E+01 
  36488.5030     0.26189E+01 
  36520.7651     0.26338E+01 
  36553.0273     0.26487E+01 
  36585.2894     0.26636E+01 
  36617.5516     0.26786E+01 
  36649.8138     0.26935E+01 
  36682.0759     0.27085E+01 
  36714.3381     0.27235E+01 
  36746.6002     0.27385E+01 
  36778.8624     0.27535E+01 
  36811.1246     0.27685E+01 
  36843.3867     0.27835E+01 
  36875.6489     0.27986E+01 
  36907.9110     0.28136E+01 
  36940.1732     0.28286E+01 
  36972.4354     0.28437E+01 
  37004.6975     0.28587E+01 
  37036.9597     0.28738E+01 
  37069.2218     0.28889E+01 
  37101.4840     0.29039E+01 
  37133.7462     0.29190E+01 
  37166.0083     0.29341E+01 
  37198.2705     0.29492E+01 
  37230.5326     0.29643E+01 
  37262.7948     0.29793E+01 
  37295.0570     0.29944E+01 
  37327.3191     0.30095E+01 
  37359.5813     0.30246E+01 
  37391.8434     0.30396E+01 
  37424.1056     0.30547E+01 
  37456.3678     0.30698E+01 
  37488.6299     0.30848E+01 
  37520.8921     0.30999E+01 
  37553.1542     0.31149E+01 
  37585.4164     0.31300E+01 
  37617.6786     0.31450E+01 
  37649.9407     0.31600E+01 
  37682.2029     0.31751E+01 
  37714.4650     0.31901E+01 
  37746.7272     0.32051E+01 
  37778.9894     0.32201E+01 
  37811.2515     0.32350E+01 
  37843.5137     0.32500E+01 
  37875.7758     0.32649E+01 
  37908.0380     0.32799E+01 
  37940.3002     0.32948E+01 
  37972.5623     0.33097E+01 
  38004.8245     0.33246E+01 
  38037.0866     0.33395E+01 
  38069.3488     0.33543E+01 
  38101.6110     0.33692E+01 
  38133.8731     0.33840E+01 
  38166.1353     0.33988E+01 
  38198.3974     0.34136E+01 
  38230.6596     0.34283E+01 
  38262.9218     0.34430E+01 
  38295.1839     0.34578E+01 
  38327.4461     0.34724E+01 
  38359.7082     0.34871E+01 
  38391.9704     0.35017E+01 
  38424.2326     0.35164E+01 
  38456.4947     0.35309E+01 
  38488.7569     0.35455E+01 
  38521.0190     0.35600E+01 
  38553.2812     0.35745E+01 
  38585.5434     0.35890E+01 
  38617.8055     0.36034E+01 
  38650.0677     0.36179E+01 
  38682.3298     0.36322E+01 
  38714.5920     0.36466E+01 
  38746.8542     0.36609E+01 
  38779.1163     0.36752E+01 
  38811.3785     0.36894E+01 
  38843.6406     0.37036E+01 
  38875.9028     0.37178E+01 
  38908.1650     0.37320E+01 
  38940.4271     0.37461E+01 
  38972.6893     0.37601E+01 
  39004.9514     0.37741E+01 
  39037.2136     0.37881E+01 
  39069.4758     0.38021E+01 
  39101.7379     0.38160E+01 
  39134.0001     0.38298E+01 
  39166.2622     0.38437E+01 
  39198.5244     0.38574E+01 
  39230.7866     0.38712E+01 
  39263.0487     0.38849E+01 
  39295.3109     0.38985E+01 
  39327.5730     0.39121E+01 
  39359.8352     0.39256E+01 
  39392.0974     0.39391E+01 
  39424.3595     0.39526E+01 
  39456.6217     0.39660E+01 
  39488.8838     0.39793E+01 
  39521.1460     0.39927E+01 
  39553.4082     0.40059E+01 
  39585.6703     0.40191E+01 
  39617.9325     0.40323E+01 
  39650.1946     0.40453E+01 
  39682.4568     0.40584E+01 
  39714.7190     0.40714E+01 
  39746.9811     0.40843E+01 
  39779.2433     0.40972E+01 
  39811.5054     0.41100E+01 
  39843.7676     0.41228E+01 
  39876.0298     0.41355E+01 
  39908.2919     0.41481E+01 
  39940.5541     0.41607E+01 
  39972.8162     0.41732E+01 
  40005.0784     0.41857E+01 
  40037.3406     0.41981E+01 
  40069.6027     0.42104E+01 
  40101.8649     0.42227E+01 
  40134.1270     0.42349E+01 
  40166.3892     0.42471E+01 
  40198.6514     0.42592E+01 
  40230.9135     0.42712E+01 
  40263.1757     0.42831E+01 
  40295.4378     0.42950E+01 
  40327.7000     0.43068E+01 
  40359.9622     0.43186E+01 
  40392.2243     0.43303E+01 
  40424.4865     0.43419E+01 
  40456.7486     0.43534E+01 
  40489.0108     0.43649E+01 
  40521.2730     0.43763E+01 
  40553.5351     0.43876E+01 
  40585.7973     0.43989E+01 
  40618.0594     0.44101E+01 
  40650.3216     0.44212E+01 
  40682.5838     0.44323E+01 
  40714.8459     0.44432E+01 
  40747.1081     0.44541E+01 
  40779.3702     0.44649E+01 
  40811.6324     0.44757E+01 
  40843.8946     0.44863E+01 
  40876.1567     0.44969E+01 
  40908.4189     0.45074E+01 
  40940.6810     0.45178E+01 
  40972.9432     0.45282E+01 
  41005.2054     0.45385E+01 
  41037.4675     0.45486E+01 
  41069.7297     0.45588E+01 
  41101.9918     0.45688E+01 
  41134.2540     0.45787E+01 
  41166.5162     0.45886E+01 
  41198.7783     0.45984E+01 
  41231.0405     0.46081E+01 
  41263.3026     0.46177E+01 
  41295.5648     0.46272E+01 
  41327.8270     0.46366E+01 
  41360.0891     0.46460E+01 
  41392.3513     0.46553E+01 
  41424.6134     0.46645E+01 
  41456.8756     0.46736E+01 
  41489.1378     0.46826E+01 
  41521.3999     0.46915E+01 
  41553.6621     0.47003E+01 
  41585.9242     0.47091E+01 
  41618.1864     0.47177E+01 
  41650.4486     0.47263E+01 
  41682.7107     0.47348E+01 
  41714.9729     0.47432E+01 
  41747.2350     0.47515E+01 
  41779.4972     0.47597E+01 
  41811.7594     0.47678E+01 
  41844.0215     0.47758E+01 
  41876.2837     0.47837E+01 
  41908.5458     0.47916E+01 
  41940.8080     0.47993E+01 
  41973.0702     0.48070E+01 
  42005.3323     0.48145E+01 
  42037.5945     0.48220E+01 
  42069.8566     0.48293E+01 
  42102.1188     0.48366E+01 
  42134.3810     0.48438E+01 
  42166.6431     0.48509E+01 
  42198.9053     0.48578E+01 
  42231.1674     0.48647E+01 
  42263.4296     0.48715E+01 
  42295.6918     0.48782E+01 
  42327.9539     0.48848E+01 
  42360.2161     0.48913E+01 
  42392.4782     0.48977E+01 
  42424.7404     0.49040E+01 
  42457.0026     0.49102E+01 
  42489.2647     0.49163E+01 
  42521.5269     0.49223E+01 
  42553.7890     0.49282E+01 
  42586.0512     0.49340E+01 
  42618.3134     0.49397E+01 
  42650.5755     0.49453E+01 
  42682.8377     0.49508E+01 
  42715.0998     0.49562E+01 
  42747.3620     0.49615E+01 
  42779.6242     0.49667E+01 
  42811.8863     0.49718E+01 
  42844.1485     0.49768E+01 
  42876.4106     0.49816E+01 
  42908.6728     0.49864E+01 
  42940.9350     0.49911E+01 
  42973.1971     0.49957E+01 
  43005.4593     0.50002E+01 
  43037.7214     0.50045E+01 
  43069.9836     0.50088E+01 
  43102.2458     0.50130E+01 
  43134.5079     0.50170E+01 
  43166.7701     0.50210E+01 
  43199.0322     0.50249E+01 
  43231.2944     0.50286E+01 
  43263.5566     0.50323E+01 
  43295.8187     0.50358E+01 
  43328.0809     0.50392E+01 
  43360.3430     0.50426E+01 
  43392.6052     0.50458E+01 
  43424.8674     0.50489E+01 
  43457.1295     0.50519E+01 
  43489.3917     0.50549E+01 
  43521.6538     0.50577E+01 
  43553.9160     0.50604E+01 
  43586.1782     0.50630E+01 
  43618.4403     0.50654E+01 
  43650.7025     0.50678E+01 
  43682.9646     0.50701E+01 
  43715.2268     0.50723E+01 
  43747.4890     0.50744E+01 
  43779.7511     0.50763E+01 
  43812.0133     0.50782E+01 
  43844.2754     0.50799E+01 
  43876.5376     0.50816E+01 
  43908.7998     0.50831E+01 
  43941.0619     0.50845E+01 
  43973.3241     0.50859E+01 
  44005.5862     0.50871E+01 
  44037.8484     0.50882E+01 
  44070.1106     0.50892E+01 
  44102.3727     0.50901E+01 
  44134.6349     0.50909E+01 
  44166.8970     0.50916E+01 
  44199.1592     0.50922E+01 
  44231.4214     0.50927E+01 
  44263.6835     0.50930E+01 
  44295.9457     0.50933E+01 
  44328.2078     0.50935E+01 
  44360.4700     0.50935E+01 
  44392.7322     0.50935E+01 
  44424.9943     0.50933E+01 
  44457.2565     0.50931E+01 
  44489.5186     0.50927E+01 
  44521.7808     0.50922E+01 
  44554.0430     0.50917E+01 
  44586.3051     0.50910E+01 
  44618.5673     0.50902E+01 
  44650.8294     0.50893E+01 
  44683.0916     0.50883E+01 
  44715.3538     0.50872E+01 
  44747.6159     0.50861E+01 
  44779.8781     0.50847E+01 
  44812.1402     0.50833E+01 
  44844.4024     0.50818E+01 
  44876.6646     0.50802E+01 
  44908.9267     0.50785E+01 
  44941.1889     0.50767E+01 
  44973.4510     0.50748E+01 
  45005.7132     0.50727E+01 
  45037.9754     0.50706E+01 
  45070.2375     0.50684E+01 
  45102.4997     0.50661E+01 
  45134.7618     0.50636E+01 
  45167.0240     0.50611E+01 
  45199.2862     0.50584E+01 
  45231.5483     0.50557E+01 
  45263.8105     0.50529E+01 
  45296.0726     0.50499E+01 
  45328.3348     0.50469E+01 
  45360.5970     0.50438E+01 
  45392.8591     0.50405E+01 
  45425.1213     0.50372E+01 
  45457.3834     0.50337E+01 
  45489.6456     0.50302E+01 
  45521.9078     0.50266E+01 
  45554.1699     0.50228E+01 
  45586.4321     0.50190E+01 
  45618.6942     0.50151E+01 
  45650.9564     0.50110E+01 
  45683.2186     0.50069E+01 
  45715.4807     0.50027E+01 
  45747.7429     0.49984E+01 
  45780.0050     0.49940E+01 
  45812.2672     0.49894E+01 
  45844.5294     0.49848E+01 
  45876.7915     0.49801E+01 
  45909.0537     0.49753E+01 
  45941.3158     0.49704E+01 
  45973.5780     0.49655E+01 
  46005.8402     0.49604E+01 
  46038.1023     0.49552E+01 
  46070.3645     0.49499E+01 
  46102.6266     0.49446E+01 
  46134.8888     0.49391E+01 
  46167.1510     0.49336E+01 
  46199.4131     0.49279E+01 
  46231.6753     0.49222E+01 
  46263.9374     0.49164E+01 
  46296.1996     0.49105E+01 
  46328.4618     0.49045E+01 
  46360.7239     0.48984E+01 
  46392.9861     0.48922E+01 
  46425.2482     0.48859E+01 
  46457.5104     0.48796E+01 
  46489.7726     0.48731E+01 
  46522.0347     0.48666E+01 
  46554.2969     0.48600E+01 
  46586.5590     0.48533E+01 
  46618.8212     0.48465E+01 
  46651.0834     0.48396E+01 
  46683.3455     0.48326E+01 
  46715.6077     0.48256E+01 
  46747.8698     0.48185E+01 
  46780.1320     0.48112E+01 
  46812.3942     0.48039E+01 
  46844.6563     0.47965E+01 
  46876.9185     0.47891E+01 
  46909.1806     0.47815E+01 
  46941.4428     0.47739E+01 
  46973.7050     0.47662E+01 
  47005.9671     0.47584E+01 
  47038.2293     0.47505E+01 
  47070.4914     0.47425E+01 
  47102.7536     0.47345E+01 
  47135.0158     0.47264E+01 
  47167.2779     0.47182E+01 
  47199.5401     0.47099E+01 
  47231.8022     0.47016E+01 
  47264.0644     0.46931E+01 
  47296.3266     0.46846E+01 
  47328.5887     0.46761E+01 
  47360.8509     0.46674E+01 
  47393.1130     0.46587E+01 
  47425.3752     0.46499E+01 
  47457.6374     0.46410E+01 
  47489.8995     0.46320E+01 
  47522.1617     0.46230E+01 
  47554.4238     0.46139E+01 
  47586.6860     0.46048E+01 
  47618.9482     0.45955E+01 
  47651.2103     0.45862E+01 
  47683.4725     0.45768E+01 
  47715.7346     0.45674E+01 
  47747.9968     0.45578E+01 
  47780.2590     0.45483E+01 
  47812.5211     0.45386E+01 
  47844.7833     0.45289E+01 
  47877.0454     0.45191E+01 
  47909.3076     0.45092E+01 
  47941.5698     0.44993E+01 
  47973.8319     0.44893E+01 
  48006.0941     0.44792E+01 
  48038.3562     0.44691E+01 
  48070.6184     0.44589E+01 
  48102.8806     0.44487E+01 
  48135.1427     0.44384E+01 
  48167.4049     0.44280E+01 
  48199.6670     0.44176E+01 
  48231.9292     0.44071E+01 
  48264.1914     0.43965E+01 
  48296.4535     0.43859E+01 
  48328.7157     0.43752E+01 
  48360.9778     0.43645E+01 
  48393.2400     0.43537E+01 
  48425.5022     0.43428E+01 
  48457.7643     0.43319E+01 
  48490.0265     0.43210E+01 
  48522.2886     0.43099E+01 
  48554.5508     0.42989E+01 
  48586.8130     0.42877E+01 
  48619.0751     0.42766E+01 
  48651.3373     0.42653E+01 
  48683.5994     0.42540E+01 
  48715.8616     0.42427E+01 
  48748.1238     0.42313E+01 
  48780.3859     0.42198E+01 
  48812.6481     0.42083E+01 
  48844.9102     0.41968E+01 
  48877.1724     0.41852E+01 
  48909.4346     0.41735E+01 
  48941.6967     0.41618E+01 
  48973.9589     0.41501E+01 
  49006.2210     0.41383E+01 
  49038.4832     0.41265E+01 
  49070.7454     0.41146E+01 
  49103.0075     0.41027E+01 
  49135.2697     0.40907E+01 
  49167.5318     0.40787E+01 
  49199.7940     0.40666E+01 
  49232.0562     0.40545E+01 
  49264.3183     0.40423E+01 
  49296.5805     0.40301E+01 
  49328.8426     0.40179E+01 
  49361.1048     0.40056E+01 
  49393.3670     0.39933E+01 
  49425.6291     0.39810E+01 
  49457.8913     0.39686E+01 
  49490.1534     0.39561E+01 
  49522.4156     0.39437E+01 
  49554.6778     0.39312E+01 
  49586.9399     0.39186E+01 
  49619.2021     0.39060E+01 
  49651.4642     0.38934E+01 
  49683.7264     0.38808E+01 
  49715.9886     0.38681E+01 
  49748.2507     0.38553E+01 
  49780.5129     0.38426E+01 
  49812.7750     0.38298E+01 
  49845.0372     0.38170E+01 
  49877.2994     0.38041E+01 
  49909.5615     0.37912E+01 
  49941.8237     0.37783E+01 
  49974.0858     0.37654E+01 
  50006.3480     0.37524E+01 
  50038.6102     0.37394E+01 
  50070.8723     0.37264E+01 
  50103.1345     0.37133E+01 
  50135.3966     0.37002E+01 
  50167.6588     0.36871E+01 
  50199.9210     0.36740E+01 
  50232.1831     0.36608E+01 
  50264.4453     0.36476E+01 
  50296.7074     0.36344E+01 
  50328.9696     0.36212E+01 
  50361.2318     0.36079E+01 
  50393.4939     0.35946E+01 
  50425.7561     0.35813E+01 
  50458.0182     0.35680E+01 
  50490.2804     0.35546E+01 
  50522.5426     0.35412E+01 
  50554.8047     0.35279E+01 
  50587.0669     0.35144E+01 
  50619.3290     0.35010E+01 
  50651.5912     0.34876E+01 
  50683.8534     0.34741E+01 
  50716.1155     0.34606E+01 
  50748.3777     0.34471E+01 
  50780.6398     0.34336E+01 
  50812.9020     0.34201E+01 
  50845.1642     0.34065E+01 
  50877.4263     0.33929E+01 
  50909.6885     0.33794E+01 
  50941.9506     0.33658E+01 
  50974.2128     0.33522E+01 
  51006.4750     0.33386E+01 
  51038.7371     0.33249E+01 
  51070.9993     0.33113E+01 
  51103.2614     0.32976E+01 
  51135.5236     0.32840E+01 
  51167.7858     0.32703E+01 
  51200.0479     0.32566E+01 
  51232.3101     0.32429E+01 
  51264.5722     0.32292E+01 
  51296.8344     0.32155E+01 
  51329.0966     0.32018E+01 
  51361.3587     0.31881E+01 
  51393.6209     0.31743E+01 
  51425.8830     0.31606E+01 
  51458.1452     0.31468E+01 
  51490.4074     0.31331E+01 
  51522.6695     0.31193E+01 
  51554.9317     0.31056E+01 
  51587.1938     0.30918E+01 
  51619.4560     0.30781E+01 
  51651.7182     0.30643E+01 
  51683.9803     0.30505E+01 
  51716.2425     0.30368E+01 
  51748.5046     0.30230E+01 
  51780.7668     0.30092E+01 
  51813.0290     0.29954E+01 
  51845.2911     0.29817E+01 
  51877.5533     0.29679E+01 
  51909.8154     0.29541E+01 
  51942.0776     0.29403E+01 
  51974.3398     0.29266E+01 
  52006.6019     0.29128E+01 
  52038.8641     0.28990E+01 
  52071.1262     0.28853E+01 
  52103.3884     0.28715E+01 
  52135.6506     0.28578E+01 
  52167.9127     0.28440E+01 
  52200.1749     0.28303E+01 
  52232.4370     0.28165E+01 
  52264.6992     0.28028E+01 
  52296.9614     0.27891E+01 
  52329.2235     0.27754E+01 
  52361.4857     0.27616E+01 
  52393.7478     0.27479E+01 
  52426.0100     0.27342E+01 
  52458.2722     0.27206E+01 
  52490.5343     0.27069E+01 
  52522.7965     0.26932E+01 
  52555.0586     0.26795E+01 
  52587.3208     0.26659E+01 
  52619.5830     0.26522E+01 
  52651.8451     0.26386E+01 
  52684.1073     0.26250E+01 
  52716.3694     0.26114E+01 
  52748.6316     0.25978E+01 
  52780.8938     0.25842E+01 
  52813.1559     0.25706E+01 
  52845.4181     0.25571E+01 
  52877.6802     0.25435E+01 
  52909.9424     0.25300E+01 
  52942.2046     0.25165E+01 
  52974.4667     0.25030E+01 
  53006.7289     0.24895E+01 
  53038.9910     0.24760E+01 
  53071.2532     0.24625E+01 
  53103.5154     0.24491E+01 
  53135.7775     0.24357E+01 
  53168.0397     0.24223E+01 
  53200.3018     0.24089E+01 
  53232.5640     0.23955E+01 
  53264.8262     0.23821E+01 
  53297.0883     0.23688E+01 
  53329.3505     0.23555E+01 
  53361.6126     0.23422E+01 
  53393.8748     0.23289E+01 
  53426.1370     0.23156E+01 
  53458.3991     0.23024E+01 
  53490.6613     0.22892E+01 
  53522.9234     0.22760E+01 
  53555.1856     0.22628E+01 
  53587.4478     0.22496E+01 
  53619.7099     0.22365E+01 
  53651.9721     0.22234E+01 
  53684.2342     0.22103E+01 
  53716.4964     0.21972E+01 
  53748.7586     0.21841E+01 
  53781.0207     0.21711E+01 
  53813.2829     0.21581E+01 
  53845.5450     0.21451E+01 
  53877.8072     0.21322E+01 
  53910.0694     0.21192E+01 
  53942.3315     0.21063E+01 
  53974.5937     0.20934E+01 
  54006.8558     0.20806E+01 
  54039.1180     0.20677E+01 
  54071.3802     0.20549E+01 
  54103.6423     0.20421E+01 
  54135.9045     0.20294E+01 
  54168.1666     0.20166E+01 
  54200.4288     0.20039E+01 
  54232.6910     0.19912E+01 
  54264.9531     0.19786E+01 
  54297.2153     0.19660E+01 
  54329.4774     0.19534E+01 
  54361.7396     0.19408E+01 
  54394.0018     0.19282E+01 
  54426.2639     0.19157E+01 
  54458.5261     0.19032E+01 
  54490.7882     0.18908E+01 
  54523.0504     0.18784E+01 
  54555.3126     0.18660E+01 
  54587.5747     0.18536E+01 
  54619.8369     0.18412E+01 
  54652.0990     0.18289E+01 
  54684.3612     0.18166E+01 
  54716.6234     0.18044E+01 
  54748.8855     0.17922E+01 
  54781.1477     0.17800E+01 
  54813.4098     0.17678E+01 
  54845.6720     0.17557E+01 
  54877.9342     0.17436E+01 
  54910.1963     0.17315E+01 
  54942.4585     0.17195E+01 
  54974.7206     0.17075E+01 
  55006.9828     0.16955E+01 
  55039.2450     0.16836E+01 
  55071.5071     0.16717E+01 
  55103.7693     0.16598E+01 
  55136.0314     0.16480E+01 
  55168.2936     0.16362E+01 
  55200.5558     0.16244E+01 
  55232.8179     0.16127E+01 
  55265.0801     0.16010E+01 
  55297.3422     0.15893E+01 
  55329.6044     0.15777E+01 
  55361.8666     0.15661E+01 
  55394.1287     0.15545E+01 
  55426.3909     0.15430E+01 
  55458.6530     0.15315E+01 
  55490.9152     0.15200E+01 
  55523.1774     0.15086E+01 
  55555.4395     0.14972E+01 
  55587.7017     0.14858E+01 
  55619.9638     0.14745E+01 
  55652.2260     0.14632E+01 
  55684.4882     0.14520E+01 
  55716.7503     0.14408E+01 
  55749.0125     0.14296E+01 
  55781.2746     0.14185E+01 
  55813.5368     0.14074E+01 
  55845.7990     0.13963E+01 
  55878.0611     0.13853E+01 
  55910.3233     0.13743E+01 
  55942.5854     0.13633E+01 
  55974.8476     0.13524E+01 
  56007.1098     0.13415E+01 
  56039.3719     0.13307E+01 
  56071.6341     0.13199E+01 
  56103.8962     0.13091E+01 
  56136.1584     0.12984E+01 
  56168.4206     0.12877E+01 
  56200.6827     0.12771E+01 
  56232.9449     0.12665E+01 
  56265.2070     0.12559E+01 
  56297.4692     0.12454E+01 
  56329.7314     0.12349E+01 
  56361.9935     0.12244E+01 
  56394.2557     0.12140E+01 
  56426.5178     0.12036E+01 
  56458.7800     0.11933E+01 
  56491.0422     0.11830E+01 
  56523.3043     0.11727E+01 
  56555.5665     0.11625E+01 
  56587.8286     0.11523E+01 
  56620.0908     0.11422E+01 
  56652.3530     0.11321E+01 
  56684.6151     0.11220E+01 
  56716.8773     0.11120E+01 
  56749.1394     0.11021E+01 
  56781.4016     0.10921E+01 
  56813.6638     0.10822E+01 
  56845.9259     0.10724E+01 
  56878.1881     0.10626E+01 
  56910.4502     0.10528E+01 
  56942.7124     0.10431E+01 
  56974.9746     0.10334E+01 
  57007.2367     0.10237E+01 
  57039.4989     0.10141E+01 
  57071.7610     0.10046E+01 
  57104.0232     0.99507E+00 
  57136.2854     0.98559E+00 
  57168.5475     0.97616E+00 
  57200.8097     0.96677E+00 
  57233.0718     0.95742E+00 
  57265.3340     0.94812E+00 
  57297.5962     0.93885E+00 
  57329.8583     0.92964E+00 
  57362.1205     0.92046E+00 
  57394.3826     0.91133E+00 
  57426.6448     0.90224E+00 
  57458.9070     0.89319E+00 
  57491.1691     0.88419E+00 
  57523.4313     0.87523E+00 
  57555.6934     0.86632E+00 
  57587.9556     0.85744E+00 
  57620.2178     0.84862E+00 
  57652.4799     0.83984E+00 
  57684.7421     0.83110E+00 
  57717.0042     0.82240E+00 
  57749.2664     0.81375E+00 
  57781.5286     0.80515E+00 
  57813.7907     0.79659E+00 
  57846.0529     0.78808E+00 
  57878.3150     0.77961E+00 
  57910.5772     0.77119E+00 
  57942.8394     0.76281E+00 
  57975.1015     0.75447E+00 
  58007.3637     0.74619E+00 
  58039.6258     0.73795E+00 
  58071.8880     0.72975E+00 
  58104.1502     0.72160E+00 
  58136.4123     0.71350E+00 
  58168.6745     0.70544E+00 
  58200.9366     0.69744E+00 
  58233.1988     0.68947E+00 
  58265.4610     0.68156E+00 
  58297.7231     0.67369E+00 
  58329.9853     0.66587E+00 
  58362.2474     0.65809E+00 
  58394.5096     0.65037E+00 
  58426.7718     0.64269E+00 
  58459.0339     0.63506E+00 
  58491.2961     0.62748E+00 
  58523.5582     0.61994E+00 
  58555.8204     0.61246E+00 
  58588.0826     0.60502E+00 
  58620.3447     0.59763E+00 
  58652.6069     0.59029E+00 
  58684.8690     0.58300E+00 
  58717.1312     0.57576E+00 
  58749.3934     0.56857E+00 
  58781.6555     0.56143E+00 
  58813.9177     0.55434E+00 
  58846.1798     0.54730E+00 
  58878.4420     0.54031E+00 
  58910.7042     0.53336E+00 
  58942.9663     0.52647E+00 
  58975.2285     0.51964E+00 
  59007.4906     0.51285E+00 
  59039.7528     0.50611E+00 
  59072.0150     0.49943E+00 
  59104.2771     0.49280E+00 
  59136.5393     0.48621E+00 
  59168.8014     0.47969E+00 
  59201.0636     0.47321E+00 
  59233.3258     0.46679E+00 
  59265.5879     0.46042E+00 
  59297.8501     0.45410E+00 
  59330.1122     0.44784E+00 
  59362.3744     0.44163E+00 
  59394.6366     0.43548E+00 
  59426.8987     0.42937E+00 
  59459.1609     0.42333E+00 
  59491.4230     0.41734E+00 
  59523.6852     0.41140E+00 
  59555.9474     0.40552E+00 
  59588.2095     0.39970E+00 
  59620.4717     0.39393E+00 
  59652.7338     0.38822E+00 
  59684.9960     0.38256E+00 
  59717.2582     0.37696E+00 
  59749.5203     0.37142E+00 
  59781.7825     0.36594E+00 
  59814.0446     0.36052E+00 
  59846.3068     0.35515E+00 
  59878.5690     0.34984E+00 
  59910.8311     0.34459E+00 
  59943.0933     0.33940E+00 
  59975.3554     0.33427E+00 
  60007.6176     0.32920E+00 
  60039.8798     0.32419E+00 
  60072.1419     0.31925E+00 
  60104.4041     0.31436E+00 
  60136.6662     0.30953E+00 
  60168.9284     0.30477E+00 
  60201.1906     0.30007E+00 
  60233.4527     0.29543E+00 
  60265.7149     0.29086E+00 
  60297.9770     0.28635E+00 
  60330.2392     0.28190E+00 
  60362.5014     0.27752E+00 
  60394.7635     0.27320E+00 
  60427.0257     0.26895E+00 
  60459.2878     0.26476E+00 
  60491.5500     0.26064E+00 
  60523.8122     0.25659E+00 
  60556.0743     0.25260E+00 
  60588.3365     0.24869E+00 
  60620.5986     0.24484E+00 
  60652.8608     0.24106E+00 
  60685.1230     0.23735E+00 
  60717.3851     0.23371E+00 
  60749.6473     0.23014E+00 
  60781.9094     0.22664E+00 
  60814.1716     0.22321E+00 
  60846.4338     0.21986E+00 
  60878.6959     0.21657E+00 
  60910.9581     0.21336E+00 
  60943.2202     0.21023E+00 
  60975.4824     0.20717E+00 
  61007.7446     0.20418E+00 
  61040.0067     0.20127E+00 
  61072.2689     0.19844E+00 
  61104.5310     0.19568E+00 
  61136.7932     0.19300E+00 
  61169.0554     0.19040E+00 
  61201.3175     0.18788E+00 
  61233.5797     0.18543E+00 
  61265.8418     0.18307E+00 
  61298.1040     0.18079E+00 
  61330.3662     0.17859E+00 
  61362.6283     0.17647E+00 
  61394.8905     0.17444E+00 
  61427.1526     0.17249E+00 
  61459.4148     0.17062E+00 
  61491.6770     0.16884E+00 
  61523.9391     0.16714E+00 
  61556.2013     0.16554E+00 
  61588.4634     0.16402E+00 
  61620.7256     0.16258E+00 
  61652.9878     0.16124E+00 
  61685.2499     0.15999E+00 
  61717.5121     0.15883E+00 
  61749.7742     0.15776E+00 
  61782.0364     0.15678E+00 
  61814.2986     0.15590E+00 
  61846.5607     0.15511E+00 
  61878.8229     0.15441E+00 
  61911.0850     0.15382E+00 
  61943.3472     0.15332E+00 
  61975.6094     0.15291E+00 
  62007.8715     0.15261E+00 
  62040.1337     0.15240E+00 
  62072.3958     0.15230E+00 
  62104.6580     0.15230E+00 
  62136.9202     0.15240E+00 
  62169.1823     0.15261E+00 
  62201.4445     0.15292E+00 
  62233.7066     0.15333E+00 
  62265.9688     0.15386E+00 
  62298.2310     0.15449E+00 
  62330.4931     0.15523E+00 
  62362.7553     0.15608E+00 
  62395.0174     0.15704E+00 
  62427.2796     0.15812E+00 
  62459.5418     0.15930E+00 
  62491.8039     0.16061E+00 
  62524.0661     0.16203E+00 
  62556.3282     0.16356E+00 
  62588.5904     0.16522E+00 
  62620.8526     0.16699E+00 
  62653.1147     0.16888E+00 
  62685.3769     0.17090E+00 
  62717.6390     0.17304E+00 
  62749.9012     0.17530E+00 
  62782.1634     0.17769E+00 
  62814.4255     0.18020E+00 
  62846.6877     0.18285E+00 
  62878.9498     0.18562E+00 
  62911.2120     0.18853E+00 
  62943.4742     0.19156E+00 
  62975.7363     0.19473E+00 
  63007.9985     0.19804E+00 
  63040.2606     0.20148E+00 
  63072.5228     0.20506E+00 
  63104.7850     0.20878E+00 
  63137.0471     0.21264E+00 
  63169.3093     0.21664E+00 
  63201.5714     0.22078E+00 
  63233.8336     0.22507E+00 
  63266.0958     0.22951E+00 
  63298.3579     0.23410E+00 
  63330.6201     0.23883E+00 
  63362.8822     0.24372E+00 
  63395.1444     0.24876E+00 
  63427.4066     0.25395E+00 
  63459.6687     0.25930E+00 
  63491.9309     0.26481E+00 
  63524.1930     0.27047E+00 
  63556.4552     0.27630E+00 
  63588.7174     0.28229E+00 
  63620.9795     0.28844E+00 
  63653.2417     0.29477E+00 
  63685.5038     0.30125E+00 
  63717.7660     0.30791E+00 
  63750.0282     0.31474E+00 
  63782.2903     0.32174E+00 
  63814.5525     0.32892E+00 
  63846.8146     0.33627E+00 
  63879.0768     0.34381E+00 
  63911.3390     0.35152E+00 
  63943.6011     0.35942E+00 
  63975.8633     0.36750E+00 
  64008.1254     0.37576E+00 
  64040.3876     0.38422E+00 
  64072.6498     0.39286E+00 
  64104.9119     0.40170E+00 
  64137.1741     0.41072E+00 
  64169.4362     0.41995E+00 
  64201.6984     0.42937E+00 
  64233.9606     0.43900E+00 
  64266.2227     0.44882E+00 
  64298.4849     0.45885E+00 
  64330.7470     0.46909E+00 
  64363.0092     0.47953E+00 
  64395.2714     0.49019E+00 
  64427.5335     0.50105E+00 
  64459.7957     0.51214E+00 
  64492.0578     0.52344E+00 
  64524.3200     0.53495E+00 
  64556.5822     0.54669E+00 
  64588.8443     0.55866E+00 
  64621.1065     0.57084E+00 
  64653.3686     0.58326E+00 
  64685.6308     0.59591E+00 
  64717.8930     0.60879E+00 
  64750.1551     0.62190E+00 
  64782.4173     0.63526E+00 
  64814.6794     0.64885E+00 
  64846.9416     0.66268E+00 
  64879.2038     0.67676E+00 
  64911.4659     0.69109E+00 
  64943.7281     0.70566E+00 
  64975.9902     0.72049E+00 
  65008.2524     0.73557E+00 
  65040.5146     0.75091E+00 
  65072.7767     0.76651E+00 
  65105.0389     0.78237E+00 
  65137.3010     0.79849E+00 
  65169.5632     0.81489E+00 
  65201.8254     0.83155E+00 
  65234.0875     0.84848E+00 
  65266.3497     0.86569E+00 
  65298.6118     0.88317E+00 
  65330.8740     0.90094E+00 
  65363.1362     0.91899E+00 
  65395.3983     0.93732E+00 
  65427.6605     0.95595E+00 
  65459.9226     0.97486E+00 
  65492.1848     0.99407E+00 
  65524.4470     0.10136E+01 
  65556.7091     0.10334E+01 
  65588.9713     0.10535E+01 
  65621.2334     0.10739E+01 
  65653.4956     0.10946E+01 
  65685.7578     0.11156E+01 
  65718.0199     0.11370E+01 
  65750.2821     0.11586E+01 
  65782.5442     0.11806E+01 
  65814.8064     0.12029E+01 
  65847.0686     0.12255E+01 
  65879.3307     0.12485E+01 
  65911.5929     0.12718E+01 
  65943.8550     0.12954E+01 
  65976.1172     0.13194E+01 
  66008.3794     0.13437E+01 
  66040.6415     0.13683E+01 
  66072.9037     0.13933E+01 
  66105.1658     0.14186E+01 
  66137.4280     0.14443E+01 
  66169.6902     0.14703E+01 
  66201.9523     0.14967E+01 
  66234.2145     0.15235E+01 
  66266.4766     0.15506E+01 
  66298.7388     0.15781E+01 
  66331.0010     0.16060E+01 
  66363.2631     0.16342E+01 
  66395.5253     0.16629E+01 
  66427.7874     0.16919E+01 
  66460.0496     0.17212E+01 
  66492.3118     0.17510E+01 
  66524.5739     0.17812E+01 
  66556.8361     0.18117E+01 
  66589.0982     0.18427E+01 
  66621.3604     0.18740E+01 
  66653.6226     0.19058E+01 
  66685.8847     0.19380E+01 
  66718.1469     0.19705E+01 
  66750.4090     0.20035E+01 
  66782.6712     0.20369E+01 
  66814.9334     0.20708E+01 
  66847.1955     0.21050E+01 
  66879.4577     0.21397E+01 
  66911.7198     0.21748E+01 
  66943.9820     0.22103E+01 
  66976.2442     0.22463E+01 
  67008.5063     0.22827E+01 
  67040.7685     0.23196E+01 
  67073.0306     0.23569E+01 
  67105.2928     0.23947E+01 
  67137.5550     0.24329E+01 
  67169.8171     0.24716E+01 
  67202.0793     0.25107E+01 
  67234.3414     0.25503E+01 
  67266.6036     0.25904E+01 
  67298.8658     0.26309E+01 
  67331.1279     0.26720E+01 
  67363.3901     0.27135E+01 
  67395.6522     0.27555E+01 
  67427.9144     0.27979E+01 
  67460.1766     0.28409E+01 
  67492.4387     0.28844E+01 
  67524.7009     0.29283E+01 
  67556.9630     0.29728E+01 
  67589.2252     0.30177E+01 
  67621.4874     0.30632E+01 
  67653.7495     0.31092E+01 
  67686.0117     0.31557E+01 
  67718.2738     0.32027E+01 
  67750.5360     0.32502E+01 
  67782.7982     0.32983E+01 
  67815.0603     0.33469E+01 
  67847.3225     0.33960E+01 
  67879.5846     0.34457E+01 
  67911.8468     0.34959E+01 
  67944.1090     0.35466E+01 
  67976.3711     0.35979E+01 
  68008.6333     0.36498E+01 
  68040.8954     0.37022E+01 
  68073.1576     0.37551E+01 
  68105.4198     0.38086E+01 
  68137.6819     0.38627E+01 
  68169.9441     0.39174E+01 
  68202.2062     0.39726E+01 
  68234.4684     0.40284E+01 
  68266.7306     0.40848E+01 
  68298.9927     0.41418E+01 
  68331.2549     0.41993E+01 
  68363.5170     0.42575E+01 
  68395.7792     0.43162E+01 
  68428.0414     0.43756E+01 
  68460.3035     0.44355E+01 
  68492.5657     0.44961E+01 
  68524.8278     0.45572E+01 
  68557.0900     0.46190E+01 
  68589.3522     0.46814E+01 
  68621.6143     0.47444E+01 
  68653.8765     0.48080E+01 
  68686.1386     0.48723E+01 
  68718.4008     0.49372E+01 
  68750.6630     0.50027E+01 
  68782.9251     0.50689E+01 
  68815.1873     0.51357E+01 
  68847.4494     0.52031E+01 
  68879.7116     0.52712E+01 
  68911.9738     0.53400E+01 
  68944.2359     0.54094E+01 
  68976.4981     0.54794E+01 
  69008.7602     0.55501E+01 
  69041.0224     0.56215E+01 
  69073.2846     0.56936E+01 
  69105.5467     0.57663E+01 
  69137.8089     0.58397E+01 
  69170.0710     0.59138E+01 
  69202.3332     0.59885E+01 
  69234.5954     0.60640E+01 
  69266.8575     0.61401E+01 
  69299.1197     0.62170E+01 
  69331.3818     0.62945E+01 
  69363.6440     0.63727E+01 
  69395.9062     0.64516E+01 
  69428.1683     0.65312E+01 
  69460.4305     0.66116E+01 
  69492.6926     0.66926E+01 
  69524.9548     0.67744E+01 
  69557.2170     0.68569E+01 
  69589.4791     0.69401E+01 
  69621.7413     0.70240E+01 
  69654.0034     0.71086E+01 
  69686.2656     0.71940E+01 
  69718.5278     0.72801E+01 
  69750.7899     0.73670E+01 
  69783.0521     0.74545E+01 
  69815.3142     0.75429E+01 
  69847.5764     0.76319E+01 
  69879.8386     0.77218E+01 
  69912.1007     0.78123E+01 
  69944.3629     0.79036E+01 
  69976.6250     0.79957E+01 
  70008.8872     0.80886E+01 
  70041.1494     0.81822E+01 
  70073.4115     0.82765E+01 
  70105.6737     0.83716E+01 
  70137.9358     0.84675E+01 
  70170.1980     0.85642E+01 
  70202.4602     0.86617E+01 
  70234.7223     0.87599E+01 
  70266.9845     0.88589E+01 
  70299.2466     0.89587E+01 
  70331.5088     0.90592E+01 
  70363.7710     0.91606E+01 
  70396.0331     0.92627E+01 
  70428.2953     0.93657E+01 
  70460.5574     0.94694E+01 
  70492.8196     0.95739E+01 
  70525.0818     0.96792E+01 
  70557.3439     0.97854E+01 
  70589.6061     0.98923E+01 
  70621.8682     0.10000E+02 
  70654.1304     0.10109E+02 
  70686.3926     0.10218E+02 
  70718.6547     0.10328E+02 
  70750.9169     0.10439E+02 
  70783.1790     0.10551E+02 
  70815.4412     0.10663E+02 
  70847.7034     0.10777E+02 
  70879.9655     0.10891E+02 
  70912.2277     0.11006E+02 
  70944.4898     0.11122E+02 
  70976.7520     0.11239E+02 
  71009.0142     0.11356E+02 
  71041.2763     0.11475E+02 
  71073.5385     0.11594E+02 
  71105.8006     0.11714E+02 
  71138.0628     0.11835E+02 
  71170.3250     0.11956E+02 
  71202.5871     0.12079E+02 
  71234.8493     0.12202E+02 
  71267.1114     0.12326E+02 
  71299.3736     0.12452E+02 
  71331.6358     0.12577E+02 
  71363.8979     0.12704E+02 
  71396.1601     0.12832E+02 
  71428.4222     0.12960E+02 
  71460.6844     0.13089E+02 
  71492.9466     0.13219E+02 
  71525.2087     0.13350E+02 
  71557.4709     0.13482E+02 
  71589.7330     0.13615E+02 
  71621.9952     0.13748E+02 
  71654.2574     0.13883E+02 
  71686.5195     0.14018E+02 
  71718.7817     0.14154E+02 
  71751.0438     0.14291E+02 
  71783.3060     0.14428E+02 
  71815.5682     0.14567E+02 
  71847.8303     0.14706E+02 
  71880.0925     0.14847E+02 
  71912.3546     0.14988E+02 
  71944.6168     0.15130E+02 
  71976.8790     0.15272E+02 
  72009.1411     0.15416E+02 
  72041.4033     0.15561E+02 
  72073.6654     0.15706E+02 
  72105.9276     0.15852E+02 
  72138.1898     0.15999E+02 
  72170.4519     0.16147E+02 
  72202.7141     0.16296E+02 
  72234.9762     0.16446E+02 
  72267.2384     0.16596E+02 
  72299.5006     0.16747E+02 
  72331.7627     0.16899E+02 
  72364.0249     0.17052E+02 
  72396.2870     0.17206E+02 
  72428.5492     0.17361E+02 
  72460.8114     0.17516E+02 
  72493.0735     0.17673E+02 
  72525.3357     0.17830E+02 
  72557.5978     0.17988E+02 
  72589.8600     0.18147E+02 
