  32262.1600     0.55971E-01 
  32294.4222     0.56446E-01 
  32326.6843     0.56924E-01 
  32358.9465     0.57405E-01 
  32391.2086     0.57888E-01 
  32423.4708     0.58373E-01 
  32455.7330     0.58861E-01 
  32487.9951     0.59351E-01 
  32520.2573     0.59844E-01 
  32552.5194     0.60339E-01 
  32584.7816     0.60837E-01 
  32617.0438     0.61336E-01 
  32649.3059     0.61839E-01 
  32681.5681     0.62344E-01 
  32713.8302     0.62851E-01 
  32746.0924     0.63360E-01 
  32778.3546     0.63872E-01 
  32810.6167     0.64387E-01 
  32842.8789     0.64904E-01 
  32875.1410     0.65423E-01 
  32907.4032     0.65944E-01 
  32939.6654     0.66468E-01 
  32971.9275     0.66994E-01 
  33004.1897     0.67523E-01 
  33036.4518     0.68054E-01 
  33068.7140     0.68587E-01 
  33100.9762     0.69123E-01 
  33133.2383     0.69661E-01 
  33165.5005     0.70201E-01 
  33197.7626     0.70744E-01 
  33230.0248     0.71288E-01 
  33262.2870     0.71836E-01 
  33294.5491     0.72385E-01 
  33326.8113     0.72937E-01 
  33359.0734     0.73491E-01 
  33391.3356     0.74047E-01 
  33423.5978     0.74605E-01 
  33455.8599     0.75166E-01 
  33488.1221     0.75729E-01 
  33520.3842     0.76294E-01 
  33552.6464     0.76862E-01 
  33584.9086     0.77431E-01 
  33617.1707     0.78003E-01 
  33649.4329     0.78577E-01 
  33681.6950     0.79153E-01 
  33713.9572     0.79731E-01 
  33746.2194     0.80312E-01 
  33778.4815     0.80894E-01 
  33810.7437     0.81479E-01 
  33843.0058     0.82066E-01 
  33875.2680     0.82655E-01 
  33907.5302     0.83246E-01 
  33939.7923     0.83839E-01 
  33972.0545     0.84434E-01 
  34004.3166     0.85031E-01 
  34036.5788     0.85630E-01 
  34068.8410     0.86231E-01 
  34101.1031     0.86835E-01 
  34133.3653     0.87440E-01 
  34165.6274     0.88047E-01 
  34197.8896     0.88656E-01 
  34230.1518     0.89267E-01 
  34262.4139     0.89880E-01 
  34294.6761     0.90495E-01 
  34326.9382     0.91112E-01 
  34359.2004     0.91731E-01 
  34391.4626     0.92352E-01 
  34423.7247     0.92974E-01 
  34455.9869     0.93599E-01 
  34488.2490     0.94225E-01 
  34520.5112     0.94853E-01 
  34552.7734     0.95483E-01 
  34585.0355     0.96115E-01 
  34617.2977     0.96748E-01 
  34649.5598     0.97383E-01 
  34681.8220     0.98020E-01 
  34714.0842     0.98659E-01 
  34746.3463     0.99299E-01 
  34778.6085     0.99941E-01 
  34810.8706     0.10058E+00 
  34843.1328     0.10123E+00 
  34875.3950     0.10188E+00 
  34907.6571     0.10253E+00 
  34939.9193     0.10318E+00 
  34972.1814     0.10383E+00 
  35004.4436     0.10448E+00 
  35036.7058     0.10514E+00 
  35068.9679     0.10579E+00 
  35101.2301     0.10645E+00 
  35133.4922     0.10711E+00 
  35165.7544     0.10777E+00 
  35198.0166     0.10843E+00 
  35230.2787     0.10910E+00 
  35262.5409     0.10976E+00 
  35294.8030     0.11043E+00 
  35327.0652     0.11110E+00 
  35359.3274     0.11177E+00 
  35391.5895     0.11244E+00 
  35423.8517     0.11311E+00 
  35456.1138     0.11378E+00 
  35488.3760     0.11446E+00 
  35520.6382     0.11513E+00 
  35552.9003     0.11581E+00 
  35585.1625     0.11649E+00 
  35617.4246     0.11717E+00 
  35649.6868     0.11785E+00 
  35681.9490     0.11853E+00 
  35714.2111     0.11921E+00 
  35746.4733     0.11989E+00 
  35778.7354     0.12058E+00 
  35810.9976     0.12127E+00 
  35843.2598     0.12195E+00 
  35875.5219     0.12264E+00 
  35907.7841     0.12333E+00 
  35940.0462     0.12402E+00 
  35972.3084     0.12471E+00 
  36004.5706     0.12540E+00 
  36036.8327     0.12609E+00 
  36069.0949     0.12679E+00 
  36101.3570     0.12748E+00 
  36133.6192     0.12818E+00 
  36165.8814     0.12887E+00 
  36198.1435     0.12957E+00 
  36230.4057     0.13027E+00 
  36262.6678     0.13097E+00 
  36294.9300     0.13166E+00 
  36327.1922     0.13236E+00 
  36359.4543     0.13306E+00 
  36391.7165     0.13376E+00 
  36423.9786     0.13447E+00 
  36456.2408     0.13517E+00 
  36488.5030     0.13587E+00 
  36520.7651     0.13657E+00 
  36553.0273     0.13728E+00 
  36585.2894     0.13798E+00 
  36617.5516     0.13868E+00 
  36649.8138     0.13939E+00 
  36682.0759     0.14009E+00 
  36714.3381     0.14080E+00 
  36746.6002     0.14151E+00 
  36778.8624     0.14221E+00 
  36811.1246     0.14292E+00 
  36843.3867     0.14363E+00 
  36875.6489     0.14433E+00 
  36907.9110     0.14504E+00 
  36940.1732     0.14575E+00 
  36972.4354     0.14645E+00 
  37004.6975     0.14716E+00 
  37036.9597     0.14787E+00 
  37069.2218     0.14858E+00 
  37101.4840     0.14928E+00 
  37133.7462     0.14999E+00 
  37166.0083     0.15070E+00 
  37198.2705     0.15141E+00 
  37230.5326     0.15212E+00 
  37262.7948     0.15282E+00 
  37295.0570     0.15353E+00 
  37327.3191     0.15424E+00 
  37359.5813     0.15494E+00 
  37391.8434     0.15565E+00 
  37424.1056     0.15636E+00 
  37456.3678     0.15706E+00 
  37488.6299     0.15777E+00 
  37520.8921     0.15848E+00 
  37553.1542     0.15918E+00 
  37585.4164     0.15989E+00 
  37617.6786     0.16059E+00 
  37649.9407     0.16129E+00 
  37682.2029     0.16200E+00 
  37714.4650     0.16270E+00 
  37746.7272     0.16340E+00 
  37778.9894     0.16411E+00 
  37811.2515     0.16481E+00 
  37843.5137     0.16551E+00 
  37875.7758     0.16621E+00 
  37908.0380     0.16691E+00 
  37940.3002     0.16761E+00 
  37972.5623     0.16831E+00 
  38004.8245     0.16900E+00 
  38037.0866     0.16970E+00 
  38069.3488     0.17040E+00 
  38101.6110     0.17109E+00 
  38133.8731     0.17178E+00 
  38166.1353     0.17248E+00 
  38198.3974     0.17317E+00 
  38230.6596     0.17386E+00 
  38262.9218     0.17455E+00 
  38295.1839     0.17524E+00 
  38327.4461     0.17593E+00 
  38359.7082     0.17662E+00 
  38391.9704     0.17730E+00 
  38424.2326     0.17799E+00 
  38456.4947     0.17867E+00 
  38488.7569     0.17935E+00 
  38521.0190     0.18003E+00 
  38553.2812     0.18071E+00 
  38585.5434     0.18139E+00 
  38617.8055     0.18207E+00 
  38650.0677     0.18275E+00 
  38682.3298     0.18342E+00 
  38714.5920     0.18409E+00 
  38746.8542     0.18477E+00 
  38779.1163     0.18544E+00 
  38811.3785     0.18611E+00 
  38843.6406     0.18677E+00 
  38875.9028     0.18744E+00 
  38908.1650     0.18810E+00 
  38940.4271     0.18877E+00 
  38972.6893     0.18943E+00 
  39004.9514     0.19009E+00 
  39037.2136     0.19074E+00 
  39069.4758     0.19140E+00 
  39101.7379     0.19206E+00 
  39134.0001     0.19271E+00 
  39166.2622     0.19336E+00 
  39198.5244     0.19401E+00 
  39230.7866     0.19465E+00 
  39263.0487     0.19530E+00 
  39295.3109     0.19594E+00 
  39327.5730     0.19658E+00 
  39359.8352     0.19722E+00 
  39392.0974     0.19786E+00 
  39424.3595     0.19850E+00 
  39456.6217     0.19913E+00 
  39488.8838     0.19976E+00 
  39521.1460     0.20039E+00 
  39553.4082     0.20102E+00 
  39585.6703     0.20164E+00 
  39617.9325     0.20226E+00 
  39650.1946     0.20288E+00 
  39682.4568     0.20350E+00 
  39714.7190     0.20412E+00 
  39746.9811     0.20473E+00 
  39779.2433     0.20534E+00 
  39811.5054     0.20595E+00 
  39843.7676     0.20656E+00 
  39876.0298     0.20716E+00 
  39908.2919     0.20776E+00 
  39940.5541     0.20836E+00 
  39972.8162     0.20896E+00 
  40005.0784     0.20955E+00 
  40037.3406     0.21014E+00 
  40069.6027     0.21073E+00 
  40101.8649     0.21132E+00 
  40134.1270     0.21190E+00 
  40166.3892     0.21248E+00 
  40198.6514     0.21306E+00 
  40230.9135     0.21364E+00 
  40263.1757     0.21421E+00 
  40295.4378     0.21478E+00 
  40327.7000     0.21535E+00 
  40359.9622     0.21591E+00 
  40392.2243     0.21647E+00 
  40424.4865     0.21703E+00 
  40456.7486     0.21759E+00 
  40489.0108     0.21814E+00 
  40521.2730     0.21869E+00 
  40553.5351     0.21924E+00 
  40585.7973     0.21978E+00 
  40618.0594     0.22032E+00 
  40650.3216     0.22086E+00 
  40682.5838     0.22140E+00 
  40714.8459     0.22193E+00 
  40747.1081     0.22246E+00 
  40779.3702     0.22298E+00 
  40811.6324     0.22351E+00 
  40843.8946     0.22403E+00 
  40876.1567     0.22454E+00 
  40908.4189     0.22505E+00 
  40940.6810     0.22556E+00 
  40972.9432     0.22607E+00 
  41005.2054     0.22657E+00 
  41037.4675     0.22707E+00 
  41069.7297     0.22757E+00 
  41101.9918     0.22806E+00 
  41134.2540     0.22855E+00 
  41166.5162     0.22904E+00 
  41198.7783     0.22952E+00 
  41231.0405     0.23000E+00 
  41263.3026     0.23048E+00 
  41295.5648     0.23095E+00 
  41327.8270     0.23142E+00 
  41360.0891     0.23188E+00 
  41392.3513     0.23235E+00 
  41424.6134     0.23280E+00 
  41456.8756     0.23326E+00 
  41489.1378     0.23371E+00 
  41521.3999     0.23416E+00 
  41553.6621     0.23460E+00 
  41585.9242     0.23504E+00 
  41618.1864     0.23548E+00 
  41650.4486     0.23591E+00 
  41682.7107     0.23634E+00 
  41714.9729     0.23676E+00 
  41747.2350     0.23719E+00 
  41779.4972     0.23760E+00 
  41811.7594     0.23802E+00 
  41844.0215     0.23843E+00 
  41876.2837     0.23883E+00 
  41908.5458     0.23924E+00 
  41940.8080     0.23963E+00 
  41973.0702     0.24003E+00 
  42005.3323     0.24042E+00 
  42037.5945     0.24081E+00 
  42069.8566     0.24119E+00 
  42102.1188     0.24157E+00 
  42134.3810     0.24194E+00 
  42166.6431     0.24231E+00 
  42198.9053     0.24268E+00 
  42231.1674     0.24304E+00 
  42263.4296     0.24340E+00 
  42295.6918     0.24376E+00 
  42327.9539     0.24411E+00 
  42360.2161     0.24446E+00 
  42392.4782     0.24480E+00 
  42424.7404     0.24514E+00 
  42457.0026     0.24547E+00 
  42489.2647     0.24580E+00 
  42521.5269     0.24613E+00 
  42553.7890     0.24645E+00 
  42586.0512     0.24677E+00 
  42618.3134     0.24708E+00 
  42650.5755     0.24739E+00 
  42682.8377     0.24769E+00 
  42715.0998     0.24799E+00 
  42747.3620     0.24829E+00 
  42779.6242     0.24858E+00 
  42811.8863     0.24887E+00 
  42844.1485     0.24916E+00 
  42876.4106     0.24944E+00 
  42908.6728     0.24971E+00 
  42940.9350     0.24998E+00 
  42973.1971     0.25025E+00 
  43005.4593     0.25051E+00 
  43037.7214     0.25077E+00 
  43069.9836     0.25102E+00 
  43102.2458     0.25127E+00 
  43134.5079     0.25152E+00 
  43166.7701     0.25176E+00 
  43199.0322     0.25199E+00 
  43231.2944     0.25222E+00 
  43263.5566     0.25245E+00 
  43295.8187     0.25267E+00 
  43328.0809     0.25289E+00 
  43360.3430     0.25311E+00 
  43392.6052     0.25332E+00 
  43424.8674     0.25352E+00 
  43457.1295     0.25372E+00 
  43489.3917     0.25392E+00 
  43521.6538     0.25411E+00 
  43553.9160     0.25430E+00 
  43586.1782     0.25448E+00 
  43618.4403     0.25466E+00 
  43650.7025     0.25483E+00 
  43682.9646     0.25500E+00 
  43715.2268     0.25516E+00 
  43747.4890     0.25532E+00 
  43779.7511     0.25548E+00 
  43812.0133     0.25563E+00 
  43844.2754     0.25578E+00 
  43876.5376     0.25592E+00 
  43908.7998     0.25606E+00 
  43941.0619     0.25619E+00 
  43973.3241     0.25632E+00 
  44005.5862     0.25644E+00 
  44037.8484     0.25656E+00 
  44070.1106     0.25668E+00 
  44102.3727     0.25679E+00 
  44134.6349     0.25689E+00 
  44166.8970     0.25699E+00 
  44199.1592     0.25709E+00 
  44231.4214     0.25718E+00 
  44263.6835     0.25727E+00 
  44295.9457     0.25735E+00 
  44328.2078     0.25743E+00 
  44360.4700     0.25751E+00 
  44392.7322     0.25757E+00 
  44424.9943     0.25764E+00 
  44457.2565     0.25770E+00 
  44489.5186     0.25776E+00 
  44521.7808     0.25781E+00 
  44554.0430     0.25785E+00 
  44586.3051     0.25789E+00 
  44618.5673     0.25793E+00 
  44650.8294     0.25796E+00 
  44683.0916     0.25799E+00 
  44715.3538     0.25802E+00 
  44747.6159     0.25803E+00 
  44779.8781     0.25805E+00 
  44812.1402     0.25806E+00 
  44844.4024     0.25806E+00 
  44876.6646     0.25807E+00 
  44908.9267     0.25806E+00 
  44941.1889     0.25805E+00 
  44973.4510     0.25804E+00 
  45005.7132     0.25802E+00 
  45037.9754     0.25800E+00 
  45070.2375     0.25797E+00 
  45102.4997     0.25794E+00 
  45134.7618     0.25791E+00 
  45167.0240     0.25787E+00 
  45199.2862     0.25782E+00 
  45231.5483     0.25777E+00 
  45263.8105     0.25772E+00 
  45296.0726     0.25766E+00 
  45328.3348     0.25760E+00 
  45360.5970     0.25753E+00 
  45392.8591     0.25746E+00 
  45425.1213     0.25739E+00 
  45457.3834     0.25731E+00 
  45489.6456     0.25722E+00 
  45521.9078     0.25713E+00 
  45554.1699     0.25704E+00 
  45586.4321     0.25694E+00 
  45618.6942     0.25684E+00 
  45650.9564     0.25673E+00 
  45683.2186     0.25662E+00 
  45715.4807     0.25650E+00 
  45747.7429     0.25638E+00 
  45780.0050     0.25626E+00 
  45812.2672     0.25613E+00 
  45844.5294     0.25600E+00 
  45876.7915     0.25586E+00 
  45909.0537     0.25572E+00 
  45941.3158     0.25557E+00 
  45973.5780     0.25542E+00 
  46005.8402     0.25526E+00 
  46038.1023     0.25510E+00 
  46070.3645     0.25494E+00 
  46102.6266     0.25477E+00 
  46134.8888     0.25460E+00 
  46167.1510     0.25442E+00 
  46199.4131     0.25424E+00 
  46231.6753     0.25406E+00 
  46263.9374     0.25387E+00 
  46296.1996     0.25368E+00 
  46328.4618     0.25348E+00 
  46360.7239     0.25328E+00 
  46392.9861     0.25307E+00 
  46425.2482     0.25286E+00 
  46457.5104     0.25264E+00 
  46489.7726     0.25243E+00 
  46522.0347     0.25220E+00 
  46554.2969     0.25198E+00 
  46586.5590     0.25175E+00 
  46618.8212     0.25151E+00 
  46651.0834     0.25127E+00 
  46683.3455     0.25103E+00 
  46715.6077     0.25078E+00 
  46747.8698     0.25053E+00 
  46780.1320     0.25027E+00 
  46812.3942     0.25001E+00 
  46844.6563     0.24975E+00 
  46876.9185     0.24948E+00 
  46909.1806     0.24921E+00 
  46941.4428     0.24894E+00 
  46973.7050     0.24866E+00 
  47005.9671     0.24837E+00 
  47038.2293     0.24809E+00 
  47070.4914     0.24780E+00 
  47102.7536     0.24750E+00 
  47135.0158     0.24720E+00 
  47167.2779     0.24690E+00 
  47199.5401     0.24659E+00 
  47231.8022     0.24628E+00 
  47264.0644     0.24597E+00 
  47296.3266     0.24565E+00 
  47328.5887     0.24533E+00 
  47360.8509     0.24500E+00 
  47393.1130     0.24467E+00 
  47425.3752     0.24434E+00 
  47457.6374     0.24400E+00 
  47489.8995     0.24366E+00 
  47522.1617     0.24332E+00 
  47554.4238     0.24297E+00 
  47586.6860     0.24262E+00 
  47618.9482     0.24226E+00 
  47651.2103     0.24191E+00 
  47683.4725     0.24154E+00 
  47715.7346     0.24118E+00 
  47747.9968     0.24081E+00 
  47780.2590     0.24044E+00 
  47812.5211     0.24006E+00 
  47844.7833     0.23968E+00 
  47877.0454     0.23930E+00 
  47909.3076     0.23891E+00 
  47941.5698     0.23852E+00 
  47973.8319     0.23813E+00 
  48006.0941     0.23773E+00 
  48038.3562     0.23733E+00 
  48070.6184     0.23692E+00 
  48102.8806     0.23652E+00 
  48135.1427     0.23611E+00 
  48167.4049     0.23569E+00 
  48199.6670     0.23528E+00 
  48231.9292     0.23486E+00 
  48264.1914     0.23443E+00 
  48296.4535     0.23401E+00 
  48328.7157     0.23358E+00 
  48360.9778     0.23314E+00 
  48393.2400     0.23271E+00 
  48425.5022     0.23227E+00 
  48457.7643     0.23182E+00 
  48490.0265     0.23138E+00 
  48522.2886     0.23093E+00 
  48554.5508     0.23048E+00 
  48586.8130     0.23002E+00 
  48619.0751     0.22956E+00 
  48651.3373     0.22910E+00 
  48683.5994     0.22864E+00 
  48715.8616     0.22817E+00 
  48748.1238     0.22770E+00 
  48780.3859     0.22723E+00 
  48812.6481     0.22675E+00 
  48844.9102     0.22628E+00 
  48877.1724     0.22579E+00 
  48909.4346     0.22531E+00 
  48941.6967     0.22482E+00 
  48973.9589     0.22433E+00 
  49006.2210     0.22384E+00 
  49038.4832     0.22335E+00 
  49070.7454     0.22285E+00 
  49103.0075     0.22235E+00 
  49135.2697     0.22184E+00 
  49167.5318     0.22134E+00 
  49199.7940     0.22083E+00 
  49232.0562     0.22032E+00 
  49264.3183     0.21980E+00 
  49296.5805     0.21929E+00 
  49328.8426     0.21877E+00 
  49361.1048     0.21825E+00 
  49393.3670     0.21772E+00 
  49425.6291     0.21719E+00 
  49457.8913     0.21666E+00 
  49490.1534     0.21613E+00 
  49522.4156     0.21560E+00 
  49554.6778     0.21506E+00 
  49586.9399     0.21452E+00 
  49619.2021     0.21398E+00 
  49651.4642     0.21344E+00 
  49683.7264     0.21289E+00 
  49715.9886     0.21234E+00 
  49748.2507     0.21179E+00 
  49780.5129     0.21124E+00 
  49812.7750     0.21069E+00 
  49845.0372     0.21013E+00 
  49877.2994     0.20957E+00 
  49909.5615     0.20901E+00 
  49941.8237     0.20845E+00 
  49974.0858     0.20788E+00 
  50006.3480     0.20731E+00 
  50038.6102     0.20674E+00 
  50070.8723     0.20617E+00 
  50103.1345     0.20560E+00 
  50135.3966     0.20502E+00 
  50167.6588     0.20444E+00 
  50199.9210     0.20386E+00 
  50232.1831     0.20328E+00 
  50264.4453     0.20270E+00 
  50296.7074     0.20211E+00 
  50328.9696     0.20152E+00 
  50361.2318     0.20093E+00 
  50393.4939     0.20034E+00 
  50425.7561     0.19975E+00 
  50458.0182     0.19915E+00 
  50490.2804     0.19856E+00 
  50522.5426     0.19796E+00 
  50554.8047     0.19736E+00 
  50587.0669     0.19676E+00 
  50619.3290     0.19615E+00 
  50651.5912     0.19555E+00 
  50683.8534     0.19494E+00 
  50716.1155     0.19433E+00 
  50748.3777     0.19372E+00 
  50780.6398     0.19311E+00 
  50812.9020     0.19250E+00 
  50845.1642     0.19188E+00 
  50877.4263     0.19127E+00 
  50909.6885     0.19065E+00 
  50941.9506     0.19003E+00 
  50974.2128     0.18941E+00 
  51006.4750     0.18879E+00 
  51038.7371     0.18817E+00 
  51070.9993     0.18754E+00 
  51103.2614     0.18692E+00 
  51135.5236     0.18629E+00 
  51167.7858     0.18566E+00 
  51200.0479     0.18503E+00 
  51232.3101     0.18440E+00 
  51264.5722     0.18377E+00 
  51296.8344     0.18313E+00 
  51329.0966     0.18250E+00 
  51361.3587     0.18186E+00 
  51393.6209     0.18123E+00 
  51425.8830     0.18059E+00 
  51458.1452     0.17995E+00 
  51490.4074     0.17931E+00 
  51522.6695     0.17867E+00 
  51554.9317     0.17803E+00 
  51587.1938     0.17738E+00 
  51619.4560     0.17674E+00 
  51651.7182     0.17609E+00 
  51683.9803     0.17545E+00 
  51716.2425     0.17480E+00 
  51748.5046     0.17415E+00 
  51780.7668     0.17350E+00 
  51813.0290     0.17285E+00 
  51845.2911     0.17220E+00 
  51877.5533     0.17155E+00 
  51909.8154     0.17090E+00 
  51942.0776     0.17025E+00 
  51974.3398     0.16959E+00 
  52006.6019     0.16894E+00 
  52038.8641     0.16828E+00 
  52071.1262     0.16763E+00 
  52103.3884     0.16697E+00 
  52135.6506     0.16631E+00 
  52167.9127     0.16565E+00 
  52200.1749     0.16500E+00 
  52232.4370     0.16434E+00 
  52264.6992     0.16368E+00 
  52296.9614     0.16302E+00 
  52329.2235     0.16235E+00 
  52361.4857     0.16169E+00 
  52393.7478     0.16103E+00 
  52426.0100     0.16037E+00 
  52458.2722     0.15971E+00 
  52490.5343     0.15904E+00 
  52522.7965     0.15838E+00 
  52555.0586     0.15772E+00 
  52587.3208     0.15705E+00 
  52619.5830     0.15639E+00 
  52651.8451     0.15572E+00 
  52684.1073     0.15506E+00 
  52716.3694     0.15439E+00 
  52748.6316     0.15372E+00 
  52780.8938     0.15306E+00 
  52813.1559     0.15239E+00 
  52845.4181     0.15172E+00 
  52877.6802     0.15106E+00 
  52909.9424     0.15039E+00 
  52942.2046     0.14972E+00 
  52974.4667     0.14905E+00 
  53006.7289     0.14839E+00 
  53038.9910     0.14772E+00 
  53071.2532     0.14705E+00 
  53103.5154     0.14638E+00 
  53135.7775     0.14572E+00 
  53168.0397     0.14505E+00 
  53200.3018     0.14438E+00 
  53232.5640     0.14371E+00 
  53264.8262     0.14304E+00 
  53297.0883     0.14238E+00 
  53329.3505     0.14171E+00 
  53361.6126     0.14104E+00 
  53393.8748     0.14037E+00 
  53426.1370     0.13971E+00 
  53458.3991     0.13904E+00 
  53490.6613     0.13837E+00 
  53522.9234     0.13770E+00 
  53555.1856     0.13704E+00 
  53587.4478     0.13637E+00 
  53619.7099     0.13570E+00 
  53651.9721     0.13504E+00 
  53684.2342     0.13437E+00 
  53716.4964     0.13371E+00 
  53748.7586     0.13304E+00 
  53781.0207     0.13238E+00 
  53813.2829     0.13171E+00 
  53845.5450     0.13105E+00 
  53877.8072     0.13038E+00 
  53910.0694     0.12972E+00 
  53942.3315     0.12906E+00 
  53974.5937     0.12839E+00 
  54006.8558     0.12773E+00 
  54039.1180     0.12707E+00 
  54071.3802     0.12641E+00 
  54103.6423     0.12575E+00 
  54135.9045     0.12509E+00 
  54168.1666     0.12443E+00 
  54200.4288     0.12377E+00 
  54232.6910     0.12311E+00 
  54264.9531     0.12245E+00 
  54297.2153     0.12179E+00 
  54329.4774     0.12113E+00 
  54361.7396     0.12048E+00 
  54394.0018     0.11982E+00 
  54426.2639     0.11917E+00 
  54458.5261     0.11851E+00 
  54490.7882     0.11786E+00 
  54523.0504     0.11721E+00 
  54555.3126     0.11655E+00 
  54587.5747     0.11590E+00 
  54619.8369     0.11525E+00 
  54652.0990     0.11460E+00 
  54684.3612     0.11395E+00 
  54716.6234     0.11330E+00 
  54748.8855     0.11265E+00 
  54781.1477     0.11201E+00 
  54813.4098     0.11136E+00 
  54845.6720     0.11072E+00 
  54877.9342     0.11007E+00 
  54910.1963     0.10943E+00 
  54942.4585     0.10879E+00 
  54974.7206     0.10814E+00 
  55006.9828     0.10750E+00 
  55039.2450     0.10686E+00 
  55071.5071     0.10622E+00 
  55103.7693     0.10559E+00 
  55136.0314     0.10495E+00 
  55168.2936     0.10431E+00 
  55200.5558     0.10368E+00 
  55232.8179     0.10305E+00 
  55265.0801     0.10241E+00 
  55297.3422     0.10178E+00 
  55329.6044     0.10115E+00 
  55361.8666     0.10052E+00 
  55394.1287     0.99893E-01 
  55426.3909     0.99266E-01 
  55458.6530     0.98640E-01 
  55490.9152     0.98015E-01 
  55523.1774     0.97391E-01 
  55555.4395     0.96769E-01 
  55587.7017     0.96147E-01 
  55619.9638     0.95527E-01 
  55652.2260     0.94908E-01 
  55684.4882     0.94291E-01 
  55716.7503     0.93675E-01 
  55749.0125     0.93060E-01 
  55781.2746     0.92446E-01 
  55813.5368     0.91834E-01 
  55845.7990     0.91223E-01 
  55878.0611     0.90613E-01 
  55910.3233     0.90005E-01 
  55942.5854     0.89398E-01 
  55974.8476     0.88792E-01 
  56007.1098     0.88188E-01 
  56039.3719     0.87585E-01 
  56071.6341     0.86984E-01 
  56103.8962     0.86384E-01 
  56136.1584     0.85786E-01 
  56168.4206     0.85189E-01 
  56200.6827     0.84594E-01 
  56232.9449     0.84000E-01 
  56265.2070     0.83408E-01 
  56297.4692     0.82817E-01 
  56329.7314     0.82228E-01 
  56361.9935     0.81640E-01 
  56394.2557     0.81054E-01 
  56426.5178     0.80470E-01 
  56458.7800     0.79887E-01 
  56491.0422     0.79306E-01 
  56523.3043     0.78727E-01 
  56555.5665     0.78149E-01 
  56587.8286     0.77573E-01 
  56620.0908     0.76998E-01 
  56652.3530     0.76426E-01 
  56684.6151     0.75855E-01 
  56716.8773     0.75285E-01 
  56749.1394     0.74718E-01 
  56781.4016     0.74152E-01 
  56813.6638     0.73588E-01 
  56845.9259     0.73026E-01 
  56878.1881     0.72466E-01 
  56910.4502     0.71908E-01 
  56942.7124     0.71351E-01 
  56974.9746     0.70797E-01 
  57007.2367     0.70244E-01 
  57039.4989     0.69693E-01 
  57071.7610     0.69144E-01 
  57104.0232     0.68597E-01 
  57136.2854     0.68052E-01 
  57168.5475     0.67509E-01 
  57200.8097     0.66968E-01 
  57233.0718     0.66429E-01 
  57265.3340     0.65892E-01 
  57297.5962     0.65358E-01 
  57329.8583     0.64825E-01 
  57362.1205     0.64294E-01 
  57394.3826     0.63765E-01 
  57426.6448     0.63239E-01 
  57458.9070     0.62714E-01 
  57491.1691     0.62192E-01 
  57523.4313     0.61672E-01 
  57555.6934     0.61154E-01 
  57587.9556     0.60638E-01 
  57620.2178     0.60125E-01 
  57652.4799     0.59614E-01 
  57684.7421     0.59105E-01 
  57717.0042     0.58598E-01 
  57749.2664     0.58094E-01 
  57781.5286     0.57592E-01 
  57813.7907     0.57092E-01 
  57846.0529     0.56595E-01 
  57878.3150     0.56100E-01 
  57910.5772     0.55607E-01 
  57942.8394     0.55117E-01 
  57975.1015     0.54630E-01 
  58007.3637     0.54144E-01 
  58039.6258     0.53662E-01 
  58071.8880     0.53181E-01 
  58104.1502     0.52704E-01 
  58136.4123     0.52228E-01 
  58168.6745     0.51756E-01 
  58200.9366     0.51286E-01 
  58233.1988     0.50818E-01 
  58265.4610     0.50354E-01 
  58297.7231     0.49891E-01 
  58329.9853     0.49432E-01 
  58362.2474     0.48975E-01 
  58394.5096     0.48521E-01 
  58426.7718     0.48070E-01 
  58459.0339     0.47621E-01 
  58491.2961     0.47176E-01 
  58523.5582     0.46733E-01 
  58555.8204     0.46293E-01 
  58588.0826     0.45855E-01 
  58620.3447     0.45421E-01 
  58652.6069     0.44989E-01 
  58684.8690     0.44561E-01 
  58717.1312     0.44135E-01 
  58749.3934     0.43713E-01 
  58781.6555     0.43293E-01 
  58813.9177     0.42877E-01 
  58846.1798     0.42463E-01 
  58878.4420     0.42053E-01 
  58910.7042     0.41645E-01 
  58942.9663     0.41241E-01 
  58975.2285     0.40840E-01 
  59007.4906     0.40442E-01 
  59039.7528     0.40048E-01 
  59072.0150     0.39657E-01 
  59104.2771     0.39269E-01 
  59136.5393     0.38884E-01 
  59168.8014     0.38502E-01 
  59201.0636     0.38124E-01 
  59233.3258     0.37750E-01 
  59265.5879     0.37378E-01 
  59297.8501     0.37011E-01 
  59330.1122     0.36646E-01 
  59362.3744     0.36285E-01 
  59394.6366     0.35928E-01 
  59426.8987     0.35574E-01 
  59459.1609     0.35224E-01 
  59491.4230     0.34878E-01 
  59523.6852     0.34535E-01 
  59555.9474     0.34196E-01 
  59588.2095     0.33861E-01 
  59620.4717     0.33529E-01 
  59652.7338     0.33201E-01 
  59684.9960     0.32877E-01 
  59717.2582     0.32557E-01 
  59749.5203     0.32241E-01 
  59781.7825     0.31929E-01 
  59814.0446     0.31621E-01 
  59846.3068     0.31316E-01 
  59878.5690     0.31016E-01 
  59910.8311     0.30720E-01 
  59943.0933     0.30428E-01 
  59975.3554     0.30140E-01 
  60007.6176     0.29857E-01 
  60039.8798     0.29577E-01 
  60072.1419     0.29302E-01 
  60104.4041     0.29031E-01 
  60136.6662     0.28765E-01 
  60168.9284     0.28503E-01 
  60201.1906     0.28245E-01 
  60233.4527     0.27992E-01 
  60265.7149     0.27743E-01 
  60297.9770     0.27499E-01 
  60330.2392     0.27260E-01 
  60362.5014     0.27025E-01 
  60394.7635     0.26795E-01 
  60427.0257     0.26569E-01 
  60459.2878     0.26349E-01 
  60491.5500     0.26133E-01 
  60523.8122     0.25922E-01 
  60556.0743     0.25716E-01 
  60588.3365     0.25515E-01 
  60620.5986     0.25319E-01 
  60652.8608     0.25128E-01 
  60685.1230     0.24942E-01 
  60717.3851     0.24761E-01 
  60749.6473     0.24585E-01 
  60781.9094     0.24415E-01 
  60814.1716     0.24250E-01 
  60846.4338     0.24090E-01 
  60878.6959     0.23936E-01 
  60910.9581     0.23787E-01 
  60943.2202     0.23643E-01 
  60975.4824     0.23505E-01 
  61007.7446     0.23373E-01 
  61040.0067     0.23246E-01 
  61072.2689     0.23125E-01 
  61104.5310     0.23010E-01 
  61136.7932     0.22901E-01 
  61169.0554     0.22797E-01 
  61201.3175     0.22700E-01 
  61233.5797     0.22608E-01 
  61265.8418     0.22522E-01 
  61298.1040     0.22443E-01 
  61330.3662     0.22369E-01 
  61362.6283     0.22302E-01 
  61394.8905     0.22241E-01 
  61427.1526     0.22187E-01 
  61459.4148     0.22139E-01 
  61491.6770     0.22097E-01 
  61523.9391     0.22062E-01 
  61556.2013     0.22033E-01 
  61588.4634     0.22011E-01 
  61620.7256     0.21996E-01 
  61652.9878     0.21987E-01 
  61685.2499     0.21986E-01 
  61717.5121     0.21991E-01 
  61749.7742     0.22003E-01 
  61782.0364     0.22022E-01 
  61814.2986     0.22049E-01 
  61846.5607     0.22082E-01 
  61878.8229     0.22123E-01 
  61911.0850     0.22171E-01 
  61943.3472     0.22226E-01 
  61975.6094     0.22289E-01 
  62007.8715     0.22359E-01 
  62040.1337     0.22437E-01 
  62072.3958     0.22522E-01 
  62104.6580     0.22615E-01 
  62136.9202     0.22716E-01 
  62169.1823     0.22825E-01 
  62201.4445     0.22942E-01 
  62233.7066     0.23067E-01 
  62265.9688     0.23200E-01 
  62298.2310     0.23341E-01 
  62330.4931     0.23490E-01 
  62362.7553     0.23648E-01 
  62395.0174     0.23814E-01 
  62427.2796     0.23988E-01 
  62459.5418     0.24172E-01 
  62491.8039     0.24363E-01 
  62524.0661     0.24564E-01 
  62556.3282     0.24773E-01 
  62588.5904     0.24991E-01 
  62620.8526     0.25218E-01 
  62653.1147     0.25455E-01 
  62685.3769     0.25700E-01 
  62717.6390     0.25954E-01 
  62749.9012     0.26218E-01 
  62782.1634     0.26492E-01 
  62814.4255     0.26774E-01 
  62846.6877     0.27067E-01 
  62878.9498     0.27369E-01 
  62911.2120     0.27680E-01 
  62943.4742     0.28002E-01 
  62975.7363     0.28333E-01 
  63007.9985     0.28675E-01 
  63040.2606     0.29026E-01 
  63072.5228     0.29388E-01 
  63104.7850     0.29760E-01 
  63137.0471     0.30143E-01 
  63169.3093     0.30536E-01 
  63201.5714     0.30939E-01 
  63233.8336     0.31354E-01 
  63266.0958     0.31779E-01 
  63298.3579     0.32215E-01 
  63330.6201     0.32662E-01 
  63362.8822     0.33120E-01 
  63395.1444     0.33589E-01 
  63427.4066     0.34069E-01 
  63459.6687     0.34561E-01 
  63491.9309     0.35064E-01 
  63524.1930     0.35579E-01 
  63556.4552     0.36105E-01 
  63588.7174     0.36644E-01 
  63620.9795     0.37194E-01 
  63653.2417     0.37756E-01 
  63685.5038     0.38330E-01 
  63717.7660     0.38917E-01 
  63750.0282     0.39515E-01 
  63782.2903     0.40127E-01 
  63814.5525     0.40750E-01 
  63846.8146     0.41387E-01 
  63879.0768     0.42036E-01 
  63911.3390     0.42698E-01 
  63943.6011     0.43372E-01 
  63975.8633     0.44060E-01 
  64008.1254     0.44761E-01 
  64040.3876     0.45476E-01 
  64072.6498     0.46204E-01 
  64104.9119     0.46945E-01 
  64137.1741     0.47700E-01 
  64169.4362     0.48469E-01 
  64201.6984     0.49252E-01 
  64233.9606     0.50048E-01 
  64266.2227     0.50859E-01 
  64298.4849     0.51684E-01 
  64330.7470     0.52523E-01 
  64363.0092     0.53377E-01 
  64395.2714     0.54246E-01 
  64427.5335     0.55129E-01 
  64459.7957     0.56027E-01 
  64492.0578     0.56940E-01 
  64524.3200     0.57868E-01 
  64556.5822     0.58811E-01 
  64588.8443     0.59769E-01 
  64621.1065     0.60743E-01 
  64653.3686     0.61733E-01 
  64685.6308     0.62738E-01 
  64717.8930     0.63759E-01 
  64750.1551     0.64796E-01 
  64782.4173     0.65849E-01 
  64814.6794     0.66918E-01 
  64846.9416     0.68003E-01 
  64879.2038     0.69105E-01 
  64911.4659     0.70224E-01 
  64943.7281     0.71359E-01 
  64975.9902     0.72511E-01 
  65008.2524     0.73680E-01 
  65040.5146     0.74867E-01 
  65072.7767     0.76070E-01 
  65105.0389     0.77291E-01 
  65137.3010     0.78529E-01 
  65169.5632     0.79785E-01 
  65201.8254     0.81059E-01 
  65234.0875     0.82351E-01 
  65266.3497     0.83660E-01 
  65298.6118     0.84988E-01 
  65330.8740     0.86334E-01 
  65363.1362     0.87699E-01 
  65395.3983     0.89082E-01 
  65427.6605     0.90484E-01 
  65459.9226     0.91905E-01 
  65492.1848     0.93345E-01 
  65524.4470     0.94804E-01 
  65556.7091     0.96282E-01 
  65588.9713     0.97779E-01 
  65621.2334     0.99297E-01 
  65653.4956     0.10083E+00 
  65685.7578     0.10239E+00 
  65718.0199     0.10397E+00 
  65750.2821     0.10556E+00 
  65782.5442     0.10718E+00 
  65814.8064     0.10882E+00 
  65847.0686     0.11048E+00 
  65879.3307     0.11215E+00 
  65911.5929     0.11385E+00 
  65943.8550     0.11557E+00 
  65976.1172     0.11732E+00 
  66008.3794     0.11908E+00 
  66040.6415     0.12086E+00 
  66072.9037     0.12267E+00 
  66105.1658     0.12450E+00 
  66137.4280     0.12634E+00 
  66169.6902     0.12822E+00 
  66201.9523     0.13011E+00 
  66234.2145     0.13202E+00 
  66266.4766     0.13396E+00 
  66298.7388     0.13592E+00 
  66331.0010     0.13791E+00 
  66363.2631     0.13991E+00 
  66395.5253     0.14194E+00 
  66427.7874     0.14399E+00 
  66460.0496     0.14607E+00 
  66492.3118     0.14817E+00 
  66524.5739     0.15029E+00 
  66556.8361     0.15244E+00 
  66589.0982     0.15461E+00 
  66621.3604     0.15680E+00 
  66653.6226     0.15902E+00 
  66685.8847     0.16126E+00 
  66718.1469     0.16353E+00 
  66750.4090     0.16582E+00 
  66782.6712     0.16813E+00 
  66814.9334     0.17048E+00 
  66847.1955     0.17284E+00 
  66879.4577     0.17523E+00 
  66911.7198     0.17765E+00 
  66943.9820     0.18009E+00 
  66976.2442     0.18256E+00 
  67008.5063     0.18505E+00 
  67040.7685     0.18757E+00 
  67073.0306     0.19012E+00 
  67105.2928     0.19269E+00 
  67137.5550     0.19529E+00 
  67169.8171     0.19791E+00 
  67202.0793     0.20056E+00 
  67234.3414     0.20324E+00 
  67266.6036     0.20594E+00 
  67298.8658     0.20867E+00 
  67331.1279     0.21143E+00 
  67363.3901     0.21422E+00 
  67395.6522     0.21703E+00 
  67427.9144     0.21987E+00 
  67460.1766     0.22274E+00 
  67492.4387     0.22564E+00 
  67524.7009     0.22856E+00 
  67556.9630     0.23152E+00 
  67589.2252     0.23450E+00 
  67621.4874     0.23751E+00 
  67653.7495     0.24055E+00 
  67686.0117     0.24361E+00 
  67718.2738     0.24671E+00 
  67750.5360     0.24984E+00 
  67782.7982     0.25299E+00 
  67815.0603     0.25617E+00 
  67847.3225     0.25939E+00 
  67879.5846     0.26263E+00 
  67911.8468     0.26590E+00 
  67944.1090     0.26920E+00 
  67976.3711     0.27253E+00 
  68008.6333     0.27590E+00 
  68040.8954     0.27929E+00 
  68073.1576     0.28271E+00 
  68105.4198     0.28616E+00 
  68137.6819     0.28965E+00 
  68169.9441     0.29316E+00 
  68202.2062     0.29671E+00 
  68234.4684     0.30028E+00 
  68266.7306     0.30389E+00 
  68298.9927     0.30753E+00 
  68331.2549     0.31120E+00 
  68363.5170     0.31490E+00 
  68395.7792     0.31863E+00 
  68428.0414     0.32240E+00 
  68460.3035     0.32620E+00 
  68492.5657     0.33002E+00 
  68524.8278     0.33389E+00 
  68557.0900     0.33778E+00 
  68589.3522     0.34170E+00 
  68621.6143     0.34566E+00 
  68653.8765     0.34965E+00 
  68686.1386     0.35368E+00 
  68718.4008     0.35773E+00 
  68750.6630     0.36182E+00 
  68782.9251     0.36594E+00 
  68815.1873     0.37010E+00 
  68847.4494     0.37429E+00 
  68879.7116     0.37851E+00 
  68911.9738     0.38276E+00 
  68944.2359     0.38705E+00 
  68976.4981     0.39138E+00 
  69008.7602     0.39573E+00 
  69041.0224     0.40012E+00 
  69073.2846     0.40455E+00 
  69105.5467     0.40901E+00 
  69137.8089     0.41350E+00 
  69170.0710     0.41802E+00 
  69202.3332     0.42259E+00 
  69234.5954     0.42718E+00 
  69266.8575     0.43181E+00 
  69299.1197     0.43648E+00 
  69331.3818     0.44118E+00 
  69363.6440     0.44591E+00 
  69395.9062     0.45068E+00 
  69428.1683     0.45549E+00 
  69460.4305     0.46033E+00 
  69492.6926     0.46520E+00 
  69524.9548     0.47011E+00 
  69557.2170     0.47506E+00 
  69589.4791     0.48004E+00 
  69621.7413     0.48505E+00 
  69654.0034     0.49010E+00 
  69686.2656     0.49519E+00 
  69718.5278     0.50032E+00 
  69750.7899     0.50548E+00 
  69783.0521     0.51067E+00 
  69815.3142     0.51590E+00 
  69847.5764     0.52117E+00 
  69879.8386     0.52647E+00 
  69912.1007     0.53181E+00 
  69944.3629     0.53719E+00 
  69976.6250     0.54260E+00 
  70008.8872     0.54805E+00 
  70041.1494     0.55353E+00 
  70073.4115     0.55905E+00 
  70105.6737     0.56461E+00 
  70137.9358     0.57020E+00 
  70170.1980     0.57583E+00 
  70202.4602     0.58150E+00 
  70234.7223     0.58720E+00 
  70266.9845     0.59294E+00 
  70299.2466     0.59872E+00 
  70331.5088     0.60453E+00 
  70363.7710     0.61038E+00 
  70396.0331     0.61627E+00 
  70428.2953     0.62219E+00 
  70460.5574     0.62816E+00 
  70492.8196     0.63415E+00 
  70525.0818     0.64019E+00 
  70557.3439     0.64626E+00 
  70589.6061     0.65237E+00 
  70621.8682     0.65851E+00 
  70654.1304     0.66470E+00 
  70686.3926     0.67092E+00 
  70718.6547     0.67717E+00 
  70750.9169     0.68347E+00 
  70783.1790     0.68980E+00 
  70815.4412     0.69617E+00 
  70847.7034     0.70257E+00 
  70879.9655     0.70902E+00 
  70912.2277     0.71550E+00 
  70944.4898     0.72201E+00 
  70976.7520     0.72857E+00 
  71009.0142     0.73516E+00 
  71041.2763     0.74178E+00 
  71073.5385     0.74845E+00 
  71105.8006     0.75515E+00 
  71138.0628     0.76189E+00 
  71170.3250     0.76867E+00 
  71202.5871     0.77548E+00 
  71234.8493     0.78233E+00 
  71267.1114     0.78921E+00 
  71299.3736     0.79614E+00 
  71331.6358     0.80310E+00 
  71363.8979     0.81010E+00 
  71396.1601     0.81713E+00 
  71428.4222     0.82420E+00 
  71460.6844     0.83131E+00 
  71492.9466     0.83845E+00 
  71525.2087     0.84563E+00 
  71557.4709     0.85285E+00 
  71589.7330     0.86010E+00 
  71621.9952     0.86740E+00 
  71654.2574     0.87472E+00 
  71686.5195     0.88209E+00 
  71718.7817     0.88948E+00 
  71751.0438     0.89692E+00 
  71783.3060     0.90439E+00 
  71815.5682     0.91190E+00 
  71847.8303     0.91944E+00 
  71880.0925     0.92702E+00 
  71912.3546     0.93464E+00 
  71944.6168     0.94229E+00 
  71976.8790     0.94998E+00 
  72009.1411     0.95770E+00 
  72041.4033     0.96546E+00 
  72073.6654     0.97325E+00 
  72105.9276     0.98108E+00 
  72138.1898     0.98895E+00 
  72170.4519     0.99685E+00 
  72202.7141     0.10048E+01 
  72234.9762     0.10128E+01 
  72267.2384     0.10208E+01 
  72299.5006     0.10288E+01 
  72331.7627     0.10369E+01 
  72364.0249     0.10450E+01 
  72396.2870     0.10531E+01 
  72428.5492     0.10613E+01 
  72460.8114     0.10695E+01 
  72493.0735     0.10778E+01 
  72525.3357     0.10860E+01 
  72557.5978     0.10943E+01 
  72589.8600     0.11027E+01 
