  32262.1600     0.53551E+01 
  32294.4222     0.53997E+01 
  32326.6843     0.54446E+01 
  32358.9465     0.54897E+01 
  32391.2086     0.55350E+01 
  32423.4708     0.55806E+01 
  32455.7330     0.56264E+01 
  32487.9951     0.56725E+01 
  32520.2573     0.57188E+01 
  32552.5194     0.57653E+01 
  32584.7816     0.58121E+01 
  32617.0438     0.58590E+01 
  32649.3059     0.59063E+01 
  32681.5681     0.59537E+01 
  32713.8302     0.60014E+01 
  32746.0924     0.60493E+01 
  32778.3546     0.60975E+01 
  32810.6167     0.61459E+01 
  32842.8789     0.61945E+01 
  32875.1410     0.62434E+01 
  32907.4032     0.62925E+01 
  32939.6654     0.63418E+01 
  32971.9275     0.63913E+01 
  33004.1897     0.64411E+01 
  33036.4518     0.64911E+01 
  33068.7140     0.65413E+01 
  33100.9762     0.65918E+01 
  33133.2383     0.66425E+01 
  33165.5005     0.66934E+01 
  33197.7626     0.67446E+01 
  33230.0248     0.67960E+01 
  33262.2870     0.68476E+01 
  33294.5491     0.68994E+01 
  33326.8113     0.69515E+01 
  33359.0734     0.70038E+01 
  33391.3356     0.70563E+01 
  33423.5978     0.71090E+01 
  33455.8599     0.71620E+01 
  33488.1221     0.72151E+01 
  33520.3842     0.72685E+01 
  33552.6464     0.73222E+01 
  33584.9086     0.73760E+01 
  33617.1707     0.74301E+01 
  33649.4329     0.74844E+01 
  33681.6950     0.75389E+01 
  33713.9572     0.75936E+01 
  33746.2194     0.76485E+01 
  33778.4815     0.77037E+01 
  33810.7437     0.77590E+01 
  33843.0058     0.78146E+01 
  33875.2680     0.78704E+01 
  33907.5302     0.79264E+01 
  33939.7923     0.79827E+01 
  33972.0545     0.80391E+01 
  34004.3166     0.80957E+01 
  34036.5788     0.81526E+01 
  34068.8410     0.82097E+01 
  34101.1031     0.82669E+01 
  34133.3653     0.83244E+01 
  34165.6274     0.83821E+01 
  34197.8896     0.84400E+01 
  34230.1518     0.84981E+01 
  34262.4139     0.85564E+01 
  34294.6761     0.86149E+01 
  34326.9382     0.86735E+01 
  34359.2004     0.87324E+01 
  34391.4626     0.87915E+01 
  34423.7247     0.88508E+01 
  34455.9869     0.89103E+01 
  34488.2490     0.89700E+01 
  34520.5112     0.90299E+01 
  34552.7734     0.90899E+01 
  34585.0355     0.91502E+01 
  34617.2977     0.92106E+01 
  34649.5598     0.92713E+01 
  34681.8220     0.93321E+01 
  34714.0842     0.93931E+01 
  34746.3463     0.94543E+01 
  34778.6085     0.95157E+01 
  34810.8706     0.95773E+01 
  34843.1328     0.96390E+01 
  34875.3950     0.97009E+01 
  34907.6571     0.97630E+01 
  34939.9193     0.98253E+01 
  34972.1814     0.98877E+01 
  35004.4436     0.99504E+01 
  35036.7058     0.10013E+02 
  35068.9679     0.10076E+02 
  35101.2301     0.10139E+02 
  35133.4922     0.10203E+02 
  35165.7544     0.10266E+02 
  35198.0166     0.10330E+02 
  35230.2787     0.10394E+02 
  35262.5409     0.10457E+02 
  35294.8030     0.10522E+02 
  35327.0652     0.10586E+02 
  35359.3274     0.10650E+02 
  35391.5895     0.10715E+02 
  35423.8517     0.10780E+02 
  35456.1138     0.10845E+02 
  35488.3760     0.10910E+02 
  35520.6382     0.10975E+02 
  35552.9003     0.11040E+02 
  35585.1625     0.11106E+02 
  35617.4246     0.11171E+02 
  35649.6868     0.11237E+02 
  35681.9490     0.11303E+02 
  35714.2111     0.11369E+02 
  35746.4733     0.11435E+02 
  35778.7354     0.11502E+02 
  35810.9976     0.11568E+02 
  35843.2598     0.11635E+02 
  35875.5219     0.11701E+02 
  35907.7841     0.11768E+02 
  35940.0462     0.11835E+02 
  35972.3084     0.11902E+02 
  36004.5706     0.11970E+02 
  36036.8327     0.12037E+02 
  36069.0949     0.12104E+02 
  36101.3570     0.12172E+02 
  36133.6192     0.12240E+02 
  36165.8814     0.12307E+02 
  36198.1435     0.12375E+02 
  36230.4057     0.12443E+02 
  36262.6678     0.12511E+02 
  36294.9300     0.12580E+02 
  36327.1922     0.12648E+02 
  36359.4543     0.12716E+02 
  36391.7165     0.12785E+02 
  36423.9786     0.12854E+02 
  36456.2408     0.12922E+02 
  36488.5030     0.12991E+02 
  36520.7651     0.13060E+02 
  36553.0273     0.13129E+02 
  36585.2894     0.13198E+02 
  36617.5516     0.13267E+02 
  36649.8138     0.13336E+02 
  36682.0759     0.13406E+02 
  36714.3381     0.13475E+02 
  36746.6002     0.13545E+02 
  36778.8624     0.13614E+02 
  36811.1246     0.13684E+02 
  36843.3867     0.13753E+02 
  36875.6489     0.13823E+02 
  36907.9110     0.13893E+02 
  36940.1732     0.13963E+02 
  36972.4354     0.14033E+02 
  37004.6975     0.14103E+02 
  37036.9597     0.14173E+02 
  37069.2218     0.14243E+02 
  37101.4840     0.14313E+02 
  37133.7462     0.14383E+02 
  37166.0083     0.14453E+02 
  37198.2705     0.14523E+02 
  37230.5326     0.14594E+02 
  37262.7948     0.14664E+02 
  37295.0570     0.14734E+02 
  37327.3191     0.14805E+02 
  37359.5813     0.14875E+02 
  37391.8434     0.14945E+02 
  37424.1056     0.15016E+02 
  37456.3678     0.15086E+02 
  37488.6299     0.15157E+02 
  37520.8921     0.15227E+02 
  37553.1542     0.15298E+02 
  37585.4164     0.15368E+02 
  37617.6786     0.15439E+02 
  37649.9407     0.15509E+02 
  37682.2029     0.15580E+02 
  37714.4650     0.15651E+02 
  37746.7272     0.15721E+02 
  37778.9894     0.15792E+02 
  37811.2515     0.15862E+02 
  37843.5137     0.15933E+02 
  37875.7758     0.16003E+02 
  37908.0380     0.16074E+02 
  37940.3002     0.16144E+02 
  37972.5623     0.16215E+02 
  38004.8245     0.16285E+02 
  38037.0866     0.16355E+02 
  38069.3488     0.16426E+02 
  38101.6110     0.16496E+02 
  38133.8731     0.16566E+02 
  38166.1353     0.16637E+02 
  38198.3974     0.16707E+02 
  38230.6596     0.16777E+02 
  38262.9218     0.16847E+02 
  38295.1839     0.16917E+02 
  38327.4461     0.16988E+02 
  38359.7082     0.17058E+02 
  38391.9704     0.17127E+02 
  38424.2326     0.17197E+02 
  38456.4947     0.17267E+02 
  38488.7569     0.17337E+02 
  38521.0190     0.17407E+02 
  38553.2812     0.17476E+02 
  38585.5434     0.17546E+02 
  38617.8055     0.17615E+02 
  38650.0677     0.17685E+02 
  38682.3298     0.17754E+02 
  38714.5920     0.17823E+02 
  38746.8542     0.17893E+02 
  38779.1163     0.17962E+02 
  38811.3785     0.18031E+02 
  38843.6406     0.18099E+02 
  38875.9028     0.18168E+02 
  38908.1650     0.18237E+02 
  38940.4271     0.18306E+02 
  38972.6893     0.18374E+02 
  39004.9514     0.18442E+02 
  39037.2136     0.18511E+02 
  39069.4758     0.18579E+02 
  39101.7379     0.18647E+02 
  39134.0001     0.18715E+02 
  39166.2622     0.18783E+02 
  39198.5244     0.18850E+02 
  39230.7866     0.18918E+02 
  39263.0487     0.18985E+02 
  39295.3109     0.19053E+02 
  39327.5730     0.19120E+02 
  39359.8352     0.19187E+02 
  39392.0974     0.19254E+02 
  39424.3595     0.19320E+02 
  39456.6217     0.19387E+02 
  39488.8838     0.19453E+02 
  39521.1460     0.19520E+02 
  39553.4082     0.19586E+02 
  39585.6703     0.19652E+02 
  39617.9325     0.19718E+02 
  39650.1946     0.19783E+02 
  39682.4568     0.19849E+02 
  39714.7190     0.19914E+02 
  39746.9811     0.19979E+02 
  39779.2433     0.20044E+02 
  39811.5054     0.20109E+02 
  39843.7676     0.20174E+02 
  39876.0298     0.20238E+02 
  39908.2919     0.20302E+02 
  39940.5541     0.20366E+02 
  39972.8162     0.20430E+02 
  40005.0784     0.20494E+02 
  40037.3406     0.20557E+02 
  40069.6027     0.20621E+02 
  40101.8649     0.20684E+02 
  40134.1270     0.20747E+02 
  40166.3892     0.20809E+02 
  40198.6514     0.20872E+02 
  40230.9135     0.20934E+02 
  40263.1757     0.20996E+02 
  40295.4378     0.21058E+02 
  40327.7000     0.21119E+02 
  40359.9622     0.21181E+02 
  40392.2243     0.21242E+02 
  40424.4865     0.21303E+02 
  40456.7486     0.21364E+02 
  40489.0108     0.21424E+02 
  40521.2730     0.21484E+02 
  40553.5351     0.21544E+02 
  40585.7973     0.21604E+02 
  40618.0594     0.21664E+02 
  40650.3216     0.21723E+02 
  40682.5838     0.21782E+02 
  40714.8459     0.21841E+02 
  40747.1081     0.21899E+02 
  40779.3702     0.21957E+02 
  40811.6324     0.22015E+02 
  40843.8946     0.22073E+02 
  40876.1567     0.22131E+02 
  40908.4189     0.22188E+02 
  40940.6810     0.22245E+02 
  40972.9432     0.22301E+02 
  41005.2054     0.22358E+02 
  41037.4675     0.22414E+02 
  41069.7297     0.22470E+02 
  41101.9918     0.22525E+02 
  41134.2540     0.22580E+02 
  41166.5162     0.22635E+02 
  41198.7783     0.22690E+02 
  41231.0405     0.22744E+02 
  41263.3026     0.22799E+02 
  41295.5648     0.22852E+02 
  41327.8270     0.22906E+02 
  41360.0891     0.22959E+02 
  41392.3513     0.23012E+02 
  41424.6134     0.23065E+02 
  41456.8756     0.23117E+02 
  41489.1378     0.23169E+02 
  41521.3999     0.23220E+02 
  41553.6621     0.23272E+02 
  41585.9242     0.23323E+02 
  41618.1864     0.23374E+02 
  41650.4486     0.23424E+02 
  41682.7107     0.23474E+02 
  41714.9729     0.23524E+02 
  41747.2350     0.23573E+02 
  41779.4972     0.23622E+02 
  41811.7594     0.23671E+02 
  41844.0215     0.23719E+02 
  41876.2837     0.23768E+02 
  41908.5458     0.23815E+02 
  41940.8080     0.23863E+02 
  41973.0702     0.23910E+02 
  42005.3323     0.23956E+02 
  42037.5945     0.24003E+02 
  42069.8566     0.24049E+02 
  42102.1188     0.24094E+02 
  42134.3810     0.24140E+02 
  42166.6431     0.24185E+02 
  42198.9053     0.24229E+02 
  42231.1674     0.24274E+02 
  42263.4296     0.24317E+02 
  42295.6918     0.24361E+02 
  42327.9539     0.24404E+02 
  42360.2161     0.24447E+02 
  42392.4782     0.24489E+02 
  42424.7404     0.24531E+02 
  42457.0026     0.24573E+02 
  42489.2647     0.24614E+02 
  42521.5269     0.24655E+02 
  42553.7890     0.24696E+02 
  42586.0512     0.24736E+02 
  42618.3134     0.24776E+02 
  42650.5755     0.24815E+02 
  42682.8377     0.24854E+02 
  42715.0998     0.24893E+02 
  42747.3620     0.24931E+02 
  42779.6242     0.24969E+02 
  42811.8863     0.25006E+02 
  42844.1485     0.25043E+02 
  42876.4106     0.25080E+02 
  42908.6728     0.25116E+02 
  42940.9350     0.25152E+02 
  42973.1971     0.25188E+02 
  43005.4593     0.25223E+02 
  43037.7214     0.25257E+02 
  43069.9836     0.25292E+02 
  43102.2458     0.25325E+02 
  43134.5079     0.25359E+02 
  43166.7701     0.25392E+02 
  43199.0322     0.25424E+02 
  43231.2944     0.25457E+02 
  43263.5566     0.25488E+02 
  43295.8187     0.25520E+02 
  43328.0809     0.25551E+02 
  43360.3430     0.25581E+02 
  43392.6052     0.25611E+02 
  43424.8674     0.25641E+02 
  43457.1295     0.25670E+02 
  43489.3917     0.25699E+02 
  43521.6538     0.25728E+02 
  43553.9160     0.25756E+02 
  43586.1782     0.25783E+02 
  43618.4403     0.25811E+02 
  43650.7025     0.25837E+02 
  43682.9646     0.25864E+02 
  43715.2268     0.25889E+02 
  43747.4890     0.25915E+02 
  43779.7511     0.25940E+02 
  43812.0133     0.25964E+02 
  43844.2754     0.25989E+02 
  43876.5376     0.26012E+02 
  43908.7998     0.26036E+02 
  43941.0619     0.26058E+02 
  43973.3241     0.26081E+02 
  44005.5862     0.26103E+02 
  44037.8484     0.26124E+02 
  44070.1106     0.26145E+02 
  44102.3727     0.26166E+02 
  44134.6349     0.26186E+02 
  44166.8970     0.26206E+02 
  44199.1592     0.26225E+02 
  44231.4214     0.26244E+02 
  44263.6835     0.26262E+02 
  44295.9457     0.26280E+02 
  44328.2078     0.26298E+02 
  44360.4700     0.26315E+02 
  44392.7322     0.26332E+02 
  44424.9943     0.26348E+02 
  44457.2565     0.26363E+02 
  44489.5186     0.26379E+02 
  44521.7808     0.26394E+02 
  44554.0430     0.26408E+02 
  44586.3051     0.26422E+02 
  44618.5673     0.26435E+02 
  44650.8294     0.26448E+02 
  44683.0916     0.26461E+02 
  44715.3538     0.26473E+02 
  44747.6159     0.26484E+02 
  44779.8781     0.26496E+02 
  44812.1402     0.26506E+02 
  44844.4024     0.26517E+02 
  44876.6646     0.26526E+02 
  44908.9267     0.26536E+02 
  44941.1889     0.26545E+02 
  44973.4510     0.26553E+02 
  45005.7132     0.26561E+02 
  45037.9754     0.26569E+02 
  45070.2375     0.26576E+02 
  45102.4997     0.26582E+02 
  45134.7618     0.26588E+02 
  45167.0240     0.26594E+02 
  45199.2862     0.26599E+02 
  45231.5483     0.26604E+02 
  45263.8105     0.26609E+02 
  45296.0726     0.26612E+02 
  45328.3348     0.26616E+02 
  45360.5970     0.26619E+02 
  45392.8591     0.26621E+02 
  45425.1213     0.26623E+02 
  45457.3834     0.26625E+02 
  45489.6456     0.26626E+02 
  45521.9078     0.26627E+02 
  45554.1699     0.26627E+02 
  45586.4321     0.26626E+02 
  45618.6942     0.26626E+02 
  45650.9564     0.26625E+02 
  45683.2186     0.26623E+02 
  45715.4807     0.26621E+02 
  45747.7429     0.26618E+02 
  45780.0050     0.26615E+02 
  45812.2672     0.26612E+02 
  45844.5294     0.26608E+02 
  45876.7915     0.26603E+02 
  45909.0537     0.26599E+02 
  45941.3158     0.26593E+02 
  45973.5780     0.26588E+02 
  46005.8402     0.26581E+02 
  46038.1023     0.26575E+02 
  46070.3645     0.26568E+02 
  46102.6266     0.26560E+02 
  46134.8888     0.26552E+02 
  46167.1510     0.26544E+02 
  46199.4131     0.26535E+02 
  46231.6753     0.26525E+02 
  46263.9374     0.26516E+02 
  46296.1996     0.26505E+02 
  46328.4618     0.26495E+02 
  46360.7239     0.26483E+02 
  46392.9861     0.26472E+02 
  46425.2482     0.26460E+02 
  46457.5104     0.26447E+02 
  46489.7726     0.26434E+02 
  46522.0347     0.26421E+02 
  46554.2969     0.26407E+02 
  46586.5590     0.26393E+02 
  46618.8212     0.26378E+02 
  46651.0834     0.26363E+02 
  46683.3455     0.26347E+02 
  46715.6077     0.26331E+02 
  46747.8698     0.26315E+02 
  46780.1320     0.26298E+02 
  46812.3942     0.26280E+02 
  46844.6563     0.26263E+02 
  46876.9185     0.26244E+02 
  46909.1806     0.26226E+02 
  46941.4428     0.26207E+02 
  46973.7050     0.26187E+02 
  47005.9671     0.26167E+02 
  47038.2293     0.26147E+02 
  47070.4914     0.26126E+02 
  47102.7536     0.26105E+02 
  47135.0158     0.26083E+02 
  47167.2779     0.26061E+02 
  47199.5401     0.26038E+02 
  47231.8022     0.26015E+02 
  47264.0644     0.25992E+02 
  47296.3266     0.25968E+02 
  47328.5887     0.25944E+02 
  47360.8509     0.25919E+02 
  47393.1130     0.25894E+02 
  47425.3752     0.25869E+02 
  47457.6374     0.25843E+02 
  47489.8995     0.25817E+02 
  47522.1617     0.25790E+02 
  47554.4238     0.25763E+02 
  47586.6860     0.25735E+02 
  47618.9482     0.25707E+02 
  47651.2103     0.25679E+02 
  47683.4725     0.25650E+02 
  47715.7346     0.25621E+02 
  47747.9968     0.25591E+02 
  47780.2590     0.25562E+02 
  47812.5211     0.25531E+02 
  47844.7833     0.25500E+02 
  47877.0454     0.25469E+02 
  47909.3076     0.25438E+02 
  47941.5698     0.25406E+02 
  47973.8319     0.25373E+02 
  48006.0941     0.25341E+02 
  48038.3562     0.25307E+02 
  48070.6184     0.25274E+02 
  48102.8806     0.25240E+02 
  48135.1427     0.25206E+02 
  48167.4049     0.25171E+02 
  48199.6670     0.25136E+02 
  48231.9292     0.25101E+02 
  48264.1914     0.25065E+02 
  48296.4535     0.25029E+02 
  48328.7157     0.24992E+02 
  48360.9778     0.24955E+02 
  48393.2400     0.24918E+02 
  48425.5022     0.24880E+02 
  48457.7643     0.24842E+02 
  48490.0265     0.24804E+02 
  48522.2886     0.24765E+02 
  48554.5508     0.24726E+02 
  48586.8130     0.24686E+02 
  48619.0751     0.24646E+02 
  48651.3373     0.24606E+02 
  48683.5994     0.24566E+02 
  48715.8616     0.24525E+02 
  48748.1238     0.24483E+02 
  48780.3859     0.24442E+02 
  48812.6481     0.24400E+02 
  48844.9102     0.24357E+02 
  48877.1724     0.24315E+02 
  48909.4346     0.24272E+02 
  48941.6967     0.24228E+02 
  48973.9589     0.24185E+02 
  49006.2210     0.24141E+02 
  49038.4832     0.24096E+02 
  49070.7454     0.24051E+02 
  49103.0075     0.24006E+02 
  49135.2697     0.23961E+02 
  49167.5318     0.23915E+02 
  49199.7940     0.23869E+02 
  49232.0562     0.23823E+02 
  49264.3183     0.23776E+02 
  49296.5805     0.23729E+02 
  49328.8426     0.23682E+02 
  49361.1048     0.23634E+02 
  49393.3670     0.23586E+02 
  49425.6291     0.23538E+02 
  49457.8913     0.23490E+02 
  49490.1534     0.23441E+02 
  49522.4156     0.23392E+02 
  49554.6778     0.23342E+02 
  49586.9399     0.23292E+02 
  49619.2021     0.23242E+02 
  49651.4642     0.23192E+02 
  49683.7264     0.23141E+02 
  49715.9886     0.23090E+02 
  49748.2507     0.23039E+02 
  49780.5129     0.22987E+02 
  49812.7750     0.22936E+02 
  49845.0372     0.22883E+02 
  49877.2994     0.22831E+02 
  49909.5615     0.22778E+02 
  49941.8237     0.22725E+02 
  49974.0858     0.22672E+02 
  50006.3480     0.22619E+02 
  50038.6102     0.22565E+02 
  50070.8723     0.22511E+02 
  50103.1345     0.22457E+02 
  50135.3966     0.22402E+02 
  50167.6588     0.22347E+02 
  50199.9210     0.22292E+02 
  50232.1831     0.22237E+02 
  50264.4453     0.22181E+02 
  50296.7074     0.22125E+02 
  50328.9696     0.22069E+02 
  50361.2318     0.22013E+02 
  50393.4939     0.21956E+02 
  50425.7561     0.21899E+02 
  50458.0182     0.21842E+02 
  50490.2804     0.21785E+02 
  50522.5426     0.21727E+02 
  50554.8047     0.21669E+02 
  50587.0669     0.21611E+02 
  50619.3290     0.21553E+02 
  50651.5912     0.21494E+02 
  50683.8534     0.21436E+02 
  50716.1155     0.21377E+02 
  50748.3777     0.21317E+02 
  50780.6398     0.21258E+02 
  50812.9020     0.21198E+02 
  50845.1642     0.21138E+02 
  50877.4263     0.21078E+02 
  50909.6885     0.21018E+02 
  50941.9506     0.20958E+02 
  50974.2128     0.20897E+02 
  51006.4750     0.20836E+02 
  51038.7371     0.20775E+02 
  51070.9993     0.20714E+02 
  51103.2614     0.20652E+02 
  51135.5236     0.20590E+02 
  51167.7858     0.20529E+02 
  51200.0479     0.20466E+02 
  51232.3101     0.20404E+02 
  51264.5722     0.20342E+02 
  51296.8344     0.20279E+02 
  51329.0966     0.20216E+02 
  51361.3587     0.20153E+02 
  51393.6209     0.20090E+02 
  51425.8830     0.20027E+02 
  51458.1452     0.19963E+02 
  51490.4074     0.19899E+02 
  51522.6695     0.19836E+02 
  51554.9317     0.19772E+02 
  51587.1938     0.19707E+02 
  51619.4560     0.19643E+02 
  51651.7182     0.19579E+02 
  51683.9803     0.19514E+02 
  51716.2425     0.19449E+02 
  51748.5046     0.19384E+02 
  51780.7668     0.19319E+02 
  51813.0290     0.19254E+02 
  51845.2911     0.19188E+02 
  51877.5533     0.19123E+02 
  51909.8154     0.19057E+02 
  51942.0776     0.18991E+02 
  51974.3398     0.18925E+02 
  52006.6019     0.18859E+02 
  52038.8641     0.18793E+02 
  52071.1262     0.18726E+02 
  52103.3884     0.18660E+02 
  52135.6506     0.18593E+02 
  52167.9127     0.18527E+02 
  52200.1749     0.18460E+02 
  52232.4370     0.18393E+02 
  52264.6992     0.18326E+02 
  52296.9614     0.18258E+02 
  52329.2235     0.18191E+02 
  52361.4857     0.18124E+02 
  52393.7478     0.18056E+02 
  52426.0100     0.17989E+02 
  52458.2722     0.17921E+02 
  52490.5343     0.17853E+02 
  52522.7965     0.17785E+02 
  52555.0586     0.17717E+02 
  52587.3208     0.17649E+02 
  52619.5830     0.17581E+02 
  52651.8451     0.17512E+02 
  52684.1073     0.17444E+02 
  52716.3694     0.17376E+02 
  52748.6316     0.17307E+02 
  52780.8938     0.17238E+02 
  52813.1559     0.17170E+02 
  52845.4181     0.17101E+02 
  52877.6802     0.17032E+02 
  52909.9424     0.16963E+02 
  52942.2046     0.16894E+02 
  52974.4667     0.16825E+02 
  53006.7289     0.16756E+02 
  53038.9910     0.16687E+02 
  53071.2532     0.16618E+02 
  53103.5154     0.16548E+02 
  53135.7775     0.16479E+02 
  53168.0397     0.16410E+02 
  53200.3018     0.16340E+02 
  53232.5640     0.16271E+02 
  53264.8262     0.16201E+02 
  53297.0883     0.16132E+02 
  53329.3505     0.16062E+02 
  53361.6126     0.15992E+02 
  53393.8748     0.15923E+02 
  53426.1370     0.15853E+02 
  53458.3991     0.15783E+02 
  53490.6613     0.15713E+02 
  53522.9234     0.15644E+02 
  53555.1856     0.15574E+02 
  53587.4478     0.15504E+02 
  53619.7099     0.15434E+02 
  53651.9721     0.15364E+02 
  53684.2342     0.15294E+02 
  53716.4964     0.15224E+02 
  53748.7586     0.15154E+02 
  53781.0207     0.15085E+02 
  53813.2829     0.15015E+02 
  53845.5450     0.14945E+02 
  53877.8072     0.14875E+02 
  53910.0694     0.14805E+02 
  53942.3315     0.14735E+02 
  53974.5937     0.14665E+02 
  54006.8558     0.14595E+02 
  54039.1180     0.14525E+02 
  54071.3802     0.14455E+02 
  54103.6423     0.14385E+02 
  54135.9045     0.14315E+02 
  54168.1666     0.14245E+02 
  54200.4288     0.14175E+02 
  54232.6910     0.14106E+02 
  54264.9531     0.14036E+02 
  54297.2153     0.13966E+02 
  54329.4774     0.13896E+02 
  54361.7396     0.13826E+02 
  54394.0018     0.13757E+02 
  54426.2639     0.13687E+02 
  54458.5261     0.13617E+02 
  54490.7882     0.13548E+02 
  54523.0504     0.13478E+02 
  54555.3126     0.13409E+02 
  54587.5747     0.13339E+02 
  54619.8369     0.13270E+02 
  54652.0990     0.13200E+02 
  54684.3612     0.13131E+02 
  54716.6234     0.13062E+02 
  54748.8855     0.12992E+02 
  54781.1477     0.12923E+02 
  54813.4098     0.12854E+02 
  54845.6720     0.12785E+02 
  54877.9342     0.12716E+02 
  54910.1963     0.12647E+02 
  54942.4585     0.12578E+02 
  54974.7206     0.12510E+02 
  55006.9828     0.12441E+02 
  55039.2450     0.12372E+02 
  55071.5071     0.12304E+02 
  55103.7693     0.12235E+02 
  55136.0314     0.12167E+02 
  55168.2936     0.12098E+02 
  55200.5558     0.12030E+02 
  55232.8179     0.11962E+02 
  55265.0801     0.11894E+02 
  55297.3422     0.11826E+02 
  55329.6044     0.11758E+02 
  55361.8666     0.11690E+02 
  55394.1287     0.11623E+02 
  55426.3909     0.11555E+02 
  55458.6530     0.11487E+02 
  55490.9152     0.11420E+02 
  55523.1774     0.11353E+02 
  55555.4395     0.11286E+02 
  55587.7017     0.11219E+02 
  55619.9638     0.11152E+02 
  55652.2260     0.11085E+02 
  55684.4882     0.11018E+02 
  55716.7503     0.10951E+02 
  55749.0125     0.10885E+02 
  55781.2746     0.10819E+02 
  55813.5368     0.10752E+02 
  55845.7990     0.10686E+02 
  55878.0611     0.10620E+02 
  55910.3233     0.10554E+02 
  55942.5854     0.10489E+02 
  55974.8476     0.10423E+02 
  56007.1098     0.10357E+02 
  56039.3719     0.10292E+02 
  56071.6341     0.10227E+02 
  56103.8962     0.10162E+02 
  56136.1584     0.10097E+02 
  56168.4206     0.10032E+02 
  56200.6827     0.99677E+01 
  56232.9449     0.99033E+01 
  56265.2070     0.98390E+01 
  56297.4692     0.97748E+01 
  56329.7314     0.97108E+01 
  56361.9935     0.96470E+01 
  56394.2557     0.95834E+01 
  56426.5178     0.95199E+01 
  56458.7800     0.94566E+01 
  56491.0422     0.93934E+01 
  56523.3043     0.93304E+01 
  56555.5665     0.92676E+01 
  56587.8286     0.92050E+01 
  56620.0908     0.91425E+01 
  56652.3530     0.90802E+01 
  56684.6151     0.90181E+01 
  56716.8773     0.89562E+01 
  56749.1394     0.88945E+01 
  56781.4016     0.88330E+01 
  56813.6638     0.87716E+01 
  56845.9259     0.87105E+01 
  56878.1881     0.86495E+01 
  56910.4502     0.85887E+01 
  56942.7124     0.85282E+01 
  56974.9746     0.84678E+01 
  57007.2367     0.84077E+01 
  57039.4989     0.83477E+01 
  57071.7610     0.82880E+01 
  57104.0232     0.82284E+01 
  57136.2854     0.81691E+01 
  57168.5475     0.81100E+01 
  57200.8097     0.80512E+01 
  57233.0718     0.79925E+01 
  57265.3340     0.79341E+01 
  57297.5962     0.78759E+01 
  57329.8583     0.78179E+01 
  57362.1205     0.77601E+01 
  57394.3826     0.77026E+01 
  57426.6448     0.76453E+01 
  57458.9070     0.75883E+01 
  57491.1691     0.75315E+01 
  57523.4313     0.74749E+01 
  57555.6934     0.74186E+01 
  57587.9556     0.73625E+01 
  57620.2178     0.73067E+01 
  57652.4799     0.72511E+01 
  57684.7421     0.71958E+01 
  57717.0042     0.71407E+01 
  57749.2664     0.70859E+01 
  57781.5286     0.70314E+01 
  57813.7907     0.69771E+01 
  57846.0529     0.69231E+01 
  57878.3150     0.68694E+01 
  57910.5772     0.68159E+01 
  57942.8394     0.67627E+01 
  57975.1015     0.67098E+01 
  58007.3637     0.66572E+01 
  58039.6258     0.66048E+01 
  58071.8880     0.65528E+01 
  58104.1502     0.65010E+01 
  58136.4123     0.64495E+01 
  58168.6745     0.63983E+01 
  58200.9366     0.63475E+01 
  58233.1988     0.62969E+01 
  58265.4610     0.62466E+01 
  58297.7231     0.61966E+01 
  58329.9853     0.61469E+01 
  58362.2474     0.60976E+01 
  58394.5096     0.60485E+01 
  58426.7718     0.59998E+01 
  58459.0339     0.59513E+01 
  58491.2961     0.59033E+01 
  58523.5582     0.58555E+01 
  58555.8204     0.58080E+01 
  58588.0826     0.57609E+01 
  58620.3447     0.57142E+01 
  58652.6069     0.56677E+01 
  58684.8690     0.56216E+01 
  58717.1312     0.55759E+01 
  58749.3934     0.55305E+01 
  58781.6555     0.54854E+01 
  58813.9177     0.54407E+01 
  58846.1798     0.53963E+01 
  58878.4420     0.53523E+01 
  58910.7042     0.53087E+01 
  58942.9663     0.52654E+01 
  58975.2285     0.52225E+01 
  59007.4906     0.51800E+01 
  59039.7528     0.51379E+01 
  59072.0150     0.50961E+01 
  59104.2771     0.50547E+01 
  59136.5393     0.50137E+01 
  59168.8014     0.49731E+01 
  59201.0636     0.49328E+01 
  59233.3258     0.48930E+01 
  59265.5879     0.48536E+01 
  59297.8501     0.48145E+01 
  59330.1122     0.47759E+01 
  59362.3744     0.47377E+01 
  59394.6366     0.46999E+01 
  59426.8987     0.46625E+01 
  59459.1609     0.46255E+01 
  59491.4230     0.45890E+01 
  59523.6852     0.45529E+01 
  59555.9474     0.45172E+01 
  59588.2095     0.44819E+01 
  59620.4717     0.44471E+01 
  59652.7338     0.44127E+01 
  59684.9960     0.43788E+01 
  59717.2582     0.43453E+01 
  59749.5203     0.43123E+01 
  59781.7825     0.42797E+01 
  59814.0446     0.42476E+01 
  59846.3068     0.42160E+01 
  59878.5690     0.41848E+01 
  59910.8311     0.41541E+01 
  59943.0933     0.41239E+01 
  59975.3554     0.40941E+01 
  60007.6176     0.40649E+01 
  60039.8798     0.40361E+01 
  60072.1419     0.40079E+01 
  60104.4041     0.39801E+01 
  60136.6662     0.39528E+01 
  60168.9284     0.39261E+01 
  60201.1906     0.38998E+01 
  60233.4527     0.38741E+01 
  60265.7149     0.38489E+01 
  60297.9770     0.38242E+01 
  60330.2392     0.38000E+01 
  60362.5014     0.37764E+01 
  60394.7635     0.37533E+01 
  60427.0257     0.37308E+01 
  60459.2878     0.37088E+01 
  60491.5500     0.36873E+01 
  60523.8122     0.36664E+01 
  60556.0743     0.36461E+01 
  60588.3365     0.36263E+01 
  60620.5986     0.36072E+01 
  60652.8608     0.35885E+01 
  60685.1230     0.35705E+01 
  60717.3851     0.35531E+01 
  60749.6473     0.35362E+01 
  60781.9094     0.35199E+01 
  60814.1716     0.35043E+01 
  60846.4338     0.34892E+01 
  60878.6959     0.34748E+01 
  60910.9581     0.34610E+01 
  60943.2202     0.34478E+01 
  60975.4824     0.34352E+01 
  61007.7446     0.34232E+01 
  61040.0067     0.34119E+01 
  61072.2689     0.34013E+01 
  61104.5310     0.33912E+01 
  61136.7932     0.33819E+01 
  61169.0554     0.33732E+01 
  61201.3175     0.33651E+01 
  61233.5797     0.33578E+01 
  61265.8418     0.33511E+01 
  61298.1040     0.33451E+01 
  61330.3662     0.33397E+01 
  61362.6283     0.33351E+01 
  61394.8905     0.33312E+01 
  61427.1526     0.33279E+01 
  61459.4148     0.33254E+01 
  61491.6770     0.33236E+01 
  61523.9391     0.33225E+01 
  61556.2013     0.33222E+01 
  61588.4634     0.33226E+01 
  61620.7256     0.33237E+01 
  61652.9878     0.33256E+01 
  61685.2499     0.33282E+01 
  61717.5121     0.33316E+01 
  61749.7742     0.33357E+01 
  61782.0364     0.33406E+01 
  61814.2986     0.33463E+01 
  61846.5607     0.33528E+01 
  61878.8229     0.33601E+01 
  61911.0850     0.33682E+01 
  61943.3472     0.33770E+01 
  61975.6094     0.33867E+01 
  62007.8715     0.33972E+01 
  62040.1337     0.34086E+01 
  62072.3958     0.34207E+01 
  62104.6580     0.34337E+01 
  62136.9202     0.34476E+01 
  62169.1823     0.34623E+01 
  62201.4445     0.34778E+01 
  62233.7066     0.34942E+01 
  62265.9688     0.35115E+01 
  62298.2310     0.35297E+01 
  62330.4931     0.35488E+01 
  62362.7553     0.35687E+01 
  62395.0174     0.35896E+01 
  62427.2796     0.36114E+01 
  62459.5418     0.36340E+01 
  62491.8039     0.36577E+01 
  62524.0661     0.36822E+01 
  62556.3282     0.37077E+01 
  62588.5904     0.37341E+01 
  62620.8526     0.37615E+01 
  62653.1147     0.37898E+01 
  62685.3769     0.38191E+01 
  62717.6390     0.38494E+01 
  62749.9012     0.38807E+01 
  62782.1634     0.39129E+01 
  62814.4255     0.39462E+01 
  62846.6877     0.39805E+01 
  62878.9498     0.40158E+01 
  62911.2120     0.40521E+01 
  62943.4742     0.40894E+01 
  62975.7363     0.41278E+01 
  63007.9985     0.41672E+01 
  63040.2606     0.42077E+01 
  63072.5228     0.42493E+01 
  63104.7850     0.42919E+01 
  63137.0471     0.43356E+01 
  63169.3093     0.43804E+01 
  63201.5714     0.44263E+01 
  63233.8336     0.44733E+01 
  63266.0958     0.45215E+01 
  63298.3579     0.45707E+01 
  63330.6201     0.46211E+01 
  63362.8822     0.46726E+01 
  63395.1444     0.47253E+01 
  63427.4066     0.47792E+01 
  63459.6687     0.48342E+01 
  63491.9309     0.48904E+01 
  63524.1930     0.49477E+01 
  63556.4552     0.50063E+01 
  63588.7174     0.50661E+01 
  63620.9795     0.51271E+01 
  63653.2417     0.51893E+01 
  63685.5038     0.52527E+01 
  63717.7660     0.53174E+01 
  63750.0282     0.53833E+01 
  63782.2903     0.54505E+01 
  63814.5525     0.55190E+01 
  63846.8146     0.55888E+01 
  63879.0768     0.56598E+01 
  63911.3390     0.57321E+01 
  63943.6011     0.58058E+01 
  63975.8633     0.58807E+01 
  64008.1254     0.59570E+01 
  64040.3876     0.60346E+01 
  64072.6498     0.61136E+01 
  64104.9119     0.61939E+01 
  64137.1741     0.62756E+01 
  64169.4362     0.63587E+01 
  64201.6984     0.64432E+01 
  64233.9606     0.65290E+01 
  64266.2227     0.66163E+01 
  64298.4849     0.67050E+01 
  64330.7470     0.67951E+01 
  64363.0092     0.68866E+01 
  64395.2714     0.69796E+01 
  64427.5335     0.70740E+01 
  64459.7957     0.71700E+01 
  64492.0578     0.72673E+01 
  64524.3200     0.73662E+01 
  64556.5822     0.74666E+01 
  64588.8443     0.75685E+01 
  64621.1065     0.76719E+01 
  64653.3686     0.77769E+01 
  64685.6308     0.78833E+01 
  64717.8930     0.79914E+01 
  64750.1551     0.81010E+01 
  64782.4173     0.82121E+01 
  64814.6794     0.83249E+01 
  64846.9416     0.84392E+01 
  64879.2038     0.85552E+01 
  64911.4659     0.86728E+01 
  64943.7281     0.87920E+01 
  64975.9902     0.89128E+01 
  65008.2524     0.90353E+01 
  65040.5146     0.91594E+01 
  65072.7767     0.92852E+01 
  65105.0389     0.94127E+01 
  65137.3010     0.95419E+01 
  65169.5632     0.96728E+01 
  65201.8254     0.98054E+01 
  65234.0875     0.99398E+01 
  65266.3497     0.10076E+02 
  65298.6118     0.10214E+02 
  65330.8740     0.10353E+02 
  65363.1362     0.10495E+02 
  65395.3983     0.10638E+02 
  65427.6605     0.10783E+02 
  65459.9226     0.10929E+02 
  65492.1848     0.11078E+02 
  65524.4470     0.11228E+02 
  65556.7091     0.11381E+02 
  65588.9713     0.11535E+02 
  65621.2334     0.11691E+02 
  65653.4956     0.11848E+02 
  65685.7578     0.12008E+02 
  65718.0199     0.12170E+02 
  65750.2821     0.12333E+02 
  65782.5442     0.12499E+02 
  65814.8064     0.12666E+02 
  65847.0686     0.12835E+02 
  65879.3307     0.13007E+02 
  65911.5929     0.13180E+02 
  65943.8550     0.13355E+02 
  65976.1172     0.13532E+02 
  66008.3794     0.13712E+02 
  66040.6415     0.13893E+02 
  66072.9037     0.14076E+02 
  66105.1658     0.14261E+02 
  66137.4280     0.14449E+02 
  66169.6902     0.14638E+02 
  66201.9523     0.14830E+02 
  66234.2145     0.15023E+02 
  66266.4766     0.15219E+02 
  66298.7388     0.15417E+02 
  66331.0010     0.15617E+02 
  66363.2631     0.15819E+02 
  66395.5253     0.16023E+02 
  66427.7874     0.16229E+02 
  66460.0496     0.16438E+02 
  66492.3118     0.16648E+02 
  66524.5739     0.16861E+02 
  66556.8361     0.17076E+02 
  66589.0982     0.17294E+02 
  66621.3604     0.17513E+02 
  66653.6226     0.17735E+02 
  66685.8847     0.17959E+02 
  66718.1469     0.18185E+02 
  66750.4090     0.18414E+02 
  66782.6712     0.18645E+02 
  66814.9334     0.18878E+02 
  66847.1955     0.19113E+02 
  66879.4577     0.19351E+02 
  66911.7198     0.19591E+02 
  66943.9820     0.19834E+02 
  66976.2442     0.20078E+02 
  67008.5063     0.20326E+02 
  67040.7685     0.20575E+02 
  67073.0306     0.20827E+02 
  67105.2928     0.21082E+02 
  67137.5550     0.21338E+02 
  67169.8171     0.21598E+02 
  67202.0793     0.21859E+02 
  67234.3414     0.22123E+02 
  67266.6036     0.22390E+02 
  67298.8658     0.22659E+02 
  67331.1279     0.22931E+02 
  67363.3901     0.23205E+02 
  67395.6522     0.23481E+02 
  67427.9144     0.23760E+02 
  67460.1766     0.24042E+02 
  67492.4387     0.24326E+02 
  67524.7009     0.24613E+02 
  67556.9630     0.24902E+02 
  67589.2252     0.25194E+02 
  67621.4874     0.25488E+02 
  67653.7495     0.25786E+02 
  67686.0117     0.26085E+02 
  67718.2738     0.26388E+02 
  67750.5360     0.26692E+02 
  67782.7982     0.27000E+02 
  67815.0603     0.27310E+02 
  67847.3225     0.27623E+02 
  67879.5846     0.27939E+02 
  67911.8468     0.28257E+02 
  67944.1090     0.28578E+02 
  67976.3711     0.28902E+02 
  68008.6333     0.29228E+02 
  68040.8954     0.29557E+02 
  68073.1576     0.29889E+02 
  68105.4198     0.30224E+02 
  68137.6819     0.30561E+02 
  68169.9441     0.30902E+02 
  68202.2062     0.31245E+02 
  68234.4684     0.31590E+02 
  68266.7306     0.31939E+02 
  68298.9927     0.32290E+02 
  68331.2549     0.32645E+02 
  68363.5170     0.33002E+02 
  68395.7792     0.33362E+02 
  68428.0414     0.33724E+02 
  68460.3035     0.34090E+02 
  68492.5657     0.34459E+02 
  68524.8278     0.34830E+02 
  68557.0900     0.35204E+02 
  68589.3522     0.35582E+02 
  68621.6143     0.35962E+02 
  68653.8765     0.36345E+02 
  68686.1386     0.36731E+02 
  68718.4008     0.37120E+02 
  68750.6630     0.37512E+02 
  68782.9251     0.37907E+02 
  68815.1873     0.38305E+02 
  68847.4494     0.38705E+02 
  68879.7116     0.39109E+02 
  68911.9738     0.39516E+02 
  68944.2359     0.39926E+02 
  68976.4981     0.40339E+02 
  69008.7602     0.40755E+02 
  69041.0224     0.41174E+02 
  69073.2846     0.41596E+02 
  69105.5467     0.42021E+02 
  69137.8089     0.42449E+02 
  69170.0710     0.42880E+02 
  69202.3332     0.43314E+02 
  69234.5954     0.43751E+02 
  69266.8575     0.44192E+02 
  69299.1197     0.44635E+02 
  69331.3818     0.45082E+02 
  69363.6440     0.45532E+02 
  69395.9062     0.45984E+02 
  69428.1683     0.46440E+02 
  69460.4305     0.46900E+02 
  69492.6926     0.47362E+02 
  69524.9548     0.47827E+02 
  69557.2170     0.48296E+02 
  69589.4791     0.48768E+02 
  69621.7413     0.49242E+02 
  69654.0034     0.49720E+02 
  69686.2656     0.50202E+02 
  69718.5278     0.50686E+02 
  69750.7899     0.51174E+02 
  69783.0521     0.51665E+02 
  69815.3142     0.52159E+02 
  69847.5764     0.52656E+02 
  69879.8386     0.53157E+02 
  69912.1007     0.53660E+02 
  69944.3629     0.54167E+02 
  69976.6250     0.54677E+02 
  70008.8872     0.55191E+02 
  70041.1494     0.55708E+02 
  70073.4115     0.56227E+02 
  70105.6737     0.56751E+02 
  70137.9358     0.57277E+02 
  70170.1980     0.57807E+02 
  70202.4602     0.58340E+02 
  70234.7223     0.58876E+02 
  70266.9845     0.59416E+02 
  70299.2466     0.59958E+02 
  70331.5088     0.60504E+02 
  70363.7710     0.61054E+02 
  70396.0331     0.61606E+02 
  70428.2953     0.62162E+02 
  70460.5574     0.62722E+02 
  70492.8196     0.63284E+02 
  70525.0818     0.63850E+02 
  70557.3439     0.64419E+02 
  70589.6061     0.64992E+02 
  70621.8682     0.65567E+02 
  70654.1304     0.66147E+02 
  70686.3926     0.66729E+02 
  70718.6547     0.67315E+02 
  70750.9169     0.67904E+02 
  70783.1790     0.68496E+02 
  70815.4412     0.69092E+02 
  70847.7034     0.69691E+02 
  70879.9655     0.70293E+02 
  70912.2277     0.70899E+02 
  70944.4898     0.71508E+02 
  70976.7520     0.72120E+02 
  71009.0142     0.72735E+02 
  71041.2763     0.73354E+02 
  71073.5385     0.73977E+02 
  71105.8006     0.74602E+02 
  71138.0628     0.75231E+02 
  71170.3250     0.75863E+02 
  71202.5871     0.76499E+02 
  71234.8493     0.77138E+02 
  71267.1114     0.77780E+02 
  71299.3736     0.78425E+02 
  71331.6358     0.79074E+02 
  71363.8979     0.79726E+02 
  71396.1601     0.80382E+02 
  71428.4222     0.81040E+02 
  71460.6844     0.81703E+02 
  71492.9466     0.82368E+02 
  71525.2087     0.83037E+02 
  71557.4709     0.83708E+02 
  71589.7330     0.84384E+02 
  71621.9952     0.85062E+02 
  71654.2574     0.85744E+02 
  71686.5195     0.86429E+02 
  71718.7817     0.87118E+02 
  71751.0438     0.87809E+02 
  71783.3060     0.88504E+02 
  71815.5682     0.89202E+02 
  71847.8303     0.89904E+02 
  71880.0925     0.90609E+02 
  71912.3546     0.91317E+02 
  71944.6168     0.92028E+02 
  71976.8790     0.92742E+02 
  72009.1411     0.93460E+02 
  72041.4033     0.94181E+02 
  72073.6654     0.94905E+02 
  72105.9276     0.95633E+02 
  72138.1898     0.96363E+02 
  72170.4519     0.97097E+02 
  72202.7141     0.97834E+02 
  72234.9762     0.98574E+02 
  72267.2384     0.99318E+02 
  72299.5006     0.10006E+03 
  72331.7627     0.10081E+03 
  72364.0249     0.10157E+03 
  72396.2870     0.10232E+03 
  72428.5492     0.10308E+03 
  72460.8114     0.10384E+03 
  72493.0735     0.10461E+03 
  72525.3357     0.10538E+03 
  72557.5978     0.10615E+03 
  72589.8600     0.10692E+03 
