  32262.1600     0.16312E-05 
  32294.4222     0.16474E-05 
  32326.6843     0.16638E-05 
  32358.9465     0.16802E-05 
  32391.2086     0.16968E-05 
  32423.4708     0.17134E-05 
  32455.7330     0.17302E-05 
  32487.9951     0.17471E-05 
  32520.2573     0.17640E-05 
  32552.5194     0.17811E-05 
  32584.7816     0.17983E-05 
  32617.0438     0.18156E-05 
  32649.3059     0.18330E-05 
  32681.5681     0.18505E-05 
  32713.8302     0.18681E-05 
  32746.0924     0.18858E-05 
  32778.3546     0.19036E-05 
  32810.6167     0.19215E-05 
  32842.8789     0.19395E-05 
  32875.1410     0.19576E-05 
  32907.4032     0.19759E-05 
  32939.6654     0.19942E-05 
  32971.9275     0.20127E-05 
  33004.1897     0.20312E-05 
  33036.4518     0.20498E-05 
  33068.7140     0.20686E-05 
  33100.9762     0.20874E-05 
  33133.2383     0.21064E-05 
  33165.5005     0.21255E-05 
  33197.7626     0.21446E-05 
  33230.0248     0.21639E-05 
  33262.2870     0.21833E-05 
  33294.5491     0.22027E-05 
  33326.8113     0.22223E-05 
  33359.0734     0.22420E-05 
  33391.3356     0.22617E-05 
  33423.5978     0.22816E-05 
  33455.8599     0.23016E-05 
  33488.1221     0.23217E-05 
  33520.3842     0.23419E-05 
  33552.6464     0.23621E-05 
  33584.9086     0.23825E-05 
  33617.1707     0.24030E-05 
  33649.4329     0.24235E-05 
  33681.6950     0.24442E-05 
  33713.9572     0.24650E-05 
  33746.2194     0.24859E-05 
  33778.4815     0.25068E-05 
  33810.7437     0.25279E-05 
  33843.0058     0.25490E-05 
  33875.2680     0.25703E-05 
  33907.5302     0.25916E-05 
  33939.7923     0.26131E-05 
  33972.0545     0.26346E-05 
  34004.3166     0.26562E-05 
  34036.5788     0.26780E-05 
  34068.8410     0.26998E-05 
  34101.1031     0.27217E-05 
  34133.3653     0.27437E-05 
  34165.6274     0.27658E-05 
  34197.8896     0.27880E-05 
  34230.1518     0.28102E-05 
  34262.4139     0.28326E-05 
  34294.6761     0.28551E-05 
  34326.9382     0.28776E-05 
  34359.2004     0.29002E-05 
  34391.4626     0.29230E-05 
  34423.7247     0.29458E-05 
  34455.9869     0.29686E-05 
  34488.2490     0.29916E-05 
  34520.5112     0.30147E-05 
  34552.7734     0.30378E-05 
  34585.0355     0.30611E-05 
  34617.2977     0.30844E-05 
  34649.5598     0.31078E-05 
  34681.8220     0.31312E-05 
  34714.0842     0.31548E-05 
  34746.3463     0.31784E-05 
  34778.6085     0.32021E-05 
  34810.8706     0.32259E-05 
  34843.1328     0.32498E-05 
  34875.3950     0.32737E-05 
  34907.6571     0.32978E-05 
  34939.9193     0.33219E-05 
  34972.1814     0.33460E-05 
  35004.4436     0.33703E-05 
  35036.7058     0.33946E-05 
  35068.9679     0.34190E-05 
  35101.2301     0.34435E-05 
  35133.4922     0.34680E-05 
  35165.7544     0.34926E-05 
  35198.0166     0.35173E-05 
  35230.2787     0.35420E-05 
  35262.5409     0.35668E-05 
  35294.8030     0.35917E-05 
  35327.0652     0.36166E-05 
  35359.3274     0.36417E-05 
  35391.5895     0.36667E-05 
  35423.8517     0.36919E-05 
  35456.1138     0.37170E-05 
  35488.3760     0.37423E-05 
  35520.6382     0.37676E-05 
  35552.9003     0.37930E-05 
  35585.1625     0.38184E-05 
  35617.4246     0.38439E-05 
  35649.6868     0.38694E-05 
  35681.9490     0.38950E-05 
  35714.2111     0.39207E-05 
  35746.4733     0.39464E-05 
  35778.7354     0.39721E-05 
  35810.9976     0.39980E-05 
  35843.2598     0.40238E-05 
  35875.5219     0.40497E-05 
  35907.7841     0.40757E-05 
  35940.0462     0.41017E-05 
  35972.3084     0.41277E-05 
  36004.5706     0.41538E-05 
  36036.8327     0.41799E-05 
  36069.0949     0.42061E-05 
  36101.3570     0.42323E-05 
  36133.6192     0.42586E-05 
  36165.8814     0.42848E-05 
  36198.1435     0.43112E-05 
  36230.4057     0.43375E-05 
  36262.6678     0.43639E-05 
  36294.9300     0.43904E-05 
  36327.1922     0.44168E-05 
  36359.4543     0.44433E-05 
  36391.7165     0.44699E-05 
  36423.9786     0.44964E-05 
  36456.2408     0.45230E-05 
  36488.5030     0.45496E-05 
  36520.7651     0.45763E-05 
  36553.0273     0.46029E-05 
  36585.2894     0.46296E-05 
  36617.5516     0.46563E-05 
  36649.8138     0.46831E-05 
  36682.0759     0.47098E-05 
  36714.3381     0.47366E-05 
  36746.6002     0.47633E-05 
  36778.8624     0.47901E-05 
  36811.1246     0.48170E-05 
  36843.3867     0.48438E-05 
  36875.6489     0.48706E-05 
  36907.9110     0.48975E-05 
  36940.1732     0.49243E-05 
  36972.4354     0.49512E-05 
  37004.6975     0.49781E-05 
  37036.9597     0.50049E-05 
  37069.2218     0.50318E-05 
  37101.4840     0.50587E-05 
  37133.7462     0.50856E-05 
  37166.0083     0.51125E-05 
  37198.2705     0.51394E-05 
  37230.5326     0.51663E-05 
  37262.7948     0.51931E-05 
  37295.0570     0.52200E-05 
  37327.3191     0.52469E-05 
  37359.5813     0.52737E-05 
  37391.8434     0.53006E-05 
  37424.1056     0.53274E-05 
  37456.3678     0.53542E-05 
  37488.6299     0.53810E-05 
  37520.8921     0.54078E-05 
  37553.1542     0.54346E-05 
  37585.4164     0.54614E-05 
  37617.6786     0.54881E-05 
  37649.9407     0.55148E-05 
  37682.2029     0.55415E-05 
  37714.4650     0.55682E-05 
  37746.7272     0.55949E-05 
  37778.9894     0.56215E-05 
  37811.2515     0.56481E-05 
  37843.5137     0.56747E-05 
  37875.7758     0.57012E-05 
  37908.0380     0.57277E-05 
  37940.3002     0.57542E-05 
  37972.5623     0.57806E-05 
  38004.8245     0.58070E-05 
  38037.0866     0.58334E-05 
  38069.3488     0.58597E-05 
  38101.6110     0.58860E-05 
  38133.8731     0.59123E-05 
  38166.1353     0.59385E-05 
  38198.3974     0.59646E-05 
  38230.6596     0.59907E-05 
  38262.9218     0.60168E-05 
  38295.1839     0.60428E-05 
  38327.4461     0.60688E-05 
  38359.7082     0.60947E-05 
  38391.9704     0.61206E-05 
  38424.2326     0.61464E-05 
  38456.4947     0.61721E-05 
  38488.7569     0.61978E-05 
  38521.0190     0.62234E-05 
  38553.2812     0.62490E-05 
  38585.5434     0.62745E-05 
  38617.8055     0.63000E-05 
  38650.0677     0.63254E-05 
  38682.3298     0.63507E-05 
  38714.5920     0.63759E-05 
  38746.8542     0.64011E-05 
  38779.1163     0.64262E-05 
  38811.3785     0.64513E-05 
  38843.6406     0.64762E-05 
  38875.9028     0.65011E-05 
  38908.1650     0.65260E-05 
  38940.4271     0.65507E-05 
  38972.6893     0.65754E-05 
  39004.9514     0.66000E-05 
  39037.2136     0.66245E-05 
  39069.4758     0.66489E-05 
  39101.7379     0.66732E-05 
  39134.0001     0.66975E-05 
  39166.2622     0.67216E-05 
  39198.5244     0.67457E-05 
  39230.7866     0.67697E-05 
  39263.0487     0.67936E-05 
  39295.3109     0.68174E-05 
  39327.5730     0.68411E-05 
  39359.8352     0.68647E-05 
  39392.0974     0.68882E-05 
  39424.3595     0.69117E-05 
  39456.6217     0.69350E-05 
  39488.8838     0.69582E-05 
  39521.1460     0.69813E-05 
  39553.4082     0.70044E-05 
  39585.6703     0.70273E-05 
  39617.9325     0.70501E-05 
  39650.1946     0.70728E-05 
  39682.4568     0.70954E-05 
  39714.7190     0.71179E-05 
  39746.9811     0.71402E-05 
  39779.2433     0.71625E-05 
  39811.5054     0.71846E-05 
  39843.7676     0.72067E-05 
  39876.0298     0.72286E-05 
  39908.2919     0.72504E-05 
  39940.5541     0.72721E-05 
  39972.8162     0.72936E-05 
  40005.0784     0.73151E-05 
  40037.3406     0.73364E-05 
  40069.6027     0.73576E-05 
  40101.8649     0.73787E-05 
  40134.1270     0.73996E-05 
  40166.3892     0.74205E-05 
  40198.6514     0.74411E-05 
  40230.9135     0.74617E-05 
  40263.1757     0.74821E-05 
  40295.4378     0.75024E-05 
  40327.7000     0.75226E-05 
  40359.9622     0.75427E-05 
  40392.2243     0.75626E-05 
  40424.4865     0.75823E-05 
  40456.7486     0.76019E-05 
  40489.0108     0.76214E-05 
  40521.2730     0.76408E-05 
  40553.5351     0.76600E-05 
  40585.7973     0.76791E-05 
  40618.0594     0.76980E-05 
  40650.3216     0.77168E-05 
  40682.5838     0.77354E-05 
  40714.8459     0.77539E-05 
  40747.1081     0.77722E-05 
  40779.3702     0.77904E-05 
  40811.6324     0.78085E-05 
  40843.8946     0.78264E-05 
  40876.1567     0.78441E-05 
  40908.4189     0.78617E-05 
  40940.6810     0.78791E-05 
  40972.9432     0.78964E-05 
  41005.2054     0.79136E-05 
  41037.4675     0.79305E-05 
  41069.7297     0.79474E-05 
  41101.9918     0.79640E-05 
  41134.2540     0.79805E-05 
  41166.5162     0.79969E-05 
  41198.7783     0.80130E-05 
  41231.0405     0.80291E-05 
  41263.3026     0.80449E-05 
  41295.5648     0.80606E-05 
  41327.8270     0.80761E-05 
  41360.0891     0.80915E-05 
  41392.3513     0.81067E-05 
  41424.6134     0.81217E-05 
  41456.8756     0.81366E-05 
  41489.1378     0.81513E-05 
  41521.3999     0.81658E-05 
  41553.6621     0.81802E-05 
  41585.9242     0.81944E-05 
  41618.1864     0.82084E-05 
  41650.4486     0.82222E-05 
  41682.7107     0.82359E-05 
  41714.9729     0.82494E-05 
  41747.2350     0.82627E-05 
  41779.4972     0.82759E-05 
  41811.7594     0.82889E-05 
  41844.0215     0.83017E-05 
  41876.2837     0.83143E-05 
  41908.5458     0.83267E-05 
  41940.8080     0.83390E-05 
  41973.0702     0.83511E-05 
  42005.3323     0.83630E-05 
  42037.5945     0.83747E-05 
  42069.8566     0.83863E-05 
  42102.1188     0.83976E-05 
  42134.3810     0.84088E-05 
  42166.6431     0.84198E-05 
  42198.9053     0.84306E-05 
  42231.1674     0.84413E-05 
  42263.4296     0.84517E-05 
  42295.6918     0.84620E-05 
  42327.9539     0.84721E-05 
  42360.2161     0.84820E-05 
  42392.4782     0.84917E-05 
  42424.7404     0.85012E-05 
  42457.0026     0.85106E-05 
  42489.2647     0.85197E-05 
  42521.5269     0.85287E-05 
  42553.7890     0.85374E-05 
  42586.0512     0.85460E-05 
  42618.3134     0.85544E-05 
  42650.5755     0.85626E-05 
  42682.8377     0.85707E-05 
  42715.0998     0.85785E-05 
  42747.3620     0.85861E-05 
  42779.6242     0.85936E-05 
  42811.8863     0.86008E-05 
  42844.1485     0.86079E-05 
  42876.4106     0.86148E-05 
  42908.6728     0.86215E-05 
  42940.9350     0.86280E-05 
  42973.1971     0.86343E-05 
  43005.4593     0.86404E-05 
  43037.7214     0.86463E-05 
  43069.9836     0.86520E-05 
  43102.2458     0.86576E-05 
  43134.5079     0.86629E-05 
  43166.7701     0.86681E-05 
  43199.0322     0.86730E-05 
  43231.2944     0.86778E-05 
  43263.5566     0.86823E-05 
  43295.8187     0.86867E-05 
  43328.0809     0.86909E-05 
  43360.3430     0.86949E-05 
  43392.6052     0.86987E-05 
  43424.8674     0.87023E-05 
  43457.1295     0.87057E-05 
  43489.3917     0.87089E-05 
  43521.6538     0.87119E-05 
  43553.9160     0.87147E-05 
  43586.1782     0.87173E-05 
  43618.4403     0.87198E-05 
  43650.7025     0.87220E-05 
  43682.9646     0.87241E-05 
  43715.2268     0.87259E-05 
  43747.4890     0.87276E-05 
  43779.7511     0.87291E-05 
  43812.0133     0.87303E-05 
  43844.2754     0.87314E-05 
  43876.5376     0.87323E-05 
  43908.7998     0.87330E-05 
  43941.0619     0.87335E-05 
  43973.3241     0.87338E-05 
  44005.5862     0.87339E-05 
  44037.8484     0.87338E-05 
  44070.1106     0.87336E-05 
  44102.3727     0.87331E-05 
  44134.6349     0.87324E-05 
  44166.8970     0.87316E-05 
  44199.1592     0.87306E-05 
  44231.4214     0.87293E-05 
  44263.6835     0.87279E-05 
  44295.9457     0.87263E-05 
  44328.2078     0.87245E-05 
  44360.4700     0.87225E-05 
  44392.7322     0.87203E-05 
  44424.9943     0.87180E-05 
  44457.2565     0.87154E-05 
  44489.5186     0.87127E-05 
  44521.7808     0.87097E-05 
  44554.0430     0.87066E-05 
  44586.3051     0.87033E-05 
  44618.5673     0.86998E-05 
  44650.8294     0.86961E-05 
  44683.0916     0.86923E-05 
  44715.3538     0.86882E-05 
  44747.6159     0.86840E-05 
  44779.8781     0.86795E-05 
  44812.1402     0.86749E-05 
  44844.4024     0.86701E-05 
  44876.6646     0.86652E-05 
  44908.9267     0.86600E-05 
  44941.1889     0.86546E-05 
  44973.4510     0.86491E-05 
  45005.7132     0.86434E-05 
  45037.9754     0.86375E-05 
  45070.2375     0.86315E-05 
  45102.4997     0.86252E-05 
  45134.7618     0.86188E-05 
  45167.0240     0.86122E-05 
  45199.2862     0.86054E-05 
  45231.5483     0.85984E-05 
  45263.8105     0.85913E-05 
  45296.0726     0.85840E-05 
  45328.3348     0.85765E-05 
  45360.5970     0.85688E-05 
  45392.8591     0.85610E-05 
  45425.1213     0.85530E-05 
  45457.3834     0.85448E-05 
  45489.6456     0.85364E-05 
  45521.9078     0.85279E-05 
  45554.1699     0.85192E-05 
  45586.4321     0.85103E-05 
  45618.6942     0.85013E-05 
  45650.9564     0.84920E-05 
  45683.2186     0.84827E-05 
  45715.4807     0.84731E-05 
  45747.7429     0.84634E-05 
  45780.0050     0.84535E-05 
  45812.2672     0.84435E-05 
  45844.5294     0.84332E-05 
  45876.7915     0.84229E-05 
  45909.0537     0.84123E-05 
  45941.3158     0.84016E-05 
  45973.5780     0.83908E-05 
  46005.8402     0.83797E-05 
  46038.1023     0.83686E-05 
  46070.3645     0.83572E-05 
  46102.6266     0.83457E-05 
  46134.8888     0.83341E-05 
  46167.1510     0.83222E-05 
  46199.4131     0.83103E-05 
  46231.6753     0.82981E-05 
  46263.9374     0.82859E-05 
  46296.1996     0.82734E-05 
  46328.4618     0.82608E-05 
  46360.7239     0.82481E-05 
  46392.9861     0.82352E-05 
  46425.2482     0.82222E-05 
  46457.5104     0.82090E-05 
  46489.7726     0.81957E-05 
  46522.0347     0.81822E-05 
  46554.2969     0.81686E-05 
  46586.5590     0.81548E-05 
  46618.8212     0.81409E-05 
  46651.0834     0.81268E-05 
  46683.3455     0.81126E-05 
  46715.6077     0.80983E-05 
  46747.8698     0.80838E-05 
  46780.1320     0.80692E-05 
  46812.3942     0.80544E-05 
  46844.6563     0.80395E-05 
  46876.9185     0.80245E-05 
  46909.1806     0.80093E-05 
  46941.4428     0.79940E-05 
  46973.7050     0.79786E-05 
  47005.9671     0.79630E-05 
  47038.2293     0.79473E-05 
  47070.4914     0.79314E-05 
  47102.7536     0.79155E-05 
  47135.0158     0.78994E-05 
  47167.2779     0.78832E-05 
  47199.5401     0.78668E-05 
  47231.8022     0.78503E-05 
  47264.0644     0.78337E-05 
  47296.3266     0.78170E-05 
  47328.5887     0.78002E-05 
  47360.8509     0.77832E-05 
  47393.1130     0.77661E-05 
  47425.3752     0.77489E-05 
  47457.6374     0.77316E-05 
  47489.8995     0.77142E-05 
  47522.1617     0.76966E-05 
  47554.4238     0.76789E-05 
  47586.6860     0.76611E-05 
  47618.9482     0.76432E-05 
  47651.2103     0.76252E-05 
  47683.4725     0.76071E-05 
  47715.7346     0.75889E-05 
  47747.9968     0.75705E-05 
  47780.2590     0.75521E-05 
  47812.5211     0.75335E-05 
  47844.7833     0.75149E-05 
  47877.0454     0.74961E-05 
  47909.3076     0.74772E-05 
  47941.5698     0.74583E-05 
  47973.8319     0.74392E-05 
  48006.0941     0.74200E-05 
  48038.3562     0.74007E-05 
  48070.6184     0.73814E-05 
  48102.8806     0.73619E-05 
  48135.1427     0.73423E-05 
  48167.4049     0.73227E-05 
  48199.6670     0.73029E-05 
  48231.9292     0.72831E-05 
  48264.1914     0.72631E-05 
  48296.4535     0.72431E-05 
  48328.7157     0.72230E-05 
  48360.9778     0.72028E-05 
  48393.2400     0.71825E-05 
  48425.5022     0.71621E-05 
  48457.7643     0.71416E-05 
  48490.0265     0.71211E-05 
  48522.2886     0.71004E-05 
  48554.5508     0.70797E-05 
  48586.8130     0.70589E-05 
  48619.0751     0.70381E-05 
  48651.3373     0.70171E-05 
  48683.5994     0.69961E-05 
  48715.8616     0.69750E-05 
  48748.1238     0.69538E-05 
  48780.3859     0.69325E-05 
  48812.6481     0.69112E-05 
  48844.9102     0.68898E-05 
  48877.1724     0.68683E-05 
  48909.4346     0.68468E-05 
  48941.6967     0.68252E-05 
  48973.9589     0.68035E-05 
  49006.2210     0.67818E-05 
  49038.4832     0.67599E-05 
  49070.7454     0.67381E-05 
  49103.0075     0.67161E-05 
  49135.2697     0.66941E-05 
  49167.5318     0.66721E-05 
  49199.7940     0.66499E-05 
  49232.0562     0.66278E-05 
  49264.3183     0.66055E-05 
  49296.5805     0.65832E-05 
  49328.8426     0.65609E-05 
  49361.1048     0.65385E-05 
  49393.3670     0.65160E-05 
  49425.6291     0.64935E-05 
  49457.8913     0.64709E-05 
  49490.1534     0.64483E-05 
  49522.4156     0.64256E-05 
  49554.6778     0.64029E-05 
  49586.9399     0.63802E-05 
  49619.2021     0.63574E-05 
  49651.4642     0.63345E-05 
  49683.7264     0.63116E-05 
  49715.9886     0.62887E-05 
  49748.2507     0.62657E-05 
  49780.5129     0.62427E-05 
  49812.7750     0.62196E-05 
  49845.0372     0.61965E-05 
  49877.2994     0.61734E-05 
  49909.5615     0.61502E-05 
  49941.8237     0.61270E-05 
  49974.0858     0.61037E-05 
  50006.3480     0.60804E-05 
  50038.6102     0.60571E-05 
  50070.8723     0.60338E-05 
  50103.1345     0.60104E-05 
  50135.3966     0.59870E-05 
  50167.6588     0.59636E-05 
  50199.9210     0.59401E-05 
  50232.1831     0.59166E-05 
  50264.4453     0.58931E-05 
  50296.7074     0.58695E-05 
  50328.9696     0.58460E-05 
  50361.2318     0.58224E-05 
  50393.4939     0.57988E-05 
  50425.7561     0.57751E-05 
  50458.0182     0.57515E-05 
  50490.2804     0.57278E-05 
  50522.5426     0.57041E-05 
  50554.8047     0.56804E-05 
  50587.0669     0.56567E-05 
  50619.3290     0.56329E-05 
  50651.5912     0.56092E-05 
  50683.8534     0.55854E-05 
  50716.1155     0.55616E-05 
  50748.3777     0.55378E-05 
  50780.6398     0.55140E-05 
  50812.9020     0.54902E-05 
  50845.1642     0.54664E-05 
  50877.4263     0.54425E-05 
  50909.6885     0.54187E-05 
  50941.9506     0.53949E-05 
  50974.2128     0.53710E-05 
  51006.4750     0.53471E-05 
  51038.7371     0.53233E-05 
  51070.9993     0.52994E-05 
  51103.2614     0.52756E-05 
  51135.5236     0.52517E-05 
  51167.7858     0.52278E-05 
  51200.0479     0.52040E-05 
  51232.3101     0.51801E-05 
  51264.5722     0.51562E-05 
  51296.8344     0.51324E-05 
  51329.0966     0.51085E-05 
  51361.3587     0.50847E-05 
  51393.6209     0.50608E-05 
  51425.8830     0.50370E-05 
  51458.1452     0.50132E-05 
  51490.4074     0.49893E-05 
  51522.6695     0.49655E-05 
  51554.9317     0.49417E-05 
  51587.1938     0.49179E-05 
  51619.4560     0.48941E-05 
  51651.7182     0.48704E-05 
  51683.9803     0.48466E-05 
  51716.2425     0.48229E-05 
  51748.5046     0.47991E-05 
  51780.7668     0.47754E-05 
  51813.0290     0.47517E-05 
  51845.2911     0.47280E-05 
  51877.5533     0.47044E-05 
  51909.8154     0.46807E-05 
  51942.0776     0.46571E-05 
  51974.3398     0.46335E-05 
  52006.6019     0.46099E-05 
  52038.8641     0.45863E-05 
  52071.1262     0.45628E-05 
  52103.3884     0.45393E-05 
  52135.6506     0.45158E-05 
  52167.9127     0.44923E-05 
  52200.1749     0.44688E-05 
  52232.4370     0.44454E-05 
  52264.6992     0.44220E-05 
  52296.9614     0.43986E-05 
  52329.2235     0.43753E-05 
  52361.4857     0.43520E-05 
  52393.7478     0.43287E-05 
  52426.0100     0.43054E-05 
  52458.2722     0.42822E-05 
  52490.5343     0.42590E-05 
  52522.7965     0.42358E-05 
  52555.0586     0.42127E-05 
  52587.3208     0.41895E-05 
  52619.5830     0.41665E-05 
  52651.8451     0.41434E-05 
  52684.1073     0.41204E-05 
  52716.3694     0.40974E-05 
  52748.6316     0.40745E-05 
  52780.8938     0.40516E-05 
  52813.1559     0.40287E-05 
  52845.4181     0.40059E-05 
  52877.6802     0.39831E-05 
  52909.9424     0.39604E-05 
  52942.2046     0.39377E-05 
  52974.4667     0.39150E-05 
  53006.7289     0.38924E-05 
  53038.9910     0.38698E-05 
  53071.2532     0.38472E-05 
  53103.5154     0.38247E-05 
  53135.7775     0.38022E-05 
  53168.0397     0.37798E-05 
  53200.3018     0.37574E-05 
  53232.5640     0.37351E-05 
  53264.8262     0.37128E-05 
  53297.0883     0.36905E-05 
  53329.3505     0.36683E-05 
  53361.6126     0.36462E-05 
  53393.8748     0.36241E-05 
  53426.1370     0.36020E-05 
  53458.3991     0.35800E-05 
  53490.6613     0.35580E-05 
  53522.9234     0.35361E-05 
  53555.1856     0.35142E-05 
  53587.4478     0.34924E-05 
  53619.7099     0.34706E-05 
  53651.9721     0.34489E-05 
  53684.2342     0.34272E-05 
  53716.4964     0.34055E-05 
  53748.7586     0.33840E-05 
  53781.0207     0.33624E-05 
  53813.2829     0.33410E-05 
  53845.5450     0.33195E-05 
  53877.8072     0.32982E-05 
  53910.0694     0.32769E-05 
  53942.3315     0.32556E-05 
  53974.5937     0.32344E-05 
  54006.8558     0.32132E-05 
  54039.1180     0.31921E-05 
  54071.3802     0.31711E-05 
  54103.6423     0.31501E-05 
  54135.9045     0.31292E-05 
  54168.1666     0.31083E-05 
  54200.4288     0.30875E-05 
  54232.6910     0.30667E-05 
  54264.9531     0.30460E-05 
  54297.2153     0.30253E-05 
  54329.4774     0.30047E-05 
  54361.7396     0.29842E-05 
  54394.0018     0.29637E-05 
  54426.2639     0.29433E-05 
  54458.5261     0.29229E-05 
  54490.7882     0.29026E-05 
  54523.0504     0.28824E-05 
  54555.3126     0.28622E-05 
  54587.5747     0.28421E-05 
  54619.8369     0.28220E-05 
  54652.0990     0.28020E-05 
  54684.3612     0.27821E-05 
  54716.6234     0.27622E-05 
  54748.8855     0.27424E-05 
  54781.1477     0.27227E-05 
  54813.4098     0.27030E-05 
  54845.6720     0.26833E-05 
  54877.9342     0.26638E-05 
  54910.1963     0.26443E-05 
  54942.4585     0.26248E-05 
  54974.7206     0.26055E-05 
  55006.9828     0.25861E-05 
  55039.2450     0.25669E-05 
  55071.5071     0.25477E-05 
  55103.7693     0.25286E-05 
  55136.0314     0.25095E-05 
  55168.2936     0.24906E-05 
  55200.5558     0.24716E-05 
  55232.8179     0.24528E-05 
  55265.0801     0.24340E-05 
  55297.3422     0.24152E-05 
  55329.6044     0.23966E-05 
  55361.8666     0.23780E-05 
  55394.1287     0.23594E-05 
  55426.3909     0.23410E-05 
  55458.6530     0.23226E-05 
  55490.9152     0.23043E-05 
  55523.1774     0.22860E-05 
  55555.4395     0.22678E-05 
  55587.7017     0.22497E-05 
  55619.9638     0.22316E-05 
  55652.2260     0.22136E-05 
  55684.4882     0.21957E-05 
  55716.7503     0.21778E-05 
  55749.0125     0.21600E-05 
  55781.2746     0.21423E-05 
  55813.5368     0.21247E-05 
  55845.7990     0.21071E-05 
  55878.0611     0.20896E-05 
  55910.3233     0.20721E-05 
  55942.5854     0.20547E-05 
  55974.8476     0.20374E-05 
  56007.1098     0.20202E-05 
  56039.3719     0.20030E-05 
  56071.6341     0.19859E-05 
  56103.8962     0.19689E-05 
  56136.1584     0.19519E-05 
  56168.4206     0.19350E-05 
  56200.6827     0.19182E-05 
  56232.9449     0.19014E-05 
  56265.2070     0.18848E-05 
  56297.4692     0.18682E-05 
  56329.7314     0.18516E-05 
  56361.9935     0.18351E-05 
  56394.2557     0.18187E-05 
  56426.5178     0.18024E-05 
  56458.7800     0.17862E-05 
  56491.0422     0.17700E-05 
  56523.3043     0.17539E-05 
  56555.5665     0.17378E-05 
  56587.8286     0.17218E-05 
  56620.0908     0.17059E-05 
  56652.3530     0.16901E-05 
  56684.6151     0.16743E-05 
  56716.8773     0.16587E-05 
  56749.1394     0.16430E-05 
  56781.4016     0.16275E-05 
  56813.6638     0.16120E-05 
  56845.9259     0.15966E-05 
  56878.1881     0.15813E-05 
  56910.4502     0.15661E-05 
  56942.7124     0.15509E-05 
  56974.9746     0.15358E-05 
  57007.2367     0.15207E-05 
  57039.4989     0.15058E-05 
  57071.7610     0.14909E-05 
  57104.0232     0.14760E-05 
  57136.2854     0.14613E-05 
  57168.5475     0.14466E-05 
  57200.8097     0.14320E-05 
  57233.0718     0.14175E-05 
  57265.3340     0.14030E-05 
  57297.5962     0.13887E-05 
  57329.8583     0.13743E-05 
  57362.1205     0.13601E-05 
  57394.3826     0.13459E-05 
  57426.6448     0.13319E-05 
  57458.9070     0.13178E-05 
  57491.1691     0.13039E-05 
  57523.4313     0.12900E-05 
  57555.6934     0.12762E-05 
  57587.9556     0.12625E-05 
  57620.2178     0.12489E-05 
  57652.4799     0.12353E-05 
  57684.7421     0.12218E-05 
  57717.0042     0.12084E-05 
  57749.2664     0.11950E-05 
  57781.5286     0.11817E-05 
  57813.7907     0.11685E-05 
  57846.0529     0.11554E-05 
  57878.3150     0.11424E-05 
  57910.5772     0.11294E-05 
  57942.8394     0.11165E-05 
  57975.1015     0.11037E-05 
  58007.3637     0.10909E-05 
  58039.6258     0.10782E-05 
  58071.8880     0.10656E-05 
  58104.1502     0.10531E-05 
  58136.4123     0.10406E-05 
  58168.6745     0.10283E-05 
  58200.9366     0.10160E-05 
  58233.1988     0.10037E-05 
  58265.4610     0.99158E-06 
  58297.7231     0.97951E-06 
  58329.9853     0.96751E-06 
  58362.2474     0.95559E-06 
  58394.5096     0.94374E-06 
  58426.7718     0.93197E-06 
  58459.0339     0.92028E-06 
  58491.2961     0.90867E-06 
  58523.5582     0.89713E-06 
  58555.8204     0.88566E-06 
  58588.0826     0.87428E-06 
  58620.3447     0.86297E-06 
  58652.6069     0.85174E-06 
  58684.8690     0.84058E-06 
  58717.1312     0.82951E-06 
  58749.3934     0.81851E-06 
  58781.6555     0.80759E-06 
  58813.9177     0.79675E-06 
  58846.1798     0.78598E-06 
  58878.4420     0.77530E-06 
  58910.7042     0.76469E-06 
  58942.9663     0.75417E-06 
  58975.2285     0.74372E-06 
  59007.4906     0.73335E-06 
  59039.7528     0.72306E-06 
  59072.0150     0.71285E-06 
  59104.2771     0.70272E-06 
  59136.5393     0.69267E-06 
  59168.8014     0.68270E-06 
  59201.0636     0.67281E-06 
  59233.3258     0.66300E-06 
  59265.5879     0.65327E-06 
  59297.8501     0.64363E-06 
  59330.1122     0.63406E-06 
  59362.3744     0.62458E-06 
  59394.6366     0.61518E-06 
  59426.8987     0.60586E-06 
  59459.1609     0.59663E-06 
  59491.4230     0.58747E-06 
  59523.6852     0.57840E-06 
  59555.9474     0.56942E-06 
  59588.2095     0.56052E-06 
  59620.4717     0.55170E-06 
  59652.7338     0.54296E-06 
  59684.9960     0.53432E-06 
  59717.2582     0.52575E-06 
  59749.5203     0.51727E-06 
  59781.7825     0.50888E-06 
  59814.0446     0.50058E-06 
  59846.3068     0.49236E-06 
  59878.5690     0.48423E-06 
  59910.8311     0.47618E-06 
  59943.0933     0.46822E-06 
  59975.3554     0.46035E-06 
  60007.6176     0.45257E-06 
  60039.8798     0.44488E-06 
  60072.1419     0.43728E-06 
  60104.4041     0.42977E-06 
  60136.6662     0.42235E-06 
  60168.9284     0.41502E-06 
  60201.1906     0.40778E-06 
  60233.4527     0.40063E-06 
  60265.7149     0.39357E-06 
  60297.9770     0.38661E-06 
  60330.2392     0.37974E-06 
  60362.5014     0.37297E-06 
  60394.7635     0.36628E-06 
  60427.0257     0.35970E-06 
  60459.2878     0.35321E-06 
  60491.5500     0.34681E-06 
  60523.8122     0.34052E-06 
  60556.0743     0.33431E-06 
  60588.3365     0.32821E-06 
  60620.5986     0.32221E-06 
  60652.8608     0.31630E-06 
  60685.1230     0.31050E-06 
  60717.3851     0.30479E-06 
  60749.6473     0.29919E-06 
  60781.9094     0.29369E-06 
  60814.1716     0.28829E-06 
  60846.4338     0.28299E-06 
  60878.6959     0.27780E-06 
  60910.9581     0.27271E-06 
  60943.2202     0.26773E-06 
  60975.4824     0.26285E-06 
  61007.7446     0.25809E-06 
  61040.0067     0.25342E-06 
  61072.2689     0.24887E-06 
  61104.5310     0.24443E-06 
  61136.7932     0.24010E-06 
  61169.0554     0.23588E-06 
  61201.3175     0.23177E-06 
  61233.5797     0.22777E-06 
  61265.8418     0.22389E-06 
  61298.1040     0.22012E-06 
  61330.3662     0.21647E-06 
  61362.6283     0.21293E-06 
  61394.8905     0.20952E-06 
  61427.1526     0.20622E-06 
  61459.4148     0.20304E-06 
  61491.6770     0.19998E-06 
  61523.9391     0.19704E-06 
  61556.2013     0.19423E-06 
  61588.4634     0.19154E-06 
  61620.7256     0.18898E-06 
  61652.9878     0.18654E-06 
  61685.2499     0.18423E-06 
  61717.5121     0.18204E-06 
  61749.7742     0.17999E-06 
  61782.0364     0.17807E-06 
  61814.2986     0.17628E-06 
  61846.5607     0.17462E-06 
  61878.8229     0.17310E-06 
  61911.0850     0.17171E-06 
  61943.3472     0.17046E-06 
  61975.6094     0.16935E-06 
  62007.8715     0.16838E-06 
  62040.1337     0.16755E-06 
  62072.3958     0.16686E-06 
  62104.6580     0.16631E-06 
  62136.9202     0.16592E-06 
  62169.1823     0.16566E-06 
  62201.4445     0.16556E-06 
  62233.7066     0.16561E-06 
  62265.9688     0.16580E-06 
  62298.2310     0.16615E-06 
  62330.4931     0.16666E-06 
  62362.7553     0.16732E-06 
  62395.0174     0.16814E-06 
  62427.2796     0.16911E-06 
  62459.5418     0.17025E-06 
  62491.8039     0.17155E-06 
  62524.0661     0.17302E-06 
  62556.3282     0.17465E-06 
  62588.5904     0.17644E-06 
  62620.8526     0.17841E-06 
  62653.1147     0.18055E-06 
  62685.3769     0.18286E-06 
  62717.6390     0.18535E-06 
  62749.9012     0.18801E-06 
  62782.1634     0.19086E-06 
  62814.4255     0.19388E-06 
  62846.6877     0.19709E-06 
  62878.9498     0.20048E-06 
  62911.2120     0.20405E-06 
  62943.4742     0.20782E-06 
  62975.7363     0.21178E-06 
  63007.9985     0.21593E-06 
  63040.2606     0.22027E-06 
  63072.5228     0.22481E-06 
  63104.7850     0.22955E-06 
  63137.0471     0.23450E-06 
  63169.3093     0.23964E-06 
  63201.5714     0.24499E-06 
  63233.8336     0.25055E-06 
  63266.0958     0.25633E-06 
  63298.3579     0.26231E-06 
  63330.6201     0.26851E-06 
  63362.8822     0.27493E-06 
  63395.1444     0.28157E-06 
  63427.4066     0.28843E-06 
  63459.6687     0.29551E-06 
  63491.9309     0.30282E-06 
  63524.1930     0.31037E-06 
  63556.4552     0.31815E-06 
  63588.7174     0.32616E-06 
  63620.9795     0.33441E-06 
  63653.2417     0.34290E-06 
  63685.5038     0.35164E-06 
  63717.7660     0.36062E-06 
  63750.0282     0.36985E-06 
  63782.2903     0.37933E-06 
  63814.5525     0.38907E-06 
  63846.8146     0.39907E-06 
  63879.0768     0.40932E-06 
  63911.3390     0.41984E-06 
  63943.6011     0.43063E-06 
  63975.8633     0.44169E-06 
  64008.1254     0.45302E-06 
  64040.3876     0.46462E-06 
  64072.6498     0.47651E-06 
  64104.9119     0.48868E-06 
  64137.1741     0.50113E-06 
  64169.4362     0.51387E-06 
  64201.6984     0.52690E-06 
  64233.9606     0.54023E-06 
  64266.2227     0.55386E-06 
  64298.4849     0.56779E-06 
  64330.7470     0.58202E-06 
  64363.0092     0.59656E-06 
  64395.2714     0.61142E-06 
  64427.5335     0.62659E-06 
  64459.7957     0.64208E-06 
  64492.0578     0.65789E-06 
  64524.3200     0.67403E-06 
  64556.5822     0.69050E-06 
  64588.8443     0.70730E-06 
  64621.1065     0.72444E-06 
  64653.3686     0.74193E-06 
  64685.6308     0.75976E-06 
  64717.8930     0.77793E-06 
  64750.1551     0.79646E-06 
  64782.4173     0.81535E-06 
  64814.6794     0.83460E-06 
  64846.9416     0.85421E-06 
  64879.2038     0.87419E-06 
  64911.4659     0.89455E-06 
  64943.7281     0.91528E-06 
  64975.9902     0.93639E-06 
  65008.2524     0.95789E-06 
  65040.5146     0.97978E-06 
  65072.7767     0.10021E-05 
  65105.0389     0.10247E-05 
  65137.3010     0.10478E-05 
  65169.5632     0.10713E-05 
  65201.8254     0.10952E-05 
  65234.0875     0.11195E-05 
  65266.3497     0.11443E-05 
  65298.6118     0.11694E-05 
  65330.8740     0.11950E-05 
  65363.1362     0.12210E-05 
  65395.3983     0.12475E-05 
  65427.6605     0.12744E-05 
  65459.9226     0.13018E-05 
  65492.1848     0.13296E-05 
  65524.4470     0.13578E-05 
  65556.7091     0.13866E-05 
  65588.9713     0.14158E-05 
  65621.2334     0.14454E-05 
  65653.4956     0.14756E-05 
  65685.7578     0.15062E-05 
  65718.0199     0.15373E-05 
  65750.2821     0.15689E-05 
  65782.5442     0.16010E-05 
  65814.8064     0.16336E-05 
  65847.0686     0.16667E-05 
  65879.3307     0.17004E-05 
  65911.5929     0.17345E-05 
  65943.8550     0.17692E-05 
  65976.1172     0.18044E-05 
  66008.3794     0.18401E-05 
  66040.6415     0.18764E-05 
  66072.9037     0.19132E-05 
  66105.1658     0.19505E-05 
  66137.4280     0.19885E-05 
  66169.6902     0.20270E-05 
  66201.9523     0.20660E-05 
  66234.2145     0.21056E-05 
  66266.4766     0.21458E-05 
  66298.7388     0.21866E-05 
  66331.0010     0.22280E-05 
  66363.2631     0.22700E-05 
  66395.5253     0.23125E-05 
  66427.7874     0.23557E-05 
  66460.0496     0.23995E-05 
  66492.3118     0.24439E-05 
  66524.5739     0.24889E-05 
  66556.8361     0.25346E-05 
  66589.0982     0.25809E-05 
  66621.3604     0.26278E-05 
  66653.6226     0.26754E-05 
  66685.8847     0.27237E-05 
  66718.1469     0.27726E-05 
  66750.4090     0.28222E-05 
  66782.6712     0.28724E-05 
  66814.9334     0.29234E-05 
  66847.1955     0.29750E-05 
  66879.4577     0.30273E-05 
  66911.7198     0.30803E-05 
  66943.9820     0.31340E-05 
  66976.2442     0.31884E-05 
  67008.5063     0.32436E-05 
  67040.7685     0.32994E-05 
  67073.0306     0.33560E-05 
  67105.2928     0.34134E-05 
  67137.5550     0.34714E-05 
  67169.8171     0.35303E-05 
  67202.0793     0.35899E-05 
  67234.3414     0.36502E-05 
  67266.6036     0.37113E-05 
  67298.8658     0.37732E-05 
  67331.1279     0.38359E-05 
  67363.3901     0.38994E-05 
  67395.6522     0.39636E-05 
  67427.9144     0.40287E-05 
  67460.1766     0.40946E-05 
  67492.4387     0.41613E-05 
  67524.7009     0.42288E-05 
  67556.9630     0.42971E-05 
  67589.2252     0.43663E-05 
  67621.4874     0.44364E-05 
  67653.7495     0.45073E-05 
  67686.0117     0.45790E-05 
  67718.2738     0.46516E-05 
  67750.5360     0.47251E-05 
  67782.7982     0.47995E-05 
  67815.0603     0.48747E-05 
  67847.3225     0.49508E-05 
  67879.5846     0.50279E-05 
  67911.8468     0.51058E-05 
  67944.1090     0.51847E-05 
  67976.3711     0.52645E-05 
  68008.6333     0.53452E-05 
  68040.8954     0.54269E-05 
  68073.1576     0.55095E-05 
  68105.4198     0.55930E-05 
  68137.6819     0.56775E-05 
  68169.9441     0.57630E-05 
  68202.2062     0.58494E-05 
  68234.4684     0.59368E-05 
  68266.7306     0.60252E-05 
  68298.9927     0.61146E-05 
  68331.2549     0.62050E-05 
  68363.5170     0.62964E-05 
  68395.7792     0.63888E-05 
  68428.0414     0.64823E-05 
  68460.3035     0.65767E-05 
  68492.5657     0.66722E-05 
  68524.8278     0.67688E-05 
  68557.0900     0.68664E-05 
  68589.3522     0.69650E-05 
  68621.6143     0.70648E-05 
  68653.8765     0.71656E-05 
  68686.1386     0.72674E-05 
  68718.4008     0.73704E-05 
  68750.6630     0.74744E-05 
  68782.9251     0.75796E-05 
  68815.1873     0.76859E-05 
  68847.4494     0.77932E-05 
  68879.7116     0.79017E-05 
  68911.9738     0.80114E-05 
  68944.2359     0.81221E-05 
  68976.4981     0.82340E-05 
  69008.7602     0.83471E-05 
  69041.0224     0.84613E-05 
  69073.2846     0.85767E-05 
  69105.5467     0.86933E-05 
  69137.8089     0.88110E-05 
  69170.0710     0.89299E-05 
  69202.3332     0.90500E-05 
  69234.5954     0.91714E-05 
  69266.8575     0.92939E-05 
  69299.1197     0.94176E-05 
  69331.3818     0.95426E-05 
  69363.6440     0.96688E-05 
  69395.9062     0.97962E-05 
  69428.1683     0.99249E-05 
  69460.4305     0.10055E-04 
  69492.6926     0.10186E-04 
  69524.9548     0.10318E-04 
  69557.2170     0.10452E-04 
  69589.4791     0.10587E-04 
  69621.7413     0.10723E-04 
  69654.0034     0.10861E-04 
  69686.2656     0.11000E-04 
  69718.5278     0.11140E-04 
  69750.7899     0.11281E-04 
  69783.0521     0.11424E-04 
  69815.3142     0.11568E-04 
  69847.5764     0.11714E-04 
  69879.8386     0.11860E-04 
  69912.1007     0.12008E-04 
  69944.3629     0.12158E-04 
  69976.6250     0.12309E-04 
  70008.8872     0.12461E-04 
  70041.1494     0.12614E-04 
  70073.4115     0.12769E-04 
  70105.6737     0.12926E-04 
  70137.9358     0.13083E-04 
  70170.1980     0.13242E-04 
  70202.4602     0.13403E-04 
  70234.7223     0.13564E-04 
  70266.9845     0.13728E-04 
  70299.2466     0.13892E-04 
  70331.5088     0.14058E-04 
  70363.7710     0.14226E-04 
  70396.0331     0.14395E-04 
  70428.2953     0.14565E-04 
  70460.5574     0.14737E-04 
  70492.8196     0.14910E-04 
  70525.0818     0.15085E-04 
  70557.3439     0.15261E-04 
  70589.6061     0.15439E-04 
  70621.8682     0.15618E-04 
  70654.1304     0.15799E-04 
  70686.3926     0.15981E-04 
  70718.6547     0.16164E-04 
  70750.9169     0.16349E-04 
  70783.1790     0.16536E-04 
  70815.4412     0.16724E-04 
  70847.7034     0.16913E-04 
  70879.9655     0.17104E-04 
  70912.2277     0.17297E-04 
  70944.4898     0.17491E-04 
  70976.7520     0.17686E-04 
  71009.0142     0.17883E-04 
  71041.2763     0.18082E-04 
  71073.5385     0.18282E-04 
  71105.8006     0.18484E-04 
  71138.0628     0.18687E-04 
  71170.3250     0.18892E-04 
  71202.5871     0.19098E-04 
  71234.8493     0.19306E-04 
  71267.1114     0.19515E-04 
  71299.3736     0.19726E-04 
  71331.6358     0.19939E-04 
  71363.8979     0.20153E-04 
  71396.1601     0.20368E-04 
  71428.4222     0.20586E-04 
  71460.6844     0.20804E-04 
  71492.9466     0.21025E-04 
  71525.2087     0.21247E-04 
  71557.4709     0.21470E-04 
  71589.7330     0.21695E-04 
  71621.9952     0.21922E-04 
  71654.2574     0.22150E-04 
  71686.5195     0.22380E-04 
  71718.7817     0.22612E-04 
  71751.0438     0.22845E-04 
  71783.3060     0.23079E-04 
  71815.5682     0.23315E-04 
  71847.8303     0.23553E-04 
  71880.0925     0.23793E-04 
  71912.3546     0.24034E-04 
  71944.6168     0.24276E-04 
  71976.8790     0.24521E-04 
  72009.1411     0.24766E-04 
  72041.4033     0.25014E-04 
  72073.6654     0.25263E-04 
  72105.9276     0.25514E-04 
  72138.1898     0.25766E-04 
  72170.4519     0.26020E-04 
  72202.7141     0.26275E-04 
  72234.9762     0.26532E-04 
  72267.2384     0.26791E-04 
  72299.5006     0.27051E-04 
  72331.7627     0.27313E-04 
  72364.0249     0.27577E-04 
  72396.2870     0.27842E-04 
  72428.5492     0.28108E-04 
  72460.8114     0.28377E-04 
  72493.0735     0.28647E-04 
  72525.3357     0.28918E-04 
  72557.5978     0.29191E-04 
  72589.8600     0.29466E-04 
