  32262.1600     0.52867E+02 
  32294.4222     0.53317E+02 
  32326.6843     0.53770E+02 
  32358.9465     0.54225E+02 
  32391.2086     0.54683E+02 
  32423.4708     0.55143E+02 
  32455.7330     0.55606E+02 
  32487.9951     0.56070E+02 
  32520.2573     0.56538E+02 
  32552.5194     0.57007E+02 
  32584.7816     0.57479E+02 
  32617.0438     0.57954E+02 
  32649.3059     0.58430E+02 
  32681.5681     0.58909E+02 
  32713.8302     0.59391E+02 
  32746.0924     0.59875E+02 
  32778.3546     0.60361E+02 
  32810.6167     0.60849E+02 
  32842.8789     0.61340E+02 
  32875.1410     0.61834E+02 
  32907.4032     0.62329E+02 
  32939.6654     0.62827E+02 
  32971.9275     0.63327E+02 
  33004.1897     0.63830E+02 
  33036.4518     0.64334E+02 
  33068.7140     0.64842E+02 
  33100.9762     0.65351E+02 
  33133.2383     0.65863E+02 
  33165.5005     0.66377E+02 
  33197.7626     0.66893E+02 
  33230.0248     0.67412E+02 
  33262.2870     0.67933E+02 
  33294.5491     0.68456E+02 
  33326.8113     0.68981E+02 
  33359.0734     0.69509E+02 
  33391.3356     0.70039E+02 
  33423.5978     0.70571E+02 
  33455.8599     0.71105E+02 
  33488.1221     0.71642E+02 
  33520.3842     0.72181E+02 
  33552.6464     0.72722E+02 
  33584.9086     0.73265E+02 
  33617.1707     0.73810E+02 
  33649.4329     0.74358E+02 
  33681.6950     0.74908E+02 
  33713.9572     0.75460E+02 
  33746.2194     0.76014E+02 
  33778.4815     0.76570E+02 
  33810.7437     0.77128E+02 
  33843.0058     0.77689E+02 
  33875.2680     0.78252E+02 
  33907.5302     0.78816E+02 
  33939.7923     0.79383E+02 
  33972.0545     0.79952E+02 
  34004.3166     0.80523E+02 
  34036.5788     0.81096E+02 
  34068.8410     0.81671E+02 
  34101.1031     0.82248E+02 
  34133.3653     0.82827E+02 
  34165.6274     0.83409E+02 
  34197.8896     0.83992E+02 
  34230.1518     0.84577E+02 
  34262.4139     0.85164E+02 
  34294.6761     0.85753E+02 
  34326.9382     0.86344E+02 
  34359.2004     0.86937E+02 
  34391.4626     0.87532E+02 
  34423.7247     0.88129E+02 
  34455.9869     0.88728E+02 
  34488.2490     0.89328E+02 
  34520.5112     0.89931E+02 
  34552.7734     0.90535E+02 
  34585.0355     0.91142E+02 
  34617.2977     0.91750E+02 
  34649.5598     0.92360E+02 
  34681.8220     0.92971E+02 
  34714.0842     0.93585E+02 
  34746.3463     0.94200E+02 
  34778.6085     0.94817E+02 
  34810.8706     0.95436E+02 
  34843.1328     0.96056E+02 
  34875.3950     0.96678E+02 
  34907.6571     0.97302E+02 
  34939.9193     0.97928E+02 
  34972.1814     0.98555E+02 
  35004.4436     0.99184E+02 
  35036.7058     0.99815E+02 
  35068.9679     0.10045E+03 
  35101.2301     0.10108E+03 
  35133.4922     0.10172E+03 
  35165.7544     0.10235E+03 
  35198.0166     0.10299E+03 
  35230.2787     0.10363E+03 
  35262.5409     0.10427E+03 
  35294.8030     0.10492E+03 
  35327.0652     0.10556E+03 
  35359.3274     0.10621E+03 
  35391.5895     0.10685E+03 
  35423.8517     0.10750E+03 
  35456.1138     0.10815E+03 
  35488.3760     0.10880E+03 
  35520.6382     0.10946E+03 
  35552.9003     0.11011E+03 
  35585.1625     0.11077E+03 
  35617.4246     0.11142E+03 
  35649.6868     0.11208E+03 
  35681.9490     0.11274E+03 
  35714.2111     0.11340E+03 
  35746.4733     0.11406E+03 
  35778.7354     0.11473E+03 
  35810.9976     0.11539E+03 
  35843.2598     0.11606E+03 
  35875.5219     0.11672E+03 
  35907.7841     0.11739E+03 
  35940.0462     0.11806E+03 
  35972.3084     0.11873E+03 
  36004.5706     0.11940E+03 
  36036.8327     0.12007E+03 
  36069.0949     0.12075E+03 
  36101.3570     0.12142E+03 
  36133.6192     0.12210E+03 
  36165.8814     0.12277E+03 
  36198.1435     0.12345E+03 
  36230.4057     0.12413E+03 
  36262.6678     0.12480E+03 
  36294.9300     0.12548E+03 
  36327.1922     0.12616E+03 
  36359.4543     0.12685E+03 
  36391.7165     0.12753E+03 
  36423.9786     0.12821E+03 
  36456.2408     0.12889E+03 
  36488.5030     0.12958E+03 
  36520.7651     0.13026E+03 
  36553.0273     0.13095E+03 
  36585.2894     0.13163E+03 
  36617.5516     0.13232E+03 
  36649.8138     0.13301E+03 
  36682.0759     0.13370E+03 
  36714.3381     0.13439E+03 
  36746.6002     0.13507E+03 
  36778.8624     0.13576E+03 
  36811.1246     0.13645E+03 
  36843.3867     0.13714E+03 
  36875.6489     0.13784E+03 
  36907.9110     0.13853E+03 
  36940.1732     0.13922E+03 
  36972.4354     0.13991E+03 
  37004.6975     0.14060E+03 
  37036.9597     0.14130E+03 
  37069.2218     0.14199E+03 
  37101.4840     0.14268E+03 
  37133.7462     0.14337E+03 
  37166.0083     0.14407E+03 
  37198.2705     0.14476E+03 
  37230.5326     0.14546E+03 
  37262.7948     0.14615E+03 
  37295.0570     0.14684E+03 
  37327.3191     0.14754E+03 
  37359.5813     0.14823E+03 
  37391.8434     0.14893E+03 
  37424.1056     0.14962E+03 
  37456.3678     0.15032E+03 
  37488.6299     0.15101E+03 
  37520.8921     0.15170E+03 
  37553.1542     0.15240E+03 
  37585.4164     0.15309E+03 
  37617.6786     0.15378E+03 
  37649.9407     0.15448E+03 
  37682.2029     0.15517E+03 
  37714.4650     0.15586E+03 
  37746.7272     0.15656E+03 
  37778.9894     0.15725E+03 
  37811.2515     0.15794E+03 
  37843.5137     0.15863E+03 
  37875.7758     0.15932E+03 
  37908.0380     0.16001E+03 
  37940.3002     0.16070E+03 
  37972.5623     0.16139E+03 
  38004.8245     0.16208E+03 
  38037.0866     0.16277E+03 
  38069.3488     0.16346E+03 
  38101.6110     0.16415E+03 
  38133.8731     0.16483E+03 
  38166.1353     0.16552E+03 
  38198.3974     0.16621E+03 
  38230.6596     0.16689E+03 
  38262.9218     0.16758E+03 
  38295.1839     0.16826E+03 
  38327.4461     0.16894E+03 
  38359.7082     0.16962E+03 
  38391.9704     0.17030E+03 
  38424.2326     0.17098E+03 
  38456.4947     0.17166E+03 
  38488.7569     0.17234E+03 
  38521.0190     0.17302E+03 
  38553.2812     0.17370E+03 
  38585.5434     0.17437E+03 
  38617.8055     0.17505E+03 
  38650.0677     0.17572E+03 
  38682.3298     0.17639E+03 
  38714.5920     0.17706E+03 
  38746.8542     0.17773E+03 
  38779.1163     0.17840E+03 
  38811.3785     0.17907E+03 
  38843.6406     0.17973E+03 
  38875.9028     0.18040E+03 
  38908.1650     0.18106E+03 
  38940.4271     0.18172E+03 
  38972.6893     0.18238E+03 
  39004.9514     0.18304E+03 
  39037.2136     0.18370E+03 
  39069.4758     0.18436E+03 
  39101.7379     0.18501E+03 
  39134.0001     0.18567E+03 
  39166.2622     0.18632E+03 
  39198.5244     0.18697E+03 
  39230.7866     0.18762E+03 
  39263.0487     0.18827E+03 
  39295.3109     0.18891E+03 
  39327.5730     0.18955E+03 
  39359.8352     0.19020E+03 
  39392.0974     0.19084E+03 
  39424.3595     0.19148E+03 
  39456.6217     0.19211E+03 
  39488.8838     0.19275E+03 
  39521.1460     0.19338E+03 
  39553.4082     0.19401E+03 
  39585.6703     0.19464E+03 
  39617.9325     0.19527E+03 
  39650.1946     0.19590E+03 
  39682.4568     0.19652E+03 
  39714.7190     0.19714E+03 
  39746.9811     0.19776E+03 
  39779.2433     0.19838E+03 
  39811.5054     0.19899E+03 
  39843.7676     0.19961E+03 
  39876.0298     0.20022E+03 
  39908.2919     0.20083E+03 
  39940.5541     0.20143E+03 
  39972.8162     0.20204E+03 
  40005.0784     0.20264E+03 
  40037.3406     0.20324E+03 
  40069.6027     0.20384E+03 
  40101.8649     0.20443E+03 
  40134.1270     0.20503E+03 
  40166.3892     0.20562E+03 
  40198.6514     0.20621E+03 
  40230.9135     0.20679E+03 
  40263.1757     0.20738E+03 
  40295.4378     0.20796E+03 
  40327.7000     0.20853E+03 
  40359.9622     0.20911E+03 
  40392.2243     0.20968E+03 
  40424.4865     0.21025E+03 
  40456.7486     0.21082E+03 
  40489.0108     0.21139E+03 
  40521.2730     0.21195E+03 
  40553.5351     0.21251E+03 
  40585.7973     0.21307E+03 
  40618.0594     0.21362E+03 
  40650.3216     0.21417E+03 
  40682.5838     0.21472E+03 
  40714.8459     0.21527E+03 
  40747.1081     0.21581E+03 
  40779.3702     0.21635E+03 
  40811.6324     0.21689E+03 
  40843.8946     0.21742E+03 
  40876.1567     0.21795E+03 
  40908.4189     0.21848E+03 
  40940.6810     0.21901E+03 
  40972.9432     0.21953E+03 
  41005.2054     0.22005E+03 
  41037.4675     0.22057E+03 
  41069.7297     0.22108E+03 
  41101.9918     0.22159E+03 
  41134.2540     0.22210E+03 
  41166.5162     0.22260E+03 
  41198.7783     0.22310E+03 
  41231.0405     0.22360E+03 
  41263.3026     0.22409E+03 
  41295.5648     0.22459E+03 
  41327.8270     0.22507E+03 
  41360.0891     0.22556E+03 
  41392.3513     0.22604E+03 
  41424.6134     0.22652E+03 
  41456.8756     0.22699E+03 
  41489.1378     0.22746E+03 
  41521.3999     0.22793E+03 
  41553.6621     0.22839E+03 
  41585.9242     0.22885E+03 
  41618.1864     0.22931E+03 
  41650.4486     0.22977E+03 
  41682.7107     0.23022E+03 
  41714.9729     0.23066E+03 
  41747.2350     0.23111E+03 
  41779.4972     0.23155E+03 
  41811.7594     0.23198E+03 
  41844.0215     0.23241E+03 
  41876.2837     0.23284E+03 
  41908.5458     0.23327E+03 
  41940.8080     0.23369E+03 
  41973.0702     0.23411E+03 
  42005.3323     0.23452E+03 
  42037.5945     0.23493E+03 
  42069.8566     0.23534E+03 
  42102.1188     0.23574E+03 
  42134.3810     0.23614E+03 
  42166.6431     0.23654E+03 
  42198.9053     0.23693E+03 
  42231.1674     0.23732E+03 
  42263.4296     0.23770E+03 
  42295.6918     0.23808E+03 
  42327.9539     0.23846E+03 
  42360.2161     0.23883E+03 
  42392.4782     0.23920E+03 
  42424.7404     0.23956E+03 
  42457.0026     0.23992E+03 
  42489.2647     0.24028E+03 
  42521.5269     0.24063E+03 
  42553.7890     0.24098E+03 
  42586.0512     0.24132E+03 
  42618.3134     0.24166E+03 
  42650.5755     0.24200E+03 
  42682.8377     0.24233E+03 
  42715.0998     0.24266E+03 
  42747.3620     0.24298E+03 
  42779.6242     0.24330E+03 
  42811.8863     0.24362E+03 
  42844.1485     0.24393E+03 
  42876.4106     0.24424E+03 
  42908.6728     0.24454E+03 
  42940.9350     0.24484E+03 
  42973.1971     0.24514E+03 
  43005.4593     0.24543E+03 
  43037.7214     0.24572E+03 
  43069.9836     0.24600E+03 
  43102.2458     0.24628E+03 
  43134.5079     0.24655E+03 
  43166.7701     0.24682E+03 
  43199.0322     0.24709E+03 
  43231.2944     0.24735E+03 
  43263.5566     0.24761E+03 
  43295.8187     0.24786E+03 
  43328.0809     0.24811E+03 
  43360.3430     0.24835E+03 
  43392.6052     0.24859E+03 
  43424.8674     0.24883E+03 
  43457.1295     0.24906E+03 
  43489.3917     0.24929E+03 
  43521.6538     0.24951E+03 
  43553.9160     0.24973E+03 
  43586.1782     0.24994E+03 
  43618.4403     0.25015E+03 
  43650.7025     0.25036E+03 
  43682.9646     0.25056E+03 
  43715.2268     0.25076E+03 
  43747.4890     0.25095E+03 
  43779.7511     0.25113E+03 
  43812.0133     0.25132E+03 
  43844.2754     0.25150E+03 
  43876.5376     0.25167E+03 
  43908.7998     0.25184E+03 
  43941.0619     0.25201E+03 
  43973.3241     0.25217E+03 
  44005.5862     0.25232E+03 
  44037.8484     0.25248E+03 
  44070.1106     0.25262E+03 
  44102.3727     0.25277E+03 
  44134.6349     0.25291E+03 
  44166.8970     0.25304E+03 
  44199.1592     0.25317E+03 
  44231.4214     0.25329E+03 
  44263.6835     0.25341E+03 
  44295.9457     0.25353E+03 
  44328.2078     0.25364E+03 
  44360.4700     0.25375E+03 
  44392.7322     0.25385E+03 
  44424.9943     0.25395E+03 
  44457.2565     0.25404E+03 
  44489.5186     0.25413E+03 
  44521.7808     0.25422E+03 
  44554.0430     0.25430E+03 
  44586.3051     0.25437E+03 
  44618.5673     0.25444E+03 
  44650.8294     0.25451E+03 
  44683.0916     0.25457E+03 
  44715.3538     0.25463E+03 
  44747.6159     0.25468E+03 
  44779.8781     0.25473E+03 
  44812.1402     0.25478E+03 
  44844.4024     0.25482E+03 
  44876.6646     0.25485E+03 
  44908.9267     0.25488E+03 
  44941.1889     0.25491E+03 
  44973.4510     0.25493E+03 
  45005.7132     0.25494E+03 
  45037.9754     0.25496E+03 
  45070.2375     0.25496E+03 
  45102.4997     0.25497E+03 
  45134.7618     0.25497E+03 
  45167.0240     0.25496E+03 
  45199.2862     0.25495E+03 
  45231.5483     0.25494E+03 
  45263.8105     0.25492E+03 
  45296.0726     0.25489E+03 
  45328.3348     0.25486E+03 
  45360.5970     0.25483E+03 
  45392.8591     0.25479E+03 
  45425.1213     0.25475E+03 
  45457.3834     0.25471E+03 
  45489.6456     0.25466E+03 
  45521.9078     0.25460E+03 
  45554.1699     0.25454E+03 
  45586.4321     0.25448E+03 
  45618.6942     0.25441E+03 
  45650.9564     0.25434E+03 
  45683.2186     0.25426E+03 
  45715.4807     0.25418E+03 
  45747.7429     0.25409E+03 
  45780.0050     0.25400E+03 
  45812.2672     0.25390E+03 
  45844.5294     0.25380E+03 
  45876.7915     0.25370E+03 
  45909.0537     0.25359E+03 
  45941.3158     0.25348E+03 
  45973.5780     0.25336E+03 
  46005.8402     0.25324E+03 
  46038.1023     0.25312E+03 
  46070.3645     0.25299E+03 
  46102.6266     0.25285E+03 
  46134.8888     0.25271E+03 
  46167.1510     0.25257E+03 
  46199.4131     0.25242E+03 
  46231.6753     0.25227E+03 
  46263.9374     0.25211E+03 
  46296.1996     0.25195E+03 
  46328.4618     0.25179E+03 
  46360.7239     0.25162E+03 
  46392.9861     0.25145E+03 
  46425.2482     0.25127E+03 
  46457.5104     0.25109E+03 
  46489.7726     0.25090E+03 
  46522.0347     0.25071E+03 
  46554.2969     0.25052E+03 
  46586.5590     0.25032E+03 
  46618.8212     0.25012E+03 
  46651.0834     0.24991E+03 
  46683.3455     0.24970E+03 
  46715.6077     0.24948E+03 
  46747.8698     0.24926E+03 
  46780.1320     0.24904E+03 
  46812.3942     0.24881E+03 
  46844.6563     0.24858E+03 
  46876.9185     0.24835E+03 
  46909.1806     0.24811E+03 
  46941.4428     0.24786E+03 
  46973.7050     0.24762E+03 
  47005.9671     0.24736E+03 
  47038.2293     0.24711E+03 
  47070.4914     0.24685E+03 
  47102.7536     0.24658E+03 
  47135.0158     0.24632E+03 
  47167.2779     0.24604E+03 
  47199.5401     0.24577E+03 
  47231.8022     0.24549E+03 
  47264.0644     0.24521E+03 
  47296.3266     0.24492E+03 
  47328.5887     0.24463E+03 
  47360.8509     0.24433E+03 
  47393.1130     0.24403E+03 
  47425.3752     0.24373E+03 
  47457.6374     0.24342E+03 
  47489.8995     0.24311E+03 
  47522.1617     0.24280E+03 
  47554.4238     0.24248E+03 
  47586.6860     0.24216E+03 
  47618.9482     0.24183E+03 
  47651.2103     0.24150E+03 
  47683.4725     0.24117E+03 
  47715.7346     0.24083E+03 
  47747.9968     0.24049E+03 
  47780.2590     0.24015E+03 
  47812.5211     0.23980E+03 
  47844.7833     0.23945E+03 
  47877.0454     0.23909E+03 
  47909.3076     0.23874E+03 
  47941.5698     0.23837E+03 
  47973.8319     0.23801E+03 
  48006.0941     0.23764E+03 
  48038.3562     0.23727E+03 
  48070.6184     0.23689E+03 
  48102.8806     0.23651E+03 
  48135.1427     0.23613E+03 
  48167.4049     0.23574E+03 
  48199.6670     0.23535E+03 
  48231.9292     0.23496E+03 
  48264.1914     0.23456E+03 
  48296.4535     0.23416E+03 
  48328.7157     0.23375E+03 
  48360.9778     0.23335E+03 
  48393.2400     0.23294E+03 
  48425.5022     0.23252E+03 
  48457.7643     0.23211E+03 
  48490.0265     0.23169E+03 
  48522.2886     0.23126E+03 
  48554.5508     0.23084E+03 
  48586.8130     0.23041E+03 
  48619.0751     0.22997E+03 
  48651.3373     0.22954E+03 
  48683.5994     0.22910E+03 
  48715.8616     0.22866E+03 
  48748.1238     0.22821E+03 
  48780.3859     0.22776E+03 
  48812.6481     0.22731E+03 
  48844.9102     0.22686E+03 
  48877.1724     0.22640E+03 
  48909.4346     0.22594E+03 
  48941.6967     0.22547E+03 
  48973.9589     0.22501E+03 
  49006.2210     0.22454E+03 
  49038.4832     0.22406E+03 
  49070.7454     0.22359E+03 
  49103.0075     0.22311E+03 
  49135.2697     0.22263E+03 
  49167.5318     0.22215E+03 
  49199.7940     0.22166E+03 
  49232.0562     0.22117E+03 
  49264.3183     0.22068E+03 
  49296.5805     0.22018E+03 
  49328.8426     0.21968E+03 
  49361.1048     0.21918E+03 
  49393.3670     0.21868E+03 
  49425.6291     0.21817E+03 
  49457.8913     0.21767E+03 
  49490.1534     0.21715E+03 
  49522.4156     0.21664E+03 
  49554.6778     0.21612E+03 
  49586.9399     0.21561E+03 
  49619.2021     0.21508E+03 
  49651.4642     0.21456E+03 
  49683.7264     0.21403E+03 
  49715.9886     0.21351E+03 
  49748.2507     0.21297E+03 
  49780.5129     0.21244E+03 
  49812.7750     0.21190E+03 
  49845.0372     0.21137E+03 
  49877.2994     0.21082E+03 
  49909.5615     0.21028E+03 
  49941.8237     0.20974E+03 
  49974.0858     0.20919E+03 
  50006.3480     0.20864E+03 
  50038.6102     0.20809E+03 
  50070.8723     0.20753E+03 
  50103.1345     0.20697E+03 
  50135.3966     0.20642E+03 
  50167.6588     0.20585E+03 
  50199.9210     0.20529E+03 
  50232.1831     0.20473E+03 
  50264.4453     0.20416E+03 
  50296.7074     0.20359E+03 
  50328.9696     0.20302E+03 
  50361.2318     0.20244E+03 
  50393.4939     0.20187E+03 
  50425.7561     0.20129E+03 
  50458.0182     0.20071E+03 
  50490.2804     0.20013E+03 
  50522.5426     0.19955E+03 
  50554.8047     0.19896E+03 
  50587.0669     0.19837E+03 
  50619.3290     0.19778E+03 
  50651.5912     0.19719E+03 
  50683.8534     0.19660E+03 
  50716.1155     0.19601E+03 
  50748.3777     0.19541E+03 
  50780.6398     0.19481E+03 
  50812.9020     0.19421E+03 
  50845.1642     0.19361E+03 
  50877.4263     0.19301E+03 
  50909.6885     0.19240E+03 
  50941.9506     0.19180E+03 
  50974.2128     0.19119E+03 
  51006.4750     0.19058E+03 
  51038.7371     0.18997E+03 
  51070.9993     0.18936E+03 
  51103.2614     0.18874E+03 
  51135.5236     0.18813E+03 
  51167.7858     0.18751E+03 
  51200.0479     0.18689E+03 
  51232.3101     0.18627E+03 
  51264.5722     0.18565E+03 
  51296.8344     0.18503E+03 
  51329.0966     0.18441E+03 
  51361.3587     0.18378E+03 
  51393.6209     0.18315E+03 
  51425.8830     0.18253E+03 
  51458.1452     0.18190E+03 
  51490.4074     0.18127E+03 
  51522.6695     0.18063E+03 
  51554.9317     0.18000E+03 
  51587.1938     0.17937E+03 
  51619.4560     0.17873E+03 
  51651.7182     0.17810E+03 
  51683.9803     0.17746E+03 
  51716.2425     0.17682E+03 
  51748.5046     0.17618E+03 
  51780.7668     0.17554E+03 
  51813.0290     0.17490E+03 
  51845.2911     0.17426E+03 
  51877.5533     0.17361E+03 
  51909.8154     0.17297E+03 
  51942.0776     0.17232E+03 
  51974.3398     0.17168E+03 
  52006.6019     0.17103E+03 
  52038.8641     0.17038E+03 
  52071.1262     0.16973E+03 
  52103.3884     0.16908E+03 
  52135.6506     0.16843E+03 
  52167.9127     0.16778E+03 
  52200.1749     0.16713E+03 
  52232.4370     0.16647E+03 
  52264.6992     0.16582E+03 
  52296.9614     0.16517E+03 
  52329.2235     0.16451E+03 
  52361.4857     0.16386E+03 
  52393.7478     0.16320E+03 
  52426.0100     0.16254E+03 
  52458.2722     0.16188E+03 
  52490.5343     0.16123E+03 
  52522.7965     0.16057E+03 
  52555.0586     0.15991E+03 
  52587.3208     0.15925E+03 
  52619.5830     0.15859E+03 
  52651.8451     0.15793E+03 
  52684.1073     0.15727E+03 
  52716.3694     0.15660E+03 
  52748.6316     0.15594E+03 
  52780.8938     0.15528E+03 
  52813.1559     0.15462E+03 
  52845.4181     0.15395E+03 
  52877.6802     0.15329E+03 
  52909.9424     0.15263E+03 
  52942.2046     0.15196E+03 
  52974.4667     0.15130E+03 
  53006.7289     0.15063E+03 
  53038.9910     0.14997E+03 
  53071.2532     0.14930E+03 
  53103.5154     0.14864E+03 
  53135.7775     0.14797E+03 
  53168.0397     0.14731E+03 
  53200.3018     0.14664E+03 
  53232.5640     0.14598E+03 
  53264.8262     0.14531E+03 
  53297.0883     0.14464E+03 
  53329.3505     0.14398E+03 
  53361.6126     0.14331E+03 
  53393.8748     0.14265E+03 
  53426.1370     0.14198E+03 
  53458.3991     0.14131E+03 
  53490.6613     0.14065E+03 
  53522.9234     0.13998E+03 
  53555.1856     0.13932E+03 
  53587.4478     0.13865E+03 
  53619.7099     0.13798E+03 
  53651.9721     0.13732E+03 
  53684.2342     0.13665E+03 
  53716.4964     0.13599E+03 
  53748.7586     0.13532E+03 
  53781.0207     0.13466E+03 
  53813.2829     0.13399E+03 
  53845.5450     0.13333E+03 
  53877.8072     0.13267E+03 
  53910.0694     0.13200E+03 
  53942.3315     0.13134E+03 
  53974.5937     0.13067E+03 
  54006.8558     0.13001E+03 
  54039.1180     0.12935E+03 
  54071.3802     0.12869E+03 
  54103.6423     0.12803E+03 
  54135.9045     0.12736E+03 
  54168.1666     0.12670E+03 
  54200.4288     0.12604E+03 
  54232.6910     0.12538E+03 
  54264.9531     0.12472E+03 
  54297.2153     0.12406E+03 
  54329.4774     0.12341E+03 
  54361.7396     0.12275E+03 
  54394.0018     0.12209E+03 
  54426.2639     0.12143E+03 
  54458.5261     0.12078E+03 
  54490.7882     0.12012E+03 
  54523.0504     0.11947E+03 
  54555.3126     0.11881E+03 
  54587.5747     0.11816E+03 
  54619.8369     0.11751E+03 
  54652.0990     0.11685E+03 
  54684.3612     0.11620E+03 
  54716.6234     0.11555E+03 
  54748.8855     0.11490E+03 
  54781.1477     0.11425E+03 
  54813.4098     0.11360E+03 
  54845.6720     0.11296E+03 
  54877.9342     0.11231E+03 
  54910.1963     0.11166E+03 
  54942.4585     0.11102E+03 
  54974.7206     0.11037E+03 
  55006.9828     0.10973E+03 
  55039.2450     0.10909E+03 
  55071.5071     0.10845E+03 
  55103.7693     0.10781E+03 
  55136.0314     0.10717E+03 
  55168.2936     0.10653E+03 
  55200.5558     0.10589E+03 
  55232.8179     0.10525E+03 
  55265.0801     0.10462E+03 
  55297.3422     0.10398E+03 
  55329.6044     0.10335E+03 
  55361.8666     0.10272E+03 
  55394.1287     0.10208E+03 
  55426.3909     0.10145E+03 
  55458.6530     0.10082E+03 
  55490.9152     0.10020E+03 
  55523.1774     0.99570E+02 
  55555.4395     0.98944E+02 
  55587.7017     0.98319E+02 
  55619.9638     0.97696E+02 
  55652.2260     0.97073E+02 
  55684.4882     0.96452E+02 
  55716.7503     0.95833E+02 
  55749.0125     0.95214E+02 
  55781.2746     0.94597E+02 
  55813.5368     0.93981E+02 
  55845.7990     0.93367E+02 
  55878.0611     0.92753E+02 
  55910.3233     0.92142E+02 
  55942.5854     0.91531E+02 
  55974.8476     0.90922E+02 
  56007.1098     0.90314E+02 
  56039.3719     0.89708E+02 
  56071.6341     0.89103E+02 
  56103.8962     0.88500E+02 
  56136.1584     0.87898E+02 
  56168.4206     0.87297E+02 
  56200.6827     0.86698E+02 
  56232.9449     0.86101E+02 
  56265.2070     0.85505E+02 
  56297.4692     0.84911E+02 
  56329.7314     0.84318E+02 
  56361.9935     0.83727E+02 
  56394.2557     0.83137E+02 
  56426.5178     0.82549E+02 
  56458.7800     0.81963E+02 
  56491.0422     0.81378E+02 
  56523.3043     0.80795E+02 
  56555.5665     0.80214E+02 
  56587.8286     0.79634E+02 
  56620.0908     0.79056E+02 
  56652.3530     0.78480E+02 
  56684.6151     0.77906E+02 
  56716.8773     0.77333E+02 
  56749.1394     0.76762E+02 
  56781.4016     0.76193E+02 
  56813.6638     0.75626E+02 
  56845.9259     0.75060E+02 
  56878.1881     0.74497E+02 
  56910.4502     0.73935E+02 
  56942.7124     0.73375E+02 
  56974.9746     0.72818E+02 
  57007.2367     0.72262E+02 
  57039.4989     0.71708E+02 
  57071.7610     0.71156E+02 
  57104.0232     0.70606E+02 
  57136.2854     0.70058E+02 
  57168.5475     0.69512E+02 
  57200.8097     0.68968E+02 
  57233.0718     0.68426E+02 
  57265.3340     0.67886E+02 
  57297.5962     0.67348E+02 
  57329.8583     0.66813E+02 
  57362.1205     0.66279E+02 
  57394.3826     0.65748E+02 
  57426.6448     0.65219E+02 
  57458.9070     0.64692E+02 
  57491.1691     0.64167E+02 
  57523.4313     0.63644E+02 
  57555.6934     0.63124E+02 
  57587.9556     0.62606E+02 
  57620.2178     0.62090E+02 
  57652.4799     0.61577E+02 
  57684.7421     0.61065E+02 
  57717.0042     0.60557E+02 
  57749.2664     0.60050E+02 
  57781.5286     0.59546E+02 
  57813.7907     0.59045E+02 
  57846.0529     0.58545E+02 
  57878.3150     0.58048E+02 
  57910.5772     0.57554E+02 
  57942.8394     0.57062E+02 
  57975.1015     0.56573E+02 
  58007.3637     0.56086E+02 
  58039.6258     0.55602E+02 
  58071.8880     0.55120E+02 
  58104.1502     0.54641E+02 
  58136.4123     0.54165E+02 
  58168.6745     0.53691E+02 
  58200.9366     0.53220E+02 
  58233.1988     0.52751E+02 
  58265.4610     0.52285E+02 
  58297.7231     0.51822E+02 
  58329.9853     0.51362E+02 
  58362.2474     0.50904E+02 
  58394.5096     0.50449E+02 
  58426.7718     0.49997E+02 
  58459.0339     0.49548E+02 
  58491.2961     0.49102E+02 
  58523.5582     0.48659E+02 
  58555.8204     0.48218E+02 
  58588.0826     0.47781E+02 
  58620.3447     0.47346E+02 
  58652.6069     0.46915E+02 
  58684.8690     0.46486E+02 
  58717.1312     0.46060E+02 
  58749.3934     0.45638E+02 
  58781.6555     0.45219E+02 
  58813.9177     0.44802E+02 
  58846.1798     0.44389E+02 
  58878.4420     0.43979E+02 
  58910.7042     0.43572E+02 
  58942.9663     0.43169E+02 
  58975.2285     0.42769E+02 
  59007.4906     0.42372E+02 
  59039.7528     0.41978E+02 
  59072.0150     0.41587E+02 
  59104.2771     0.41200E+02 
  59136.5393     0.40817E+02 
  59168.8014     0.40436E+02 
  59201.0636     0.40060E+02 
  59233.3258     0.39686E+02 
  59265.5879     0.39316E+02 
  59297.8501     0.38950E+02 
  59330.1122     0.38587E+02 
  59362.3744     0.38228E+02 
  59394.6366     0.37873E+02 
  59426.8987     0.37521E+02 
  59459.1609     0.37173E+02 
  59491.4230     0.36828E+02 
  59523.6852     0.36487E+02 
  59555.9474     0.36150E+02 
  59588.2095     0.35817E+02 
  59620.4717     0.35488E+02 
  59652.7338     0.35163E+02 
  59684.9960     0.34841E+02 
  59717.2582     0.34523E+02 
  59749.5203     0.34210E+02 
  59781.7825     0.33900E+02 
  59814.0446     0.33595E+02 
  59846.3068     0.33293E+02 
  59878.5690     0.32996E+02 
  59910.8311     0.32703E+02 
  59943.0933     0.32414E+02 
  59975.3554     0.32129E+02 
  60007.6176     0.31848E+02 
  60039.8798     0.31572E+02 
  60072.1419     0.31300E+02 
  60104.4041     0.31033E+02 
  60136.6662     0.30770E+02 
  60168.9284     0.30511E+02 
  60201.1906     0.30257E+02 
  60233.4527     0.30007E+02 
  60265.7149     0.29762E+02 
  60297.9770     0.29522E+02 
  60330.2392     0.29286E+02 
  60362.5014     0.29055E+02 
  60394.7635     0.28828E+02 
  60427.0257     0.28607E+02 
  60459.2878     0.28390E+02 
  60491.5500     0.28178E+02 
  60523.8122     0.27971E+02 
  60556.0743     0.27769E+02 
  60588.3365     0.27572E+02 
  60620.5986     0.27380E+02 
  60652.8608     0.27193E+02 
  60685.1230     0.27011E+02 
  60717.3851     0.26834E+02 
  60749.6473     0.26663E+02 
  60781.9094     0.26496E+02 
  60814.1716     0.26336E+02 
  60846.4338     0.26180E+02 
  60878.6959     0.26030E+02 
  60910.9581     0.25885E+02 
  60943.2202     0.25746E+02 
  60975.4824     0.25612E+02 
  61007.7446     0.25484E+02 
  61040.0067     0.25362E+02 
  61072.2689     0.25245E+02 
  61104.5310     0.25134E+02 
  61136.7932     0.25029E+02 
  61169.0554     0.24929E+02 
  61201.3175     0.24836E+02 
  61233.5797     0.24748E+02 
  61265.8418     0.24667E+02 
  61298.1040     0.24591E+02 
  61330.3662     0.24522E+02 
  61362.6283     0.24459E+02 
  61394.8905     0.24402E+02 
  61427.1526     0.24351E+02 
  61459.4148     0.24307E+02 
  61491.6770     0.24269E+02 
  61523.9391     0.24238E+02 
  61556.2013     0.24213E+02 
  61588.4634     0.24194E+02 
  61620.7256     0.24182E+02 
  61652.9878     0.24177E+02 
  61685.2499     0.24179E+02 
  61717.5121     0.24188E+02 
  61749.7742     0.24203E+02 
  61782.0364     0.24225E+02 
  61814.2986     0.24254E+02 
  61846.5607     0.24291E+02 
  61878.8229     0.24334E+02 
  61911.0850     0.24385E+02 
  61943.3472     0.24443E+02 
  61975.6094     0.24508E+02 
  62007.8715     0.24580E+02 
  62040.1337     0.24660E+02 
  62072.3958     0.24748E+02 
  62104.6580     0.24843E+02 
  62136.9202     0.24946E+02 
  62169.1823     0.25056E+02 
  62201.4445     0.25174E+02 
  62233.7066     0.25300E+02 
  62265.9688     0.25434E+02 
  62298.2310     0.25576E+02 
  62330.4931     0.25726E+02 
  62362.7553     0.25885E+02 
  62395.0174     0.26051E+02 
  62427.2796     0.26226E+02 
  62459.5418     0.26409E+02 
  62491.8039     0.26600E+02 
  62524.0661     0.26800E+02 
  62556.3282     0.27008E+02 
  62588.5904     0.27225E+02 
  62620.8526     0.27451E+02 
  62653.1147     0.27686E+02 
  62685.3769     0.27929E+02 
  62717.6390     0.28182E+02 
  62749.9012     0.28443E+02 
  62782.1634     0.28714E+02 
  62814.4255     0.28994E+02 
  62846.6877     0.29283E+02 
  62878.9498     0.29581E+02 
  62911.2120     0.29889E+02 
  62943.4742     0.30207E+02 
  62975.7363     0.30534E+02 
  63007.9985     0.30870E+02 
  63040.2606     0.31217E+02 
  63072.5228     0.31573E+02 
  63104.7850     0.31939E+02 
  63137.0471     0.32315E+02 
  63169.3093     0.32702E+02 
  63201.5714     0.33098E+02 
  63233.8336     0.33505E+02 
  63266.0958     0.33922E+02 
  63298.3579     0.34350E+02 
  63330.6201     0.34788E+02 
  63362.8822     0.35237E+02 
  63395.1444     0.35697E+02 
  63427.4066     0.36167E+02 
  63459.6687     0.36648E+02 
  63491.9309     0.37141E+02 
  63524.1930     0.37644E+02 
  63556.4552     0.38159E+02 
  63588.7174     0.38685E+02 
  63620.9795     0.39222E+02 
  63653.2417     0.39771E+02 
  63685.5038     0.40331E+02 
  63717.7660     0.40903E+02 
  63750.0282     0.41487E+02 
  63782.2903     0.42082E+02 
  63814.5525     0.42690E+02 
  63846.8146     0.43310E+02 
  63879.0768     0.43941E+02 
  63911.3390     0.44585E+02 
  63943.6011     0.45242E+02 
  63975.8633     0.45911E+02 
  64008.1254     0.46592E+02 
  64040.3876     0.47286E+02 
  64072.6498     0.47993E+02 
  64104.9119     0.48713E+02 
  64137.1741     0.49445E+02 
  64169.4362     0.50191E+02 
  64201.6984     0.50950E+02 
  64233.9606     0.51722E+02 
  64266.2227     0.52508E+02 
  64298.4849     0.53307E+02 
  64330.7470     0.54120E+02 
  64363.0092     0.54946E+02 
  64395.2714     0.55787E+02 
  64427.5335     0.56641E+02 
  64459.7957     0.57509E+02 
  64492.0578     0.58391E+02 
  64524.3200     0.59288E+02 
  64556.5822     0.60199E+02 
  64588.8443     0.61125E+02 
  64621.1065     0.62065E+02 
  64653.3686     0.63020E+02 
  64685.6308     0.63989E+02 
  64717.8930     0.64974E+02 
  64750.1551     0.65974E+02 
  64782.4173     0.66989E+02 
  64814.6794     0.68019E+02 
  64846.9416     0.69064E+02 
  64879.2038     0.70125E+02 
  64911.4659     0.71202E+02 
  64943.7281     0.72294E+02 
  64975.9902     0.73403E+02 
  65008.2524     0.74527E+02 
  65040.5146     0.75667E+02 
  65072.7767     0.76824E+02 
  65105.0389     0.77997E+02 
  65137.3010     0.79186E+02 
  65169.5632     0.80392E+02 
  65201.8254     0.81615E+02 
  65234.0875     0.82855E+02 
  65266.3497     0.84111E+02 
  65298.6118     0.85385E+02 
  65330.8740     0.86675E+02 
  65363.1362     0.87983E+02 
  65395.3983     0.89309E+02 
  65427.6605     0.90652E+02 
  65459.9226     0.92013E+02 
  65492.1848     0.93391E+02 
  65524.4470     0.94788E+02 
  65556.7091     0.96202E+02 
  65588.9713     0.97635E+02 
  65621.2334     0.99086E+02 
  65653.4956     0.10056E+03 
  65685.7578     0.10204E+03 
  65718.0199     0.10355E+03 
  65750.2821     0.10508E+03 
  65782.5442     0.10662E+03 
  65814.8064     0.10818E+03 
  65847.0686     0.10977E+03 
  65879.3307     0.11137E+03 
  65911.5929     0.11299E+03 
  65943.8550     0.11463E+03 
  65976.1172     0.11629E+03 
  66008.3794     0.11797E+03 
  66040.6415     0.11967E+03 
  66072.9037     0.12139E+03 
  66105.1658     0.12314E+03 
  66137.4280     0.12490E+03 
  66169.6902     0.12668E+03 
  66201.9523     0.12848E+03 
  66234.2145     0.13031E+03 
  66266.4766     0.13215E+03 
  66298.7388     0.13401E+03 
  66331.0010     0.13590E+03 
  66363.2631     0.13781E+03 
  66395.5253     0.13974E+03 
  66427.7874     0.14169E+03 
  66460.0496     0.14366E+03 
  66492.3118     0.14566E+03 
  66524.5739     0.14767E+03 
  66556.8361     0.14971E+03 
  66589.0982     0.15177E+03 
  66621.3604     0.15385E+03 
  66653.6226     0.15596E+03 
  66685.8847     0.15809E+03 
  66718.1469     0.16024E+03 
  66750.4090     0.16241E+03 
  66782.6712     0.16461E+03 
  66814.9334     0.16683E+03 
  66847.1955     0.16907E+03 
  66879.4577     0.17134E+03 
  66911.7198     0.17363E+03 
  66943.9820     0.17594E+03 
  66976.2442     0.17828E+03 
  67008.5063     0.18064E+03 
  67040.7685     0.18302E+03 
  67073.0306     0.18543E+03 
  67105.2928     0.18787E+03 
  67137.5550     0.19033E+03 
  67169.8171     0.19281E+03 
  67202.0793     0.19532E+03 
  67234.3414     0.19785E+03 
  67266.6036     0.20041E+03 
  67298.8658     0.20299E+03 
  67331.1279     0.20560E+03 
  67363.3901     0.20823E+03 
  67395.6522     0.21089E+03 
  67427.9144     0.21357E+03 
  67460.1766     0.21628E+03 
  67492.4387     0.21902E+03 
  67524.7009     0.22178E+03 
  67556.9630     0.22457E+03 
  67589.2252     0.22739E+03 
  67621.4874     0.23023E+03 
  67653.7495     0.23310E+03 
  67686.0117     0.23599E+03 
  67718.2738     0.23891E+03 
  67750.5360     0.24186E+03 
  67782.7982     0.24483E+03 
  67815.0603     0.24784E+03 
  67847.3225     0.25087E+03 
  67879.5846     0.25392E+03 
  67911.8468     0.25701E+03 
  67944.1090     0.26012E+03 
  67976.3711     0.26326E+03 
  68008.6333     0.26643E+03 
  68040.8954     0.26963E+03 
  68073.1576     0.27285E+03 
  68105.4198     0.27610E+03 
  68137.6819     0.27938E+03 
  68169.9441     0.28269E+03 
  68202.2062     0.28603E+03 
  68234.4684     0.28940E+03 
  68266.7306     0.29280E+03 
  68298.9927     0.29622E+03 
  68331.2549     0.29968E+03 
  68363.5170     0.30316E+03 
  68395.7792     0.30667E+03 
  68428.0414     0.31021E+03 
  68460.3035     0.31379E+03 
  68492.5657     0.31739E+03 
  68524.8278     0.32102E+03 
  68557.0900     0.32468E+03 
  68589.3522     0.32837E+03 
  68621.6143     0.33210E+03 
  68653.8765     0.33585E+03 
  68686.1386     0.33963E+03 
  68718.4008     0.34344E+03 
  68750.6630     0.34729E+03 
  68782.9251     0.35116E+03 
  68815.1873     0.35507E+03 
  68847.4494     0.35900E+03 
  68879.7116     0.36297E+03 
  68911.9738     0.36697E+03 
  68944.2359     0.37100E+03 
  68976.4981     0.37506E+03 
  69008.7602     0.37915E+03 
  69041.0224     0.38327E+03 
  69073.2846     0.38743E+03 
  69105.5467     0.39162E+03 
  69137.8089     0.39584E+03 
  69170.0710     0.40009E+03 
  69202.3332     0.40437E+03 
  69234.5954     0.40869E+03 
  69266.8575     0.41303E+03 
  69299.1197     0.41741E+03 
  69331.3818     0.42182E+03 
  69363.6440     0.42627E+03 
  69395.9062     0.43075E+03 
  69428.1683     0.43525E+03 
  69460.4305     0.43980E+03 
  69492.6926     0.44437E+03 
  69524.9548     0.44898E+03 
  69557.2170     0.45362E+03 
  69589.4791     0.45830E+03 
  69621.7413     0.46300E+03 
  69654.0034     0.46774E+03 
  69686.2656     0.47252E+03 
  69718.5278     0.47732E+03 
  69750.7899     0.48216E+03 
  69783.0521     0.48704E+03 
  69815.3142     0.49195E+03 
  69847.5764     0.49689E+03 
  69879.8386     0.50186E+03 
  69912.1007     0.50687E+03 
  69944.3629     0.51191E+03 
  69976.6250     0.51699E+03 
  70008.8872     0.52210E+03 
  70041.1494     0.52724E+03 
  70073.4115     0.53242E+03 
  70105.6737     0.53763E+03 
  70137.9358     0.54288E+03 
  70170.1980     0.54816E+03 
  70202.4602     0.55348E+03 
  70234.7223     0.55883E+03 
  70266.9845     0.56421E+03 
  70299.2466     0.56963E+03 
  70331.5088     0.57508E+03 
  70363.7710     0.58057E+03 
  70396.0331     0.58609E+03 
  70428.2953     0.59164E+03 
  70460.5574     0.59724E+03 
  70492.8196     0.60286E+03 
  70525.0818     0.60852E+03 
  70557.3439     0.61422E+03 
  70589.6061     0.61995E+03 
  70621.8682     0.62571E+03 
  70654.1304     0.63151E+03 
  70686.3926     0.63734E+03 
  70718.6547     0.64321E+03 
  70750.9169     0.64912E+03 
  70783.1790     0.65506E+03 
  70815.4412     0.66103E+03 
  70847.7034     0.66704E+03 
  70879.9655     0.67308E+03 
  70912.2277     0.67916E+03 
  70944.4898     0.68527E+03 
  70976.7520     0.69142E+03 
  71009.0142     0.69761E+03 
  71041.2763     0.70382E+03 
  71073.5385     0.71008E+03 
  71105.8006     0.71637E+03 
  71138.0628     0.72269E+03 
  71170.3250     0.72905E+03 
  71202.5871     0.73544E+03 
  71234.8493     0.74187E+03 
  71267.1114     0.74833E+03 
  71299.3736     0.75483E+03 
  71331.6358     0.76136E+03 
  71363.8979     0.76793E+03 
  71396.1601     0.77453E+03 
  71428.4222     0.78117E+03 
  71460.6844     0.78784E+03 
  71492.9466     0.79455E+03 
  71525.2087     0.80129E+03 
  71557.4709     0.80807E+03 
  71589.7330     0.81488E+03 
  71621.9952     0.82173E+03 
  71654.2574     0.82861E+03 
  71686.5195     0.83552E+03 
  71718.7817     0.84247E+03 
  71751.0438     0.84946E+03 
  71783.3060     0.85648E+03 
  71815.5682     0.86353E+03 
  71847.8303     0.87062E+03 
  71880.0925     0.87774E+03 
  71912.3546     0.88490E+03 
  71944.6168     0.89209E+03 
  71976.8790     0.89931E+03 
  72009.1411     0.90657E+03 
  72041.4033     0.91386E+03 
  72073.6654     0.92119E+03 
  72105.9276     0.92855E+03 
  72138.1898     0.93594E+03 
  72170.4519     0.94337E+03 
  72202.7141     0.95083E+03 
  72234.9762     0.95833E+03 
  72267.2384     0.96585E+03 
  72299.5006     0.97342E+03 
  72331.7627     0.98101E+03 
  72364.0249     0.98864E+03 
  72396.2870     0.99630E+03 
  72428.5492     0.10040E+04 
  72460.8114     0.10117E+04 
  72493.0735     0.10195E+04 
  72525.3357     0.10273E+04 
  72557.5978     0.10351E+04 
  72589.8600     0.10430E+04 
