  32262.1600     0.45509E-04 
  32294.4222     0.45942E-04 
  32326.6843     0.46378E-04 
  32358.9465     0.46817E-04 
  32391.2086     0.47258E-04 
  32423.4708     0.47702E-04 
  32455.7330     0.48149E-04 
  32487.9951     0.48598E-04 
  32520.2573     0.49050E-04 
  32552.5194     0.49504E-04 
  32584.7816     0.49962E-04 
  32617.0438     0.50421E-04 
  32649.3059     0.50884E-04 
  32681.5681     0.51349E-04 
  32713.8302     0.51816E-04 
  32746.0924     0.52286E-04 
  32778.3546     0.52759E-04 
  32810.6167     0.53234E-04 
  32842.8789     0.53712E-04 
  32875.1410     0.54193E-04 
  32907.4032     0.54676E-04 
  32939.6654     0.55162E-04 
  32971.9275     0.55650E-04 
  33004.1897     0.56141E-04 
  33036.4518     0.56634E-04 
  33068.7140     0.57130E-04 
  33100.9762     0.57629E-04 
  33133.2383     0.58130E-04 
  33165.5005     0.58634E-04 
  33197.7626     0.59140E-04 
  33230.0248     0.59649E-04 
  33262.2870     0.60160E-04 
  33294.5491     0.60674E-04 
  33326.8113     0.61190E-04 
  33359.0734     0.61709E-04 
  33391.3356     0.62230E-04 
  33423.5978     0.62754E-04 
  33455.8599     0.63280E-04 
  33488.1221     0.63809E-04 
  33520.3842     0.64340E-04 
  33552.6464     0.64873E-04 
  33584.9086     0.65409E-04 
  33617.1707     0.65948E-04 
  33649.4329     0.66489E-04 
  33681.6950     0.67032E-04 
  33713.9572     0.67578E-04 
  33746.2194     0.68126E-04 
  33778.4815     0.68676E-04 
  33810.7437     0.69229E-04 
  33843.0058     0.69784E-04 
  33875.2680     0.70342E-04 
  33907.5302     0.70902E-04 
  33939.7923     0.71464E-04 
  33972.0545     0.72028E-04 
  34004.3166     0.72595E-04 
  34036.5788     0.73164E-04 
  34068.8410     0.73735E-04 
  34101.1031     0.74309E-04 
  34133.3653     0.74885E-04 
  34165.6274     0.75463E-04 
  34197.8896     0.76043E-04 
  34230.1518     0.76625E-04 
  34262.4139     0.77210E-04 
  34294.6761     0.77797E-04 
  34326.9382     0.78386E-04 
  34359.2004     0.78977E-04 
  34391.4626     0.79570E-04 
  34423.7247     0.80165E-04 
  34455.9869     0.80762E-04 
  34488.2490     0.81362E-04 
  34520.5112     0.81963E-04 
  34552.7734     0.82567E-04 
  34585.0355     0.83173E-04 
  34617.2977     0.83780E-04 
  34649.5598     0.84390E-04 
  34681.8220     0.85001E-04 
  34714.0842     0.85615E-04 
  34746.3463     0.86230E-04 
  34778.6085     0.86847E-04 
  34810.8706     0.87467E-04 
  34843.1328     0.88088E-04 
  34875.3950     0.88711E-04 
  34907.6571     0.89335E-04 
  34939.9193     0.89962E-04 
  34972.1814     0.90590E-04 
  35004.4436     0.91220E-04 
  35036.7058     0.91852E-04 
  35068.9679     0.92486E-04 
  35101.2301     0.93121E-04 
  35133.4922     0.93758E-04 
  35165.7544     0.94397E-04 
  35198.0166     0.95038E-04 
  35230.2787     0.95680E-04 
  35262.5409     0.96323E-04 
  35294.8030     0.96968E-04 
  35327.0652     0.97615E-04 
  35359.3274     0.98263E-04 
  35391.5895     0.98913E-04 
  35423.8517     0.99565E-04 
  35456.1138     0.10022E-03 
  35488.3760     0.10087E-03 
  35520.6382     0.10153E-03 
  35552.9003     0.10218E-03 
  35585.1625     0.10284E-03 
  35617.4246     0.10350E-03 
  35649.6868     0.10416E-03 
  35681.9490     0.10483E-03 
  35714.2111     0.10549E-03 
  35746.4733     0.10615E-03 
  35778.7354     0.10682E-03 
  35810.9976     0.10749E-03 
  35843.2598     0.10816E-03 
  35875.5219     0.10883E-03 
  35907.7841     0.10950E-03 
  35940.0462     0.11017E-03 
  35972.3084     0.11084E-03 
  36004.5706     0.11152E-03 
  36036.8327     0.11219E-03 
  36069.0949     0.11287E-03 
  36101.3570     0.11354E-03 
  36133.6192     0.11422E-03 
  36165.8814     0.11490E-03 
  36198.1435     0.11558E-03 
  36230.4057     0.11626E-03 
  36262.6678     0.11694E-03 
  36294.9300     0.11762E-03 
  36327.1922     0.11831E-03 
  36359.4543     0.11899E-03 
  36391.7165     0.11967E-03 
  36423.9786     0.12036E-03 
  36456.2408     0.12104E-03 
  36488.5030     0.12173E-03 
  36520.7651     0.12242E-03 
  36553.0273     0.12311E-03 
  36585.2894     0.12379E-03 
  36617.5516     0.12448E-03 
  36649.8138     0.12517E-03 
  36682.0759     0.12586E-03 
  36714.3381     0.12655E-03 
  36746.6002     0.12724E-03 
  36778.8624     0.12793E-03 
  36811.1246     0.12862E-03 
  36843.3867     0.12931E-03 
  36875.6489     0.13000E-03 
  36907.9110     0.13069E-03 
  36940.1732     0.13139E-03 
  36972.4354     0.13208E-03 
  37004.6975     0.13277E-03 
  37036.9597     0.13346E-03 
  37069.2218     0.13415E-03 
  37101.4840     0.13485E-03 
  37133.7462     0.13554E-03 
  37166.0083     0.13623E-03 
  37198.2705     0.13692E-03 
  37230.5326     0.13761E-03 
  37262.7948     0.13830E-03 
  37295.0570     0.13900E-03 
  37327.3191     0.13969E-03 
  37359.5813     0.14038E-03 
  37391.8434     0.14107E-03 
  37424.1056     0.14176E-03 
  37456.3678     0.14245E-03 
  37488.6299     0.14314E-03 
  37520.8921     0.14383E-03 
  37553.1542     0.14452E-03 
  37585.4164     0.14521E-03 
  37617.6786     0.14589E-03 
  37649.9407     0.14658E-03 
  37682.2029     0.14727E-03 
  37714.4650     0.14796E-03 
  37746.7272     0.14864E-03 
  37778.9894     0.14933E-03 
  37811.2515     0.15001E-03 
  37843.5137     0.15069E-03 
  37875.7758     0.15138E-03 
  37908.0380     0.15206E-03 
  37940.3002     0.15274E-03 
  37972.5623     0.15342E-03 
  38004.8245     0.15410E-03 
  38037.0866     0.15478E-03 
  38069.3488     0.15546E-03 
  38101.6110     0.15613E-03 
  38133.8731     0.15681E-03 
  38166.1353     0.15748E-03 
  38198.3974     0.15816E-03 
  38230.6596     0.15883E-03 
  38262.9218     0.15950E-03 
  38295.1839     0.16017E-03 
  38327.4461     0.16084E-03 
  38359.7082     0.16150E-03 
  38391.9704     0.16217E-03 
  38424.2326     0.16283E-03 
  38456.4947     0.16350E-03 
  38488.7569     0.16416E-03 
  38521.0190     0.16482E-03 
  38553.2812     0.16548E-03 
  38585.5434     0.16613E-03 
  38617.8055     0.16679E-03 
  38650.0677     0.16744E-03 
  38682.3298     0.16810E-03 
  38714.5920     0.16875E-03 
  38746.8542     0.16940E-03 
  38779.1163     0.17004E-03 
  38811.3785     0.17069E-03 
  38843.6406     0.17133E-03 
  38875.9028     0.17197E-03 
  38908.1650     0.17261E-03 
  38940.4271     0.17325E-03 
  38972.6893     0.17389E-03 
  39004.9514     0.17452E-03 
  39037.2136     0.17516E-03 
  39069.4758     0.17579E-03 
  39101.7379     0.17641E-03 
  39134.0001     0.17704E-03 
  39166.2622     0.17766E-03 
  39198.5244     0.17829E-03 
  39230.7866     0.17891E-03 
  39263.0487     0.17952E-03 
  39295.3109     0.18014E-03 
  39327.5730     0.18075E-03 
  39359.8352     0.18136E-03 
  39392.0974     0.18197E-03 
  39424.3595     0.18257E-03 
  39456.6217     0.18318E-03 
  39488.8838     0.18378E-03 
  39521.1460     0.18438E-03 
  39553.4082     0.18497E-03 
  39585.6703     0.18557E-03 
  39617.9325     0.18616E-03 
  39650.1946     0.18675E-03 
  39682.4568     0.18733E-03 
  39714.7190     0.18791E-03 
  39746.9811     0.18849E-03 
  39779.2433     0.18907E-03 
  39811.5054     0.18964E-03 
  39843.7676     0.19022E-03 
  39876.0298     0.19079E-03 
  39908.2919     0.19135E-03 
  39940.5541     0.19191E-03 
  39972.8162     0.19247E-03 
  40005.0784     0.19303E-03 
  40037.3406     0.19359E-03 
  40069.6027     0.19414E-03 
  40101.8649     0.19469E-03 
  40134.1270     0.19523E-03 
  40166.3892     0.19577E-03 
  40198.6514     0.19631E-03 
  40230.9135     0.19685E-03 
  40263.1757     0.19738E-03 
  40295.4378     0.19791E-03 
  40327.7000     0.19844E-03 
  40359.9622     0.19896E-03 
  40392.2243     0.19948E-03 
  40424.4865     0.19999E-03 
  40456.7486     0.20051E-03 
  40489.0108     0.20102E-03 
  40521.2730     0.20152E-03 
  40553.5351     0.20202E-03 
  40585.7973     0.20252E-03 
  40618.0594     0.20302E-03 
  40650.3216     0.20351E-03 
  40682.5838     0.20400E-03 
  40714.8459     0.20448E-03 
  40747.1081     0.20497E-03 
  40779.3702     0.20544E-03 
  40811.6324     0.20592E-03 
  40843.8946     0.20639E-03 
  40876.1567     0.20685E-03 
  40908.4189     0.20732E-03 
  40940.6810     0.20778E-03 
  40972.9432     0.20823E-03 
  41005.2054     0.20868E-03 
  41037.4675     0.20913E-03 
  41069.7297     0.20958E-03 
  41101.9918     0.21002E-03 
  41134.2540     0.21045E-03 
  41166.5162     0.21088E-03 
  41198.7783     0.21131E-03 
  41231.0405     0.21174E-03 
  41263.3026     0.21216E-03 
  41295.5648     0.21257E-03 
  41327.8270     0.21299E-03 
  41360.0891     0.21339E-03 
  41392.3513     0.21380E-03 
  41424.6134     0.21420E-03 
  41456.8756     0.21460E-03 
  41489.1378     0.21499E-03 
  41521.3999     0.21538E-03 
  41553.6621     0.21576E-03 
  41585.9242     0.21614E-03 
  41618.1864     0.21651E-03 
  41650.4486     0.21688E-03 
  41682.7107     0.21725E-03 
  41714.9729     0.21761E-03 
  41747.2350     0.21797E-03 
  41779.4972     0.21833E-03 
  41811.7594     0.21868E-03 
  41844.0215     0.21902E-03 
  41876.2837     0.21936E-03 
  41908.5458     0.21970E-03 
  41940.8080     0.22003E-03 
  41973.0702     0.22036E-03 
  42005.3323     0.22068E-03 
  42037.5945     0.22100E-03 
  42069.8566     0.22132E-03 
  42102.1188     0.22163E-03 
  42134.3810     0.22193E-03 
  42166.6431     0.22223E-03 
  42198.9053     0.22253E-03 
  42231.1674     0.22282E-03 
  42263.4296     0.22311E-03 
  42295.6918     0.22339E-03 
  42327.9539     0.22367E-03 
  42360.2161     0.22394E-03 
  42392.4782     0.22421E-03 
  42424.7404     0.22448E-03 
  42457.0026     0.22474E-03 
  42489.2647     0.22499E-03 
  42521.5269     0.22525E-03 
  42553.7890     0.22549E-03 
  42586.0512     0.22573E-03 
  42618.3134     0.22597E-03 
  42650.5755     0.22620E-03 
  42682.8377     0.22643E-03 
  42715.0998     0.22665E-03 
  42747.3620     0.22687E-03 
  42779.6242     0.22708E-03 
  42811.8863     0.22729E-03 
  42844.1485     0.22750E-03 
  42876.4106     0.22770E-03 
  42908.6728     0.22789E-03 
  42940.9350     0.22808E-03 
  42973.1971     0.22827E-03 
  43005.4593     0.22845E-03 
  43037.7214     0.22862E-03 
  43069.9836     0.22879E-03 
  43102.2458     0.22896E-03 
  43134.5079     0.22912E-03 
  43166.7701     0.22928E-03 
  43199.0322     0.22943E-03 
  43231.2944     0.22957E-03 
  43263.5566     0.22972E-03 
  43295.8187     0.22985E-03 
  43328.0809     0.22999E-03 
  43360.3430     0.23011E-03 
  43392.6052     0.23024E-03 
  43424.8674     0.23035E-03 
  43457.1295     0.23047E-03 
  43489.3917     0.23057E-03 
  43521.6538     0.23068E-03 
  43553.9160     0.23078E-03 
  43586.1782     0.23087E-03 
  43618.4403     0.23096E-03 
  43650.7025     0.23104E-03 
  43682.9646     0.23112E-03 
  43715.2268     0.23120E-03 
  43747.4890     0.23127E-03 
  43779.7511     0.23133E-03 
  43812.0133     0.23139E-03 
  43844.2754     0.23144E-03 
  43876.5376     0.23149E-03 
  43908.7998     0.23154E-03 
  43941.0619     0.23158E-03 
  43973.3241     0.23162E-03 
  44005.5862     0.23165E-03 
  44037.8484     0.23167E-03 
  44070.1106     0.23169E-03 
  44102.3727     0.23171E-03 
  44134.6349     0.23172E-03 
  44166.8970     0.23173E-03 
  44199.1592     0.23173E-03 
  44231.4214     0.23173E-03 
  44263.6835     0.23172E-03 
  44295.9457     0.23171E-03 
  44328.2078     0.23169E-03 
  44360.4700     0.23167E-03 
  44392.7322     0.23164E-03 
  44424.9943     0.23161E-03 
  44457.2565     0.23157E-03 
  44489.5186     0.23153E-03 
  44521.7808     0.23148E-03 
  44554.0430     0.23143E-03 
  44586.3051     0.23138E-03 
  44618.5673     0.23132E-03 
  44650.8294     0.23125E-03 
  44683.0916     0.23118E-03 
  44715.3538     0.23111E-03 
  44747.6159     0.23103E-03 
  44779.8781     0.23095E-03 
  44812.1402     0.23086E-03 
  44844.4024     0.23076E-03 
  44876.6646     0.23067E-03 
  44908.9267     0.23056E-03 
  44941.1889     0.23046E-03 
  44973.4510     0.23035E-03 
  45005.7132     0.23023E-03 
  45037.9754     0.23011E-03 
  45070.2375     0.22998E-03 
  45102.4997     0.22985E-03 
  45134.7618     0.22972E-03 
  45167.0240     0.22958E-03 
  45199.2862     0.22944E-03 
  45231.5483     0.22929E-03 
  45263.8105     0.22913E-03 
  45296.0726     0.22898E-03 
  45328.3348     0.22881E-03 
  45360.5970     0.22865E-03 
  45392.8591     0.22848E-03 
  45425.1213     0.22830E-03 
  45457.3834     0.22812E-03 
  45489.6456     0.22794E-03 
  45521.9078     0.22775E-03 
  45554.1699     0.22756E-03 
  45586.4321     0.22736E-03 
  45618.6942     0.22716E-03 
  45650.9564     0.22695E-03 
  45683.2186     0.22674E-03 
  45715.4807     0.22653E-03 
  45747.7429     0.22631E-03 
  45780.0050     0.22608E-03 
  45812.2672     0.22585E-03 
  45844.5294     0.22562E-03 
  45876.7915     0.22539E-03 
  45909.0537     0.22515E-03 
  45941.3158     0.22490E-03 
  45973.5780     0.22465E-03 
  46005.8402     0.22440E-03 
  46038.1023     0.22414E-03 
  46070.3645     0.22388E-03 
  46102.6266     0.22362E-03 
  46134.8888     0.22335E-03 
  46167.1510     0.22307E-03 
  46199.4131     0.22279E-03 
  46231.6753     0.22251E-03 
  46263.9374     0.22223E-03 
  46296.1996     0.22194E-03 
  46328.4618     0.22164E-03 
  46360.7239     0.22135E-03 
  46392.9861     0.22104E-03 
  46425.2482     0.22074E-03 
  46457.5104     0.22043E-03 
  46489.7726     0.22012E-03 
  46522.0347     0.21980E-03 
  46554.2969     0.21948E-03 
  46586.5590     0.21915E-03 
  46618.8212     0.21882E-03 
  46651.0834     0.21849E-03 
  46683.3455     0.21815E-03 
  46715.6077     0.21781E-03 
  46747.8698     0.21747E-03 
  46780.1320     0.21712E-03 
  46812.3942     0.21677E-03 
  46844.6563     0.21642E-03 
  46876.9185     0.21606E-03 
  46909.1806     0.21570E-03 
  46941.4428     0.21533E-03 
  46973.7050     0.21496E-03 
  47005.9671     0.21459E-03 
  47038.2293     0.21421E-03 
  47070.4914     0.21383E-03 
  47102.7536     0.21345E-03 
  47135.0158     0.21306E-03 
  47167.2779     0.21267E-03 
  47199.5401     0.21228E-03 
  47231.8022     0.21188E-03 
  47264.0644     0.21148E-03 
  47296.3266     0.21108E-03 
  47328.5887     0.21067E-03 
  47360.8509     0.21026E-03 
  47393.1130     0.20985E-03 
  47425.3752     0.20943E-03 
  47457.6374     0.20901E-03 
  47489.8995     0.20859E-03 
  47522.1617     0.20816E-03 
  47554.4238     0.20773E-03 
  47586.6860     0.20730E-03 
  47618.9482     0.20686E-03 
  47651.2103     0.20642E-03 
  47683.4725     0.20598E-03 
  47715.7346     0.20554E-03 
  47747.9968     0.20509E-03 
  47780.2590     0.20464E-03 
  47812.5211     0.20418E-03 
  47844.7833     0.20373E-03 
  47877.0454     0.20327E-03 
  47909.3076     0.20281E-03 
  47941.5698     0.20234E-03 
  47973.8319     0.20187E-03 
  48006.0941     0.20140E-03 
  48038.3562     0.20093E-03 
  48070.6184     0.20045E-03 
  48102.8806     0.19997E-03 
  48135.1427     0.19949E-03 
  48167.4049     0.19901E-03 
  48199.6670     0.19852E-03 
  48231.9292     0.19803E-03 
  48264.1914     0.19754E-03 
  48296.4535     0.19704E-03 
  48328.7157     0.19654E-03 
  48360.9778     0.19604E-03 
  48393.2400     0.19554E-03 
  48425.5022     0.19504E-03 
  48457.7643     0.19453E-03 
  48490.0265     0.19402E-03 
  48522.2886     0.19351E-03 
  48554.5508     0.19299E-03 
  48586.8130     0.19248E-03 
  48619.0751     0.19196E-03 
  48651.3373     0.19144E-03 
  48683.5994     0.19091E-03 
  48715.8616     0.19039E-03 
  48748.1238     0.18986E-03 
  48780.3859     0.18933E-03 
  48812.6481     0.18880E-03 
  48844.9102     0.18826E-03 
  48877.1724     0.18772E-03 
  48909.4346     0.18719E-03 
  48941.6967     0.18665E-03 
  48973.9589     0.18610E-03 
  49006.2210     0.18556E-03 
  49038.4832     0.18501E-03 
  49070.7454     0.18446E-03 
  49103.0075     0.18391E-03 
  49135.2697     0.18336E-03 
  49167.5318     0.18281E-03 
  49199.7940     0.18225E-03 
  49232.0562     0.18169E-03 
  49264.3183     0.18113E-03 
  49296.5805     0.18057E-03 
  49328.8426     0.18001E-03 
  49361.1048     0.17944E-03 
  49393.3670     0.17888E-03 
  49425.6291     0.17831E-03 
  49457.8913     0.17774E-03 
  49490.1534     0.17717E-03 
  49522.4156     0.17659E-03 
  49554.6778     0.17602E-03 
  49586.9399     0.17544E-03 
  49619.2021     0.17487E-03 
  49651.4642     0.17429E-03 
  49683.7264     0.17371E-03 
  49715.9886     0.17313E-03 
  49748.2507     0.17254E-03 
  49780.5129     0.17196E-03 
  49812.7750     0.17137E-03 
  49845.0372     0.17079E-03 
  49877.2994     0.17020E-03 
  49909.5615     0.16961E-03 
  49941.8237     0.16902E-03 
  49974.0858     0.16842E-03 
  50006.3480     0.16783E-03 
  50038.6102     0.16724E-03 
  50070.8723     0.16664E-03 
  50103.1345     0.16604E-03 
  50135.3966     0.16545E-03 
  50167.6588     0.16485E-03 
  50199.9210     0.16425E-03 
  50232.1831     0.16365E-03 
  50264.4453     0.16304E-03 
  50296.7074     0.16244E-03 
  50328.9696     0.16184E-03 
  50361.2318     0.16123E-03 
  50393.4939     0.16063E-03 
  50425.7561     0.16002E-03 
  50458.0182     0.15941E-03 
  50490.2804     0.15881E-03 
  50522.5426     0.15820E-03 
  50554.8047     0.15759E-03 
  50587.0669     0.15698E-03 
  50619.3290     0.15637E-03 
  50651.5912     0.15575E-03 
  50683.8534     0.15514E-03 
  50716.1155     0.15453E-03 
  50748.3777     0.15391E-03 
  50780.6398     0.15330E-03 
  50812.9020     0.15268E-03 
  50845.1642     0.15207E-03 
  50877.4263     0.15145E-03 
  50909.6885     0.15084E-03 
  50941.9506     0.15022E-03 
  50974.2128     0.14960E-03 
  51006.4750     0.14898E-03 
  51038.7371     0.14837E-03 
  51070.9993     0.14775E-03 
  51103.2614     0.14713E-03 
  51135.5236     0.14651E-03 
  51167.7858     0.14589E-03 
  51200.0479     0.14527E-03 
  51232.3101     0.14465E-03 
  51264.5722     0.14403E-03 
  51296.8344     0.14341E-03 
  51329.0966     0.14279E-03 
  51361.3587     0.14216E-03 
  51393.6209     0.14154E-03 
  51425.8830     0.14092E-03 
  51458.1452     0.14030E-03 
  51490.4074     0.13968E-03 
  51522.6695     0.13906E-03 
  51554.9317     0.13843E-03 
  51587.1938     0.13781E-03 
  51619.4560     0.13719E-03 
  51651.7182     0.13657E-03 
  51683.9803     0.13595E-03 
  51716.2425     0.13532E-03 
  51748.5046     0.13470E-03 
  51780.7668     0.13408E-03 
  51813.0290     0.13346E-03 
  51845.2911     0.13284E-03 
  51877.5533     0.13222E-03 
  51909.8154     0.13159E-03 
  51942.0776     0.13097E-03 
  51974.3398     0.13035E-03 
  52006.6019     0.12973E-03 
  52038.8641     0.12911E-03 
  52071.1262     0.12849E-03 
  52103.3884     0.12787E-03 
  52135.6506     0.12725E-03 
  52167.9127     0.12663E-03 
  52200.1749     0.12601E-03 
  52232.4370     0.12539E-03 
  52264.6992     0.12477E-03 
  52296.9614     0.12416E-03 
  52329.2235     0.12354E-03 
  52361.4857     0.12292E-03 
  52393.7478     0.12231E-03 
  52426.0100     0.12169E-03 
  52458.2722     0.12107E-03 
  52490.5343     0.12046E-03 
  52522.7965     0.11984E-03 
  52555.0586     0.11923E-03 
  52587.3208     0.11862E-03 
  52619.5830     0.11800E-03 
  52651.8451     0.11739E-03 
  52684.1073     0.11678E-03 
  52716.3694     0.11617E-03 
  52748.6316     0.11556E-03 
  52780.8938     0.11495E-03 
  52813.1559     0.11434E-03 
  52845.4181     0.11373E-03 
  52877.6802     0.11312E-03 
  52909.9424     0.11251E-03 
  52942.2046     0.11190E-03 
  52974.4667     0.11130E-03 
  53006.7289     0.11069E-03 
  53038.9910     0.11009E-03 
  53071.2532     0.10949E-03 
  53103.5154     0.10888E-03 
  53135.7775     0.10828E-03 
  53168.0397     0.10768E-03 
  53200.3018     0.10708E-03 
  53232.5640     0.10648E-03 
  53264.8262     0.10588E-03 
  53297.0883     0.10528E-03 
  53329.3505     0.10469E-03 
  53361.6126     0.10409E-03 
  53393.8748     0.10350E-03 
  53426.1370     0.10290E-03 
  53458.3991     0.10231E-03 
  53490.6613     0.10172E-03 
  53522.9234     0.10113E-03 
  53555.1856     0.10054E-03 
  53587.4478     0.99947E-04 
  53619.7099     0.99359E-04 
  53651.9721     0.98772E-04 
  53684.2342     0.98186E-04 
  53716.4964     0.97602E-04 
  53748.7586     0.97018E-04 
  53781.0207     0.96435E-04 
  53813.2829     0.95854E-04 
  53845.5450     0.95273E-04 
  53877.8072     0.94694E-04 
  53910.0694     0.94116E-04 
  53942.3315     0.93539E-04 
  53974.5937     0.92963E-04 
  54006.8558     0.92388E-04 
  54039.1180     0.91815E-04 
  54071.3802     0.91242E-04 
  54103.6423     0.90671E-04 
  54135.9045     0.90101E-04 
  54168.1666     0.89533E-04 
  54200.4288     0.88965E-04 
  54232.6910     0.88399E-04 
  54264.9531     0.87834E-04 
  54297.2153     0.87271E-04 
  54329.4774     0.86708E-04 
  54361.7396     0.86147E-04 
  54394.0018     0.85588E-04 
  54426.2639     0.85029E-04 
  54458.5261     0.84472E-04 
  54490.7882     0.83917E-04 
  54523.0504     0.83362E-04 
  54555.3126     0.82809E-04 
  54587.5747     0.82258E-04 
  54619.8369     0.81707E-04 
  54652.0990     0.81159E-04 
  54684.3612     0.80611E-04 
  54716.6234     0.80065E-04 
  54748.8855     0.79520E-04 
  54781.1477     0.78977E-04 
  54813.4098     0.78435E-04 
  54845.6720     0.77895E-04 
  54877.9342     0.77356E-04 
  54910.1963     0.76819E-04 
  54942.4585     0.76283E-04 
  54974.7206     0.75748E-04 
  55006.9828     0.75215E-04 
  55039.2450     0.74684E-04 
  55071.5071     0.74154E-04 
  55103.7693     0.73625E-04 
  55136.0314     0.73098E-04 
  55168.2936     0.72573E-04 
  55200.5558     0.72049E-04 
  55232.8179     0.71526E-04 
  55265.0801     0.71005E-04 
  55297.3422     0.70486E-04 
  55329.6044     0.69968E-04 
  55361.8666     0.69452E-04 
  55394.1287     0.68938E-04 
  55426.3909     0.68425E-04 
  55458.6530     0.67913E-04 
  55490.9152     0.67403E-04 
  55523.1774     0.66895E-04 
  55555.4395     0.66389E-04 
  55587.7017     0.65884E-04 
  55619.9638     0.65380E-04 
  55652.2260     0.64879E-04 
  55684.4882     0.64379E-04 
  55716.7503     0.63880E-04 
  55749.0125     0.63383E-04 
  55781.2746     0.62888E-04 
  55813.5368     0.62395E-04 
  55845.7990     0.61903E-04 
  55878.0611     0.61413E-04 
  55910.3233     0.60925E-04 
  55942.5854     0.60438E-04 
  55974.8476     0.59953E-04 
  56007.1098     0.59470E-04 
  56039.3719     0.58988E-04 
  56071.6341     0.58508E-04 
  56103.8962     0.58030E-04 
  56136.1584     0.57554E-04 
  56168.4206     0.57079E-04 
  56200.6827     0.56606E-04 
  56232.9449     0.56135E-04 
  56265.2070     0.55665E-04 
  56297.4692     0.55198E-04 
  56329.7314     0.54732E-04 
  56361.9935     0.54267E-04 
  56394.2557     0.53805E-04 
  56426.5178     0.53344E-04 
  56458.7800     0.52886E-04 
  56491.0422     0.52428E-04 
  56523.3043     0.51973E-04 
  56555.5665     0.51520E-04 
  56587.8286     0.51068E-04 
  56620.0908     0.50618E-04 
  56652.3530     0.50170E-04 
  56684.6151     0.49724E-04 
  56716.8773     0.49279E-04 
  56749.1394     0.48837E-04 
  56781.4016     0.48396E-04 
  56813.6638     0.47957E-04 
  56845.9259     0.47520E-04 
  56878.1881     0.47085E-04 
  56910.4502     0.46652E-04 
  56942.7124     0.46220E-04 
  56974.9746     0.45790E-04 
  57007.2367     0.45363E-04 
  57039.4989     0.44937E-04 
  57071.7610     0.44513E-04 
  57104.0232     0.44091E-04 
  57136.2854     0.43670E-04 
  57168.5475     0.43252E-04 
  57200.8097     0.42836E-04 
  57233.0718     0.42421E-04 
  57265.3340     0.42008E-04 
  57297.5962     0.41598E-04 
  57329.8583     0.41189E-04 
  57362.1205     0.40782E-04 
  57394.3826     0.40377E-04 
  57426.6448     0.39974E-04 
  57458.9070     0.39573E-04 
  57491.1691     0.39174E-04 
  57523.4313     0.38776E-04 
  57555.6934     0.38381E-04 
  57587.9556     0.37988E-04 
  57620.2178     0.37597E-04 
  57652.4799     0.37207E-04 
  57684.7421     0.36820E-04 
  57717.0042     0.36434E-04 
  57749.2664     0.36051E-04 
  57781.5286     0.35670E-04 
  57813.7907     0.35290E-04 
  57846.0529     0.34913E-04 
  57878.3150     0.34537E-04 
  57910.5772     0.34164E-04 
  57942.8394     0.33792E-04 
  57975.1015     0.33423E-04 
  58007.3637     0.33056E-04 
  58039.6258     0.32691E-04 
  58071.8880     0.32327E-04 
  58104.1502     0.31966E-04 
  58136.4123     0.31607E-04 
  58168.6745     0.31250E-04 
  58200.9366     0.30895E-04 
  58233.1988     0.30542E-04 
  58265.4610     0.30191E-04 
  58297.7231     0.29842E-04 
  58329.9853     0.29496E-04 
  58362.2474     0.29151E-04 
  58394.5096     0.28809E-04 
  58426.7718     0.28468E-04 
  58459.0339     0.28130E-04 
  58491.2961     0.27794E-04 
  58523.5582     0.27460E-04 
  58555.8204     0.27128E-04 
  58588.0826     0.26799E-04 
  58620.3447     0.26471E-04 
  58652.6069     0.26146E-04 
  58684.8690     0.25823E-04 
  58717.1312     0.25502E-04 
  58749.3934     0.25183E-04 
  58781.6555     0.24866E-04 
  58813.9177     0.24552E-04 
  58846.1798     0.24240E-04 
  58878.4420     0.23930E-04 
  58910.7042     0.23622E-04 
  58942.9663     0.23317E-04 
  58975.2285     0.23013E-04 
  59007.4906     0.22712E-04 
  59039.7528     0.22414E-04 
  59072.0150     0.22117E-04 
  59104.2771     0.21823E-04 
  59136.5393     0.21532E-04 
  59168.8014     0.21242E-04 
  59201.0636     0.20955E-04 
  59233.3258     0.20670E-04 
  59265.5879     0.20388E-04 
  59297.8501     0.20108E-04 
  59330.1122     0.19830E-04 
  59362.3744     0.19554E-04 
  59394.6366     0.19281E-04 
  59426.8987     0.19011E-04 
  59459.1609     0.18743E-04 
  59491.4230     0.18477E-04 
  59523.6852     0.18214E-04 
  59555.9474     0.17953E-04 
  59588.2095     0.17695E-04 
  59620.4717     0.17439E-04 
  59652.7338     0.17185E-04 
  59684.9960     0.16934E-04 
  59717.2582     0.16686E-04 
  59749.5203     0.16440E-04 
  59781.7825     0.16197E-04 
  59814.0446     0.15956E-04 
  59846.3068     0.15718E-04 
  59878.5690     0.15482E-04 
  59910.8311     0.15249E-04 
  59943.0933     0.15019E-04 
  59975.3554     0.14791E-04 
  60007.6176     0.14566E-04 
  60039.8798     0.14344E-04 
  60072.1419     0.14124E-04 
  60104.4041     0.13907E-04 
  60136.6662     0.13693E-04 
  60168.9284     0.13481E-04 
  60201.1906     0.13273E-04 
  60233.4527     0.13067E-04 
  60265.7149     0.12864E-04 
  60297.9770     0.12663E-04 
  60330.2392     0.12466E-04 
  60362.5014     0.12271E-04 
  60394.7635     0.12079E-04 
  60427.0257     0.11890E-04 
  60459.2878     0.11704E-04 
  60491.5500     0.11521E-04 
  60523.8122     0.11341E-04 
  60556.0743     0.11164E-04 
  60588.3365     0.10990E-04 
  60620.5986     0.10819E-04 
  60652.8608     0.10651E-04 
  60685.1230     0.10486E-04 
  60717.3851     0.10324E-04 
  60749.6473     0.10165E-04 
  60781.9094     0.10010E-04 
  60814.1716     0.98573E-05 
  60846.4338     0.97081E-05 
  60878.6959     0.95621E-05 
  60910.9581     0.94193E-05 
  60943.2202     0.92798E-05 
  60975.4824     0.91436E-05 
  61007.7446     0.90107E-05 
  61040.0067     0.88812E-05 
  61072.2689     0.87551E-05 
  61104.5310     0.86324E-05 
  61136.7932     0.85131E-05 
  61169.0554     0.83973E-05 
  61201.3175     0.82850E-05 
  61233.5797     0.81762E-05 
  61265.8418     0.80710E-05 
  61298.1040     0.79694E-05 
  61330.3662     0.78714E-05 
  61362.6283     0.77771E-05 
  61394.8905     0.76864E-05 
  61427.1526     0.75995E-05 
  61459.4148     0.75164E-05 
  61491.6770     0.74370E-05 
  61523.9391     0.73614E-05 
  61556.2013     0.72898E-05 
  61588.4634     0.72220E-05 
  61620.7256     0.71581E-05 
  61652.9878     0.70983E-05 
  61685.2499     0.70424E-05 
  61717.5121     0.69906E-05 
  61749.7742     0.69428E-05 
  61782.0364     0.68992E-05 
  61814.2986     0.68598E-05 
  61846.5607     0.68246E-05 
  61878.8229     0.67936E-05 
  61911.0850     0.67669E-05 
  61943.3472     0.67445E-05 
  61975.6094     0.67265E-05 
  62007.8715     0.67129E-05 
  62040.1337     0.67038E-05 
  62072.3958     0.66992E-05 
  62104.6580     0.66991E-05 
  62136.9202     0.67036E-05 
  62169.1823     0.67128E-05 
  62201.4445     0.67267E-05 
  62233.7066     0.67453E-05 
  62265.9688     0.67686E-05 
  62298.2310     0.67968E-05 
  62330.4931     0.68299E-05 
  62362.7553     0.68679E-05 
  62395.0174     0.69109E-05 
  62427.2796     0.69590E-05 
  62459.5418     0.70121E-05 
  62491.8039     0.70703E-05 
  62524.0661     0.71338E-05 
  62556.3282     0.72025E-05 
  62588.5904     0.72764E-05 
  62620.8526     0.73558E-05 
  62653.1147     0.74406E-05 
  62685.3769     0.75308E-05 
  62717.6390     0.76265E-05 
  62749.9012     0.77279E-05 
  62782.1634     0.78348E-05 
  62814.4255     0.79475E-05 
  62846.6877     0.80660E-05 
  62878.9498     0.81902E-05 
  62911.2120     0.83204E-05 
  62943.4742     0.84565E-05 
  62975.7363     0.85986E-05 
  63007.9985     0.87468E-05 
  63040.2606     0.89011E-05 
  63072.5228     0.90616E-05 
  63104.7850     0.92284E-05 
  63137.0471     0.94016E-05 
  63169.3093     0.95811E-05 
  63201.5714     0.97672E-05 
  63233.8336     0.99597E-05 
  63266.0958     0.10159E-04 
  63298.3579     0.10365E-04 
  63330.6201     0.10577E-04 
  63362.8822     0.10797E-04 
  63395.1444     0.11023E-04 
  63427.4066     0.11257E-04 
  63459.6687     0.11497E-04 
  63491.9309     0.11744E-04 
  63524.1930     0.11999E-04 
  63556.4552     0.12261E-04 
  63588.7174     0.12531E-04 
  63620.9795     0.12807E-04 
  63653.2417     0.13092E-04 
  63685.5038     0.13384E-04 
  63717.7660     0.13683E-04 
  63750.0282     0.13991E-04 
  63782.2903     0.14306E-04 
  63814.5525     0.14629E-04 
  63846.8146     0.14960E-04 
  63879.0768     0.15299E-04 
  63911.3390     0.15647E-04 
  63943.6011     0.16002E-04 
  63975.8633     0.16367E-04 
  64008.1254     0.16739E-04 
  64040.3876     0.17120E-04 
  64072.6498     0.17510E-04 
  64104.9119     0.17908E-04 
  64137.1741     0.18316E-04 
  64169.4362     0.18732E-04 
  64201.6984     0.19157E-04 
  64233.9606     0.19591E-04 
  64266.2227     0.20035E-04 
  64298.4849     0.20487E-04 
  64330.7470     0.20950E-04 
  64363.0092     0.21421E-04 
  64395.2714     0.21902E-04 
  64427.5335     0.22393E-04 
  64459.7957     0.22894E-04 
  64492.0578     0.23405E-04 
  64524.3200     0.23925E-04 
  64556.5822     0.24456E-04 
  64588.8443     0.24997E-04 
  64621.1065     0.25548E-04 
  64653.3686     0.26110E-04 
  64685.6308     0.26682E-04 
  64717.8930     0.27265E-04 
  64750.1551     0.27858E-04 
  64782.4173     0.28463E-04 
  64814.6794     0.29078E-04 
  64846.9416     0.29705E-04 
  64879.2038     0.30342E-04 
  64911.4659     0.30991E-04 
  64943.7281     0.31652E-04 
  64975.9902     0.32324E-04 
  65008.2524     0.33007E-04 
  65040.5146     0.33703E-04 
  65072.7767     0.34410E-04 
  65105.0389     0.35129E-04 
  65137.3010     0.35860E-04 
  65169.5632     0.36604E-04 
  65201.8254     0.37360E-04 
  65234.0875     0.38129E-04 
  65266.3497     0.38910E-04 
  65298.6118     0.39704E-04 
  65330.8740     0.40510E-04 
  65363.1362     0.41330E-04 
  65395.3983     0.42163E-04 
  65427.6605     0.43009E-04 
  65459.9226     0.43869E-04 
  65492.1848     0.44742E-04 
  65524.4470     0.45628E-04 
  65556.7091     0.46529E-04 
  65588.9713     0.47443E-04 
  65621.2334     0.48372E-04 
  65653.4956     0.49314E-04 
  65685.7578     0.50271E-04 
  65718.0199     0.51242E-04 
  65750.2821     0.52228E-04 
  65782.5442     0.53229E-04 
  65814.8064     0.54245E-04 
  65847.0686     0.55275E-04 
  65879.3307     0.56321E-04 
  65911.5929     0.57382E-04 
  65943.8550     0.58458E-04 
  65976.1172     0.59550E-04 
  66008.3794     0.60658E-04 
  66040.6415     0.61781E-04 
  66072.9037     0.62920E-04 
  66105.1658     0.64076E-04 
  66137.4280     0.65248E-04 
  66169.6902     0.66436E-04 
  66201.9523     0.67641E-04 
  66234.2145     0.68863E-04 
  66266.4766     0.70102E-04 
  66298.7388     0.71357E-04 
  66331.0010     0.72630E-04 
  66363.2631     0.73920E-04 
  66395.5253     0.75228E-04 
  66427.7874     0.76553E-04 
  66460.0496     0.77896E-04 
  66492.3118     0.79257E-04 
  66524.5739     0.80636E-04 
  66556.8361     0.82034E-04 
  66589.0982     0.83449E-04 
  66621.3604     0.84884E-04 
  66653.6226     0.86337E-04 
  66685.8847     0.87809E-04 
  66718.1469     0.89300E-04 
  66750.4090     0.90810E-04 
  66782.6712     0.92340E-04 
  66814.9334     0.93889E-04 
  66847.1955     0.95458E-04 
  66879.4577     0.97047E-04 
  66911.7198     0.98656E-04 
  66943.9820     0.10028E-03 
  66976.2442     0.10193E-03 
  67008.5063     0.10360E-03 
  67040.7685     0.10529E-03 
  67073.0306     0.10701E-03 
  67105.2928     0.10874E-03 
  67137.5550     0.11049E-03 
  67169.8171     0.11227E-03 
  67202.0793     0.11406E-03 
  67234.3414     0.11588E-03 
  67266.6036     0.11772E-03 
  67298.8658     0.11958E-03 
  67331.1279     0.12147E-03 
  67363.3901     0.12337E-03 
  67395.6522     0.12530E-03 
  67427.9144     0.12725E-03 
  67460.1766     0.12923E-03 
  67492.4387     0.13123E-03 
  67524.7009     0.13325E-03 
  67556.9630     0.13529E-03 
  67589.2252     0.13736E-03 
  67621.4874     0.13945E-03 
  67653.7495     0.14157E-03 
  67686.0117     0.14370E-03 
  67718.2738     0.14587E-03 
  67750.5360     0.14806E-03 
  67782.7982     0.15027E-03 
  67815.0603     0.15251E-03 
  67847.3225     0.15477E-03 
  67879.5846     0.15706E-03 
  67911.8468     0.15937E-03 
  67944.1090     0.16171E-03 
  67976.3711     0.16407E-03 
  68008.6333     0.16646E-03 
  68040.8954     0.16887E-03 
  68073.1576     0.17132E-03 
  68105.4198     0.17378E-03 
  68137.6819     0.17628E-03 
  68169.9441     0.17880E-03 
  68202.2062     0.18135E-03 
  68234.4684     0.18392E-03 
  68266.7306     0.18652E-03 
  68298.9927     0.18915E-03 
  68331.2549     0.19181E-03 
  68363.5170     0.19450E-03 
  68395.7792     0.19721E-03 
  68428.0414     0.19995E-03 
  68460.3035     0.20272E-03 
  68492.5657     0.20551E-03 
  68524.8278     0.20834E-03 
  68557.0900     0.21119E-03 
  68589.3522     0.21408E-03 
  68621.6143     0.21699E-03 
  68653.8765     0.21993E-03 
  68686.1386     0.22290E-03 
  68718.4008     0.22590E-03 
  68750.6630     0.22893E-03 
  68782.9251     0.23199E-03 
  68815.1873     0.23508E-03 
  68847.4494     0.23821E-03 
  68879.7116     0.24136E-03 
  68911.9738     0.24454E-03 
  68944.2359     0.24775E-03 
  68976.4981     0.25099E-03 
  69008.7602     0.25427E-03 
  69041.0224     0.25757E-03 
  69073.2846     0.26091E-03 
  69105.5467     0.26428E-03 
  69137.8089     0.26768E-03 
  69170.0710     0.27111E-03 
  69202.3332     0.27458E-03 
  69234.5954     0.27807E-03 
  69266.8575     0.28160E-03 
  69299.1197     0.28516E-03 
  69331.3818     0.28876E-03 
  69363.6440     0.29238E-03 
  69395.9062     0.29604E-03 
  69428.1683     0.29974E-03 
  69460.4305     0.30346E-03 
  69492.6926     0.30722E-03 
  69524.9548     0.31102E-03 
  69557.2170     0.31484E-03 
  69589.4791     0.31870E-03 
  69621.7413     0.32260E-03 
  69654.0034     0.32653E-03 
  69686.2656     0.33049E-03 
  69718.5278     0.33449E-03 
  69750.7899     0.33852E-03 
  69783.0521     0.34259E-03 
  69815.3142     0.34669E-03 
  69847.5764     0.35083E-03 
  69879.8386     0.35500E-03 
  69912.1007     0.35921E-03 
  69944.3629     0.36345E-03 
  69976.6250     0.36773E-03 
  70008.8872     0.37205E-03 
  70041.1494     0.37640E-03 
  70073.4115     0.38078E-03 
  70105.6737     0.38521E-03 
  70137.9358     0.38967E-03 
  70170.1980     0.39416E-03 
  70202.4602     0.39869E-03 
  70234.7223     0.40326E-03 
  70266.9845     0.40787E-03 
  70299.2466     0.41251E-03 
  70331.5088     0.41719E-03 
  70363.7710     0.42190E-03 
  70396.0331     0.42666E-03 
  70428.2953     0.43145E-03 
  70460.5574     0.43627E-03 
  70492.8196     0.44114E-03 
  70525.0818     0.44604E-03 
  70557.3439     0.45098E-03 
  70589.6061     0.45596E-03 
  70621.8682     0.46098E-03 
  70654.1304     0.46603E-03 
  70686.3926     0.47112E-03 
  70718.6547     0.47626E-03 
  70750.9169     0.48142E-03 
  70783.1790     0.48663E-03 
  70815.4412     0.49188E-03 
  70847.7034     0.49716E-03 
  70879.9655     0.50249E-03 
  70912.2277     0.50785E-03 
  70944.4898     0.51325E-03 
  70976.7520     0.51869E-03 
  71009.0142     0.52417E-03 
  71041.2763     0.52968E-03 
  71073.5385     0.53524E-03 
  71105.8006     0.54084E-03 
  71138.0628     0.54647E-03 
  71170.3250     0.55215E-03 
  71202.5871     0.55786E-03 
  71234.8493     0.56361E-03 
  71267.1114     0.56941E-03 
  71299.3736     0.57524E-03 
  71331.6358     0.58111E-03 
  71363.8979     0.58702E-03 
  71396.1601     0.59297E-03 
  71428.4222     0.59896E-03 
  71460.6844     0.60499E-03 
  71492.9466     0.61106E-03 
  71525.2087     0.61717E-03 
  71557.4709     0.62332E-03 
  71589.7330     0.62951E-03 
  71621.9952     0.63574E-03 
  71654.2574     0.64201E-03 
  71686.5195     0.64832E-03 
  71718.7817     0.65467E-03 
  71751.0438     0.66106E-03 
  71783.3060     0.66749E-03 
  71815.5682     0.67396E-03 
  71847.8303     0.68046E-03 
  71880.0925     0.68701E-03 
  71912.3546     0.69360E-03 
  71944.6168     0.70023E-03 
  71976.8790     0.70690E-03 
  72009.1411     0.71361E-03 
  72041.4033     0.72036E-03 
  72073.6654     0.72715E-03 
  72105.9276     0.73398E-03 
  72138.1898     0.74084E-03 
  72170.4519     0.74775E-03 
  72202.7141     0.75470E-03 
  72234.9762     0.76169E-03 
  72267.2384     0.76872E-03 
  72299.5006     0.77579E-03 
  72331.7627     0.78289E-03 
  72364.0249     0.79004E-03 
  72396.2870     0.79723E-03 
  72428.5492     0.80445E-03 
  72460.8114     0.81172E-03 
  72493.0735     0.81902E-03 
  72525.3357     0.82637E-03 
  72557.5978     0.83375E-03 
  72589.8600     0.84117E-03 
