  32262.1600     0.94376E-03 
  32294.4222     0.95297E-03 
  32326.6843     0.96223E-03 
  32358.9465     0.97155E-03 
  32391.2086     0.98094E-03 
  32423.4708     0.99037E-03 
  32455.7330     0.99987E-03 
  32487.9951     0.10094E-02 
  32520.2573     0.10190E-02 
  32552.5194     0.10287E-02 
  32584.7816     0.10384E-02 
  32617.0438     0.10482E-02 
  32649.3059     0.10581E-02 
  32681.5681     0.10679E-02 
  32713.8302     0.10779E-02 
  32746.0924     0.10879E-02 
  32778.3546     0.10980E-02 
  32810.6167     0.11081E-02 
  32842.8789     0.11183E-02 
  32875.1410     0.11285E-02 
  32907.4032     0.11388E-02 
  32939.6654     0.11492E-02 
  32971.9275     0.11596E-02 
  33004.1897     0.11701E-02 
  33036.4518     0.11806E-02 
  33068.7140     0.11911E-02 
  33100.9762     0.12018E-02 
  33133.2383     0.12125E-02 
  33165.5005     0.12232E-02 
  33197.7626     0.12340E-02 
  33230.0248     0.12449E-02 
  33262.2870     0.12558E-02 
  33294.5491     0.12667E-02 
  33326.8113     0.12778E-02 
  33359.0734     0.12888E-02 
  33391.3356     0.13000E-02 
  33423.5978     0.13112E-02 
  33455.8599     0.13224E-02 
  33488.1221     0.13337E-02 
  33520.3842     0.13450E-02 
  33552.6464     0.13564E-02 
  33584.9086     0.13679E-02 
  33617.1707     0.13794E-02 
  33649.4329     0.13909E-02 
  33681.6950     0.14026E-02 
  33713.9572     0.14142E-02 
  33746.2194     0.14259E-02 
  33778.4815     0.14377E-02 
  33810.7437     0.14495E-02 
  33843.0058     0.14614E-02 
  33875.2680     0.14733E-02 
  33907.5302     0.14853E-02 
  33939.7923     0.14973E-02 
  33972.0545     0.15094E-02 
  34004.3166     0.15215E-02 
  34036.5788     0.15337E-02 
  34068.8410     0.15459E-02 
  34101.1031     0.15582E-02 
  34133.3653     0.15705E-02 
  34165.6274     0.15829E-02 
  34197.8896     0.15953E-02 
  34230.1518     0.16078E-02 
  34262.4139     0.16203E-02 
  34294.6761     0.16328E-02 
  34326.9382     0.16454E-02 
  34359.2004     0.16581E-02 
  34391.4626     0.16708E-02 
  34423.7247     0.16835E-02 
  34455.9869     0.16963E-02 
  34488.2490     0.17092E-02 
  34520.5112     0.17220E-02 
  34552.7734     0.17350E-02 
  34585.0355     0.17479E-02 
  34617.2977     0.17610E-02 
  34649.5598     0.17740E-02 
  34681.8220     0.17871E-02 
  34714.0842     0.18003E-02 
  34746.3463     0.18134E-02 
  34778.6085     0.18267E-02 
  34810.8706     0.18399E-02 
  34843.1328     0.18532E-02 
  34875.3950     0.18666E-02 
  34907.6571     0.18800E-02 
  34939.9193     0.18934E-02 
  34972.1814     0.19069E-02 
  35004.4436     0.19204E-02 
  35036.7058     0.19339E-02 
  35068.9679     0.19475E-02 
  35101.2301     0.19611E-02 
  35133.4922     0.19748E-02 
  35165.7544     0.19885E-02 
  35198.0166     0.20022E-02 
  35230.2787     0.20159E-02 
  35262.5409     0.20297E-02 
  35294.8030     0.20436E-02 
  35327.0652     0.20574E-02 
  35359.3274     0.20713E-02 
  35391.5895     0.20853E-02 
  35423.8517     0.20992E-02 
  35456.1138     0.21132E-02 
  35488.3760     0.21272E-02 
  35520.6382     0.21413E-02 
  35552.9003     0.21554E-02 
  35585.1625     0.21695E-02 
  35617.4246     0.21836E-02 
  35649.6868     0.21978E-02 
  35681.9490     0.22120E-02 
  35714.2111     0.22262E-02 
  35746.4733     0.22405E-02 
  35778.7354     0.22548E-02 
  35810.9976     0.22691E-02 
  35843.2598     0.22834E-02 
  35875.5219     0.22978E-02 
  35907.7841     0.23121E-02 
  35940.0462     0.23265E-02 
  35972.3084     0.23410E-02 
  36004.5706     0.23554E-02 
  36036.8327     0.23699E-02 
  36069.0949     0.23844E-02 
  36101.3570     0.23989E-02 
  36133.6192     0.24134E-02 
  36165.8814     0.24279E-02 
  36198.1435     0.24425E-02 
  36230.4057     0.24571E-02 
  36262.6678     0.24717E-02 
  36294.9300     0.24863E-02 
  36327.1922     0.25009E-02 
  36359.4543     0.25156E-02 
  36391.7165     0.25302E-02 
  36423.9786     0.25449E-02 
  36456.2408     0.25596E-02 
  36488.5030     0.25743E-02 
  36520.7651     0.25890E-02 
  36553.0273     0.26037E-02 
  36585.2894     0.26184E-02 
  36617.5516     0.26332E-02 
  36649.8138     0.26479E-02 
  36682.0759     0.26627E-02 
  36714.3381     0.26775E-02 
  36746.6002     0.26922E-02 
  36778.8624     0.27070E-02 
  36811.1246     0.27218E-02 
  36843.3867     0.27366E-02 
  36875.6489     0.27514E-02 
  36907.9110     0.27662E-02 
  36940.1732     0.27810E-02 
  36972.4354     0.27958E-02 
  37004.6975     0.28106E-02 
  37036.9597     0.28254E-02 
  37069.2218     0.28402E-02 
  37101.4840     0.28550E-02 
  37133.7462     0.28698E-02 
  37166.0083     0.28846E-02 
  37198.2705     0.28994E-02 
  37230.5326     0.29142E-02 
  37262.7948     0.29290E-02 
  37295.0570     0.29437E-02 
  37327.3191     0.29585E-02 
  37359.5813     0.29733E-02 
  37391.8434     0.29881E-02 
  37424.1056     0.30028E-02 
  37456.3678     0.30176E-02 
  37488.6299     0.30323E-02 
  37520.8921     0.30470E-02 
  37553.1542     0.30617E-02 
  37585.4164     0.30764E-02 
  37617.6786     0.30911E-02 
  37649.9407     0.31058E-02 
  37682.2029     0.31205E-02 
  37714.4650     0.31351E-02 
  37746.7272     0.31497E-02 
  37778.9894     0.31644E-02 
  37811.2515     0.31790E-02 
  37843.5137     0.31935E-02 
  37875.7758     0.32081E-02 
  37908.0380     0.32226E-02 
  37940.3002     0.32372E-02 
  37972.5623     0.32517E-02 
  38004.8245     0.32661E-02 
  38037.0866     0.32806E-02 
  38069.3488     0.32950E-02 
  38101.6110     0.33095E-02 
  38133.8731     0.33238E-02 
  38166.1353     0.33382E-02 
  38198.3974     0.33525E-02 
  38230.6596     0.33668E-02 
  38262.9218     0.33811E-02 
  38295.1839     0.33954E-02 
  38327.4461     0.34096E-02 
  38359.7082     0.34238E-02 
  38391.9704     0.34379E-02 
  38424.2326     0.34521E-02 
  38456.4947     0.34662E-02 
  38488.7569     0.34802E-02 
  38521.0190     0.34943E-02 
  38553.2812     0.35083E-02 
  38585.5434     0.35222E-02 
  38617.8055     0.35361E-02 
  38650.0677     0.35500E-02 
  38682.3298     0.35639E-02 
  38714.5920     0.35777E-02 
  38746.8542     0.35915E-02 
  38779.1163     0.36052E-02 
  38811.3785     0.36189E-02 
  38843.6406     0.36325E-02 
  38875.9028     0.36461E-02 
  38908.1650     0.36597E-02 
  38940.4271     0.36732E-02 
  38972.6893     0.36867E-02 
  39004.9514     0.37001E-02 
  39037.2136     0.37135E-02 
  39069.4758     0.37269E-02 
  39101.7379     0.37402E-02 
  39134.0001     0.37534E-02 
  39166.2622     0.37666E-02 
  39198.5244     0.37797E-02 
  39230.7866     0.37928E-02 
  39263.0487     0.38059E-02 
  39295.3109     0.38189E-02 
  39327.5730     0.38318E-02 
  39359.8352     0.38447E-02 
  39392.0974     0.38575E-02 
  39424.3595     0.38703E-02 
  39456.6217     0.38830E-02 
  39488.8838     0.38957E-02 
  39521.1460     0.39083E-02 
  39553.4082     0.39209E-02 
  39585.6703     0.39334E-02 
  39617.9325     0.39458E-02 
  39650.1946     0.39582E-02 
  39682.4568     0.39705E-02 
  39714.7190     0.39828E-02 
  39746.9811     0.39950E-02 
  39779.2433     0.40071E-02 
  39811.5054     0.40192E-02 
  39843.7676     0.40312E-02 
  39876.0298     0.40431E-02 
  39908.2919     0.40550E-02 
  39940.5541     0.40668E-02 
  39972.8162     0.40786E-02 
  40005.0784     0.40902E-02 
  40037.3406     0.41018E-02 
  40069.6027     0.41134E-02 
  40101.8649     0.41249E-02 
  40134.1270     0.41363E-02 
  40166.3892     0.41476E-02 
  40198.6514     0.41589E-02 
  40230.9135     0.41701E-02 
  40263.1757     0.41812E-02 
  40295.4378     0.41922E-02 
  40327.7000     0.42032E-02 
  40359.9622     0.42141E-02 
  40392.2243     0.42250E-02 
  40424.4865     0.42357E-02 
  40456.7486     0.42464E-02 
  40489.0108     0.42570E-02 
  40521.2730     0.42675E-02 
  40553.5351     0.42780E-02 
  40585.7973     0.42883E-02 
  40618.0594     0.42986E-02 
  40650.3216     0.43089E-02 
  40682.5838     0.43190E-02 
  40714.8459     0.43290E-02 
  40747.1081     0.43390E-02 
  40779.3702     0.43489E-02 
  40811.6324     0.43587E-02 
  40843.8946     0.43685E-02 
  40876.1567     0.43781E-02 
  40908.4189     0.43877E-02 
  40940.6810     0.43971E-02 
  40972.9432     0.44065E-02 
  41005.2054     0.44159E-02 
  41037.4675     0.44251E-02 
  41069.7297     0.44342E-02 
  41101.9918     0.44433E-02 
  41134.2540     0.44522E-02 
  41166.5162     0.44611E-02 
  41198.7783     0.44699E-02 
  41231.0405     0.44786E-02 
  41263.3026     0.44872E-02 
  41295.5648     0.44958E-02 
  41327.8270     0.45042E-02 
  41360.0891     0.45125E-02 
  41392.3513     0.45208E-02 
  41424.6134     0.45290E-02 
  41456.8756     0.45370E-02 
  41489.1378     0.45450E-02 
  41521.3999     0.45529E-02 
  41553.6621     0.45607E-02 
  41585.9242     0.45684E-02 
  41618.1864     0.45760E-02 
  41650.4486     0.45835E-02 
  41682.7107     0.45910E-02 
  41714.9729     0.45983E-02 
  41747.2350     0.46055E-02 
  41779.4972     0.46127E-02 
  41811.7594     0.46197E-02 
  41844.0215     0.46267E-02 
  41876.2837     0.46335E-02 
  41908.5458     0.46403E-02 
  41940.8080     0.46469E-02 
  41973.0702     0.46535E-02 
  42005.3323     0.46600E-02 
  42037.5945     0.46663E-02 
  42069.8566     0.46726E-02 
  42102.1188     0.46788E-02 
  42134.3810     0.46848E-02 
  42166.6431     0.46908E-02 
  42198.9053     0.46967E-02 
  42231.1674     0.47024E-02 
  42263.4296     0.47081E-02 
  42295.6918     0.47137E-02 
  42327.9539     0.47192E-02 
  42360.2161     0.47245E-02 
  42392.4782     0.47298E-02 
  42424.7404     0.47350E-02 
  42457.0026     0.47400E-02 
  42489.2647     0.47450E-02 
  42521.5269     0.47499E-02 
  42553.7890     0.47546E-02 
  42586.0512     0.47593E-02 
  42618.3134     0.47639E-02 
  42650.5755     0.47683E-02 
  42682.8377     0.47727E-02 
  42715.0998     0.47769E-02 
  42747.3620     0.47811E-02 
  42779.6242     0.47851E-02 
  42811.8863     0.47891E-02 
  42844.1485     0.47929E-02 
  42876.4106     0.47966E-02 
  42908.6728     0.48003E-02 
  42940.9350     0.48038E-02 
  42973.1971     0.48072E-02 
  43005.4593     0.48105E-02 
  43037.7214     0.48137E-02 
  43069.9836     0.48168E-02 
  43102.2458     0.48199E-02 
  43134.5079     0.48228E-02 
  43166.7701     0.48255E-02 
  43199.0322     0.48282E-02 
  43231.2944     0.48308E-02 
  43263.5566     0.48333E-02 
  43295.8187     0.48357E-02 
  43328.0809     0.48380E-02 
  43360.3430     0.48401E-02 
  43392.6052     0.48422E-02 
  43424.8674     0.48441E-02 
  43457.1295     0.48460E-02 
  43489.3917     0.48477E-02 
  43521.6538     0.48494E-02 
  43553.9160     0.48509E-02 
  43586.1782     0.48523E-02 
  43618.4403     0.48537E-02 
  43650.7025     0.48549E-02 
  43682.9646     0.48560E-02 
  43715.2268     0.48570E-02 
  43747.4890     0.48579E-02 
  43779.7511     0.48587E-02 
  43812.0133     0.48594E-02 
  43844.2754     0.48600E-02 
  43876.5376     0.48605E-02 
  43908.7998     0.48609E-02 
  43941.0619     0.48612E-02 
  43973.3241     0.48613E-02 
  44005.5862     0.48614E-02 
  44037.8484     0.48614E-02 
  44070.1106     0.48612E-02 
  44102.3727     0.48610E-02 
  44134.6349     0.48607E-02 
  44166.8970     0.48602E-02 
  44199.1592     0.48597E-02 
  44231.4214     0.48590E-02 
  44263.6835     0.48582E-02 
  44295.9457     0.48574E-02 
  44328.2078     0.48564E-02 
  44360.4700     0.48553E-02 
  44392.7322     0.48542E-02 
  44424.9943     0.48529E-02 
  44457.2565     0.48515E-02 
  44489.5186     0.48500E-02 
  44521.7808     0.48485E-02 
  44554.0430     0.48468E-02 
  44586.3051     0.48450E-02 
  44618.5673     0.48431E-02 
  44650.8294     0.48411E-02 
  44683.0916     0.48390E-02 
  44715.3538     0.48368E-02 
  44747.6159     0.48345E-02 
  44779.8781     0.48322E-02 
  44812.1402     0.48297E-02 
  44844.4024     0.48271E-02 
  44876.6646     0.48244E-02 
  44908.9267     0.48216E-02 
  44941.1889     0.48187E-02 
  44973.4510     0.48157E-02 
  45005.7132     0.48126E-02 
  45037.9754     0.48095E-02 
  45070.2375     0.48062E-02 
  45102.4997     0.48028E-02 
  45134.7618     0.47993E-02 
  45167.0240     0.47957E-02 
  45199.2862     0.47921E-02 
  45231.5483     0.47883E-02 
  45263.8105     0.47845E-02 
  45296.0726     0.47805E-02 
  45328.3348     0.47764E-02 
  45360.5970     0.47723E-02 
  45392.8591     0.47681E-02 
  45425.1213     0.47637E-02 
  45457.3834     0.47593E-02 
  45489.6456     0.47548E-02 
  45521.9078     0.47501E-02 
  45554.1699     0.47454E-02 
  45586.4321     0.47406E-02 
  45618.6942     0.47357E-02 
  45650.9564     0.47307E-02 
  45683.2186     0.47257E-02 
  45715.4807     0.47205E-02 
  45747.7429     0.47152E-02 
  45780.0050     0.47099E-02 
  45812.2672     0.47044E-02 
  45844.5294     0.46989E-02 
  45876.7915     0.46933E-02 
  45909.0537     0.46876E-02 
  45941.3158     0.46818E-02 
  45973.5780     0.46759E-02 
  46005.8402     0.46699E-02 
  46038.1023     0.46639E-02 
  46070.3645     0.46577E-02 
  46102.6266     0.46515E-02 
  46134.8888     0.46452E-02 
  46167.1510     0.46388E-02 
  46199.4131     0.46323E-02 
  46231.6753     0.46257E-02 
  46263.9374     0.46191E-02 
  46296.1996     0.46123E-02 
  46328.4618     0.46055E-02 
  46360.7239     0.45986E-02 
  46392.9861     0.45916E-02 
  46425.2482     0.45845E-02 
  46457.5104     0.45774E-02 
  46489.7726     0.45701E-02 
  46522.0347     0.45628E-02 
  46554.2969     0.45554E-02 
  46586.5590     0.45480E-02 
  46618.8212     0.45404E-02 
  46651.0834     0.45328E-02 
  46683.3455     0.45251E-02 
  46715.6077     0.45173E-02 
  46747.8698     0.45094E-02 
  46780.1320     0.45015E-02 
  46812.3942     0.44935E-02 
  46844.6563     0.44854E-02 
  46876.9185     0.44773E-02 
  46909.1806     0.44690E-02 
  46941.4428     0.44607E-02 
  46973.7050     0.44523E-02 
  47005.9671     0.44439E-02 
  47038.2293     0.44353E-02 
  47070.4914     0.44267E-02 
  47102.7536     0.44181E-02 
  47135.0158     0.44093E-02 
  47167.2779     0.44005E-02 
  47199.5401     0.43916E-02 
  47231.8022     0.43827E-02 
  47264.0644     0.43737E-02 
  47296.3266     0.43646E-02 
  47328.5887     0.43554E-02 
  47360.8509     0.43462E-02 
  47393.1130     0.43369E-02 
  47425.3752     0.43276E-02 
  47457.6374     0.43182E-02 
  47489.8995     0.43087E-02 
  47522.1617     0.42991E-02 
  47554.4238     0.42895E-02 
  47586.6860     0.42799E-02 
  47618.9482     0.42701E-02 
  47651.2103     0.42603E-02 
  47683.4725     0.42505E-02 
  47715.7346     0.42406E-02 
  47747.9968     0.42306E-02 
  47780.2590     0.42206E-02 
  47812.5211     0.42105E-02 
  47844.7833     0.42003E-02 
  47877.0454     0.41901E-02 
  47909.3076     0.41798E-02 
  47941.5698     0.41695E-02 
  47973.8319     0.41591E-02 
  48006.0941     0.41487E-02 
  48038.3562     0.41382E-02 
  48070.6184     0.41276E-02 
  48102.8806     0.41170E-02 
  48135.1427     0.41064E-02 
  48167.4049     0.40957E-02 
  48199.6670     0.40849E-02 
  48231.9292     0.40741E-02 
  48264.1914     0.40632E-02 
  48296.4535     0.40523E-02 
  48328.7157     0.40414E-02 
  48360.9778     0.40304E-02 
  48393.2400     0.40193E-02 
  48425.5022     0.40082E-02 
  48457.7643     0.39970E-02 
  48490.0265     0.39858E-02 
  48522.2886     0.39746E-02 
  48554.5508     0.39633E-02 
  48586.8130     0.39520E-02 
  48619.0751     0.39406E-02 
  48651.3373     0.39291E-02 
  48683.5994     0.39177E-02 
  48715.8616     0.39062E-02 
  48748.1238     0.38946E-02 
  48780.3859     0.38830E-02 
  48812.6481     0.38714E-02 
  48844.9102     0.38597E-02 
  48877.1724     0.38480E-02 
  48909.4346     0.38362E-02 
  48941.6967     0.38244E-02 
  48973.9589     0.38126E-02 
  49006.2210     0.38007E-02 
  49038.4832     0.37888E-02 
  49070.7454     0.37768E-02 
  49103.0075     0.37649E-02 
  49135.2697     0.37528E-02 
  49167.5318     0.37408E-02 
  49199.7940     0.37287E-02 
  49232.0562     0.37166E-02 
  49264.3183     0.37044E-02 
  49296.5805     0.36922E-02 
  49328.8426     0.36800E-02 
  49361.1048     0.36678E-02 
  49393.3670     0.36555E-02 
  49425.6291     0.36432E-02 
  49457.8913     0.36308E-02 
  49490.1534     0.36185E-02 
  49522.4156     0.36061E-02 
  49554.6778     0.35936E-02 
  49586.9399     0.35812E-02 
  49619.2021     0.35687E-02 
  49651.4642     0.35562E-02 
  49683.7264     0.35437E-02 
  49715.9886     0.35311E-02 
  49748.2507     0.35185E-02 
  49780.5129     0.35059E-02 
  49812.7750     0.34933E-02 
  49845.0372     0.34806E-02 
  49877.2994     0.34680E-02 
  49909.5615     0.34553E-02 
  49941.8237     0.34426E-02 
  49974.0858     0.34298E-02 
  50006.3480     0.34171E-02 
  50038.6102     0.34043E-02 
  50070.8723     0.33915E-02 
  50103.1345     0.33787E-02 
  50135.3966     0.33658E-02 
  50167.6588     0.33530E-02 
  50199.9210     0.33401E-02 
  50232.1831     0.33272E-02 
  50264.4453     0.33143E-02 
  50296.7074     0.33014E-02 
  50328.9696     0.32885E-02 
  50361.2318     0.32755E-02 
  50393.4939     0.32626E-02 
  50425.7561     0.32496E-02 
  50458.0182     0.32366E-02 
  50490.2804     0.32236E-02 
  50522.5426     0.32106E-02 
  50554.8047     0.31976E-02 
  50587.0669     0.31846E-02 
  50619.3290     0.31715E-02 
  50651.5912     0.31585E-02 
  50683.8534     0.31454E-02 
  50716.1155     0.31323E-02 
  50748.3777     0.31193E-02 
  50780.6398     0.31062E-02 
  50812.9020     0.30931E-02 
  50845.1642     0.30800E-02 
  50877.4263     0.30669E-02 
  50909.6885     0.30538E-02 
  50941.9506     0.30406E-02 
  50974.2128     0.30275E-02 
  51006.4750     0.30144E-02 
  51038.7371     0.30013E-02 
  51070.9993     0.29881E-02 
  51103.2614     0.29750E-02 
  51135.5236     0.29619E-02 
  51167.7858     0.29487E-02 
  51200.0479     0.29356E-02 
  51232.3101     0.29224E-02 
  51264.5722     0.29093E-02 
  51296.8344     0.28961E-02 
  51329.0966     0.28830E-02 
  51361.3587     0.28699E-02 
  51393.6209     0.28567E-02 
  51425.8830     0.28436E-02 
  51458.1452     0.28304E-02 
  51490.4074     0.28173E-02 
  51522.6695     0.28042E-02 
  51554.9317     0.27910E-02 
  51587.1938     0.27779E-02 
  51619.4560     0.27648E-02 
  51651.7182     0.27517E-02 
  51683.9803     0.27386E-02 
  51716.2425     0.27255E-02 
  51748.5046     0.27124E-02 
  51780.7668     0.26993E-02 
  51813.0290     0.26862E-02 
  51845.2911     0.26731E-02 
  51877.5533     0.26600E-02 
  51909.8154     0.26470E-02 
  51942.0776     0.26339E-02 
  51974.3398     0.26209E-02 
  52006.6019     0.26078E-02 
  52038.8641     0.25948E-02 
  52071.1262     0.25818E-02 
  52103.3884     0.25688E-02 
  52135.6506     0.25558E-02 
  52167.9127     0.25428E-02 
  52200.1749     0.25298E-02 
  52232.4370     0.25168E-02 
  52264.6992     0.25039E-02 
  52296.9614     0.24910E-02 
  52329.2235     0.24780E-02 
  52361.4857     0.24651E-02 
  52393.7478     0.24522E-02 
  52426.0100     0.24393E-02 
  52458.2722     0.24265E-02 
  52490.5343     0.24136E-02 
  52522.7965     0.24008E-02 
  52555.0586     0.23880E-02 
  52587.3208     0.23751E-02 
  52619.5830     0.23624E-02 
  52651.8451     0.23496E-02 
  52684.1073     0.23368E-02 
  52716.3694     0.23241E-02 
  52748.6316     0.23114E-02 
  52780.8938     0.22986E-02 
  52813.1559     0.22860E-02 
  52845.4181     0.22733E-02 
  52877.6802     0.22606E-02 
  52909.9424     0.22480E-02 
  52942.2046     0.22354E-02 
  52974.4667     0.22228E-02 
  53006.7289     0.22102E-02 
  53038.9910     0.21977E-02 
  53071.2532     0.21852E-02 
  53103.5154     0.21726E-02 
  53135.7775     0.21602E-02 
  53168.0397     0.21477E-02 
  53200.3018     0.21352E-02 
  53232.5640     0.21228E-02 
  53264.8262     0.21104E-02 
  53297.0883     0.20980E-02 
  53329.3505     0.20857E-02 
  53361.6126     0.20734E-02 
  53393.8748     0.20610E-02 
  53426.1370     0.20488E-02 
  53458.3991     0.20365E-02 
  53490.6613     0.20243E-02 
  53522.9234     0.20121E-02 
  53555.1856     0.19999E-02 
  53587.4478     0.19877E-02 
  53619.7099     0.19756E-02 
  53651.9721     0.19635E-02 
  53684.2342     0.19514E-02 
  53716.4964     0.19393E-02 
  53748.7586     0.19273E-02 
  53781.0207     0.19153E-02 
  53813.2829     0.19033E-02 
  53845.5450     0.18913E-02 
  53877.8072     0.18794E-02 
  53910.0694     0.18675E-02 
  53942.3315     0.18557E-02 
  53974.5937     0.18438E-02 
  54006.8558     0.18320E-02 
  54039.1180     0.18202E-02 
  54071.3802     0.18085E-02 
  54103.6423     0.17967E-02 
  54135.9045     0.17850E-02 
  54168.1666     0.17734E-02 
  54200.4288     0.17617E-02 
  54232.6910     0.17501E-02 
  54264.9531     0.17385E-02 
  54297.2153     0.17270E-02 
  54329.4774     0.17155E-02 
  54361.7396     0.17040E-02 
  54394.0018     0.16925E-02 
  54426.2639     0.16811E-02 
  54458.5261     0.16697E-02 
  54490.7882     0.16583E-02 
  54523.0504     0.16470E-02 
  54555.3126     0.16357E-02 
  54587.5747     0.16244E-02 
  54619.8369     0.16132E-02 
  54652.0990     0.16020E-02 
  54684.3612     0.15908E-02 
  54716.6234     0.15796E-02 
  54748.8855     0.15685E-02 
  54781.1477     0.15574E-02 
  54813.4098     0.15464E-02 
  54845.6720     0.15354E-02 
  54877.9342     0.15244E-02 
  54910.1963     0.15135E-02 
  54942.4585     0.15026E-02 
  54974.7206     0.14917E-02 
  55006.9828     0.14808E-02 
  55039.2450     0.14700E-02 
  55071.5071     0.14592E-02 
  55103.7693     0.14485E-02 
  55136.0314     0.14378E-02 
  55168.2936     0.14271E-02 
  55200.5558     0.14165E-02 
  55232.8179     0.14059E-02 
  55265.0801     0.13953E-02 
  55297.3422     0.13848E-02 
  55329.6044     0.13743E-02 
  55361.8666     0.13638E-02 
  55394.1287     0.13534E-02 
  55426.3909     0.13430E-02 
  55458.6530     0.13326E-02 
  55490.9152     0.13223E-02 
  55523.1774     0.13120E-02 
  55555.4395     0.13017E-02 
  55587.7017     0.12915E-02 
  55619.9638     0.12814E-02 
  55652.2260     0.12712E-02 
  55684.4882     0.12611E-02 
  55716.7503     0.12510E-02 
  55749.0125     0.12410E-02 
  55781.2746     0.12310E-02 
  55813.5368     0.12210E-02 
  55845.7990     0.12111E-02 
  55878.0611     0.12012E-02 
  55910.3233     0.11914E-02 
  55942.5854     0.11816E-02 
  55974.8476     0.11718E-02 
  56007.1098     0.11621E-02 
  56039.3719     0.11523E-02 
  56071.6341     0.11427E-02 
  56103.8962     0.11331E-02 
  56136.1584     0.11235E-02 
  56168.4206     0.11139E-02 
  56200.6827     0.11044E-02 
  56232.9449     0.10949E-02 
  56265.2070     0.10855E-02 
  56297.4692     0.10761E-02 
  56329.7314     0.10667E-02 
  56361.9935     0.10574E-02 
  56394.2557     0.10481E-02 
  56426.5178     0.10389E-02 
  56458.7800     0.10297E-02 
  56491.0422     0.10205E-02 
  56523.3043     0.10114E-02 
  56555.5665     0.10023E-02 
  56587.8286     0.99323E-03 
  56620.0908     0.98421E-03 
  56652.3530     0.97524E-03 
  56684.6151     0.96630E-03 
  56716.8773     0.95740E-03 
  56749.1394     0.94854E-03 
  56781.4016     0.93972E-03 
  56813.6638     0.93094E-03 
  56845.9259     0.92220E-03 
  56878.1881     0.91350E-03 
  56910.4502     0.90484E-03 
  56942.7124     0.89621E-03 
  56974.9746     0.88763E-03 
  57007.2367     0.87909E-03 
  57039.4989     0.87058E-03 
  57071.7610     0.86212E-03 
  57104.0232     0.85369E-03 
  57136.2854     0.84530E-03 
  57168.5475     0.83696E-03 
  57200.8097     0.82865E-03 
  57233.0718     0.82039E-03 
  57265.3340     0.81216E-03 
  57297.5962     0.80398E-03 
  57329.8583     0.79583E-03 
  57362.1205     0.78773E-03 
  57394.3826     0.77966E-03 
  57426.6448     0.77164E-03 
  57458.9070     0.76365E-03 
  57491.1691     0.75571E-03 
  57523.4313     0.74781E-03 
  57555.6934     0.73994E-03 
  57587.9556     0.73212E-03 
  57620.2178     0.72434E-03 
  57652.4799     0.71660E-03 
  57684.7421     0.70890E-03 
  57717.0042     0.70124E-03 
  57749.2664     0.69363E-03 
  57781.5286     0.68605E-03 
  57813.7907     0.67852E-03 
  57846.0529     0.67102E-03 
  57878.3150     0.66357E-03 
  57910.5772     0.65616E-03 
  57942.8394     0.64879E-03 
  57975.1015     0.64146E-03 
  58007.3637     0.63417E-03 
  58039.6258     0.62693E-03 
  58071.8880     0.61973E-03 
  58104.1502     0.61256E-03 
  58136.4123     0.60545E-03 
  58168.6745     0.59837E-03 
  58200.9366     0.59133E-03 
  58233.1988     0.58434E-03 
  58265.4610     0.57739E-03 
  58297.7231     0.57048E-03 
  58329.9853     0.56361E-03 
  58362.2474     0.55679E-03 
  58394.5096     0.55001E-03 
  58426.7718     0.54327E-03 
  58459.0339     0.53658E-03 
  58491.2961     0.52992E-03 
  58523.5582     0.52331E-03 
  58555.8204     0.51675E-03 
  58588.0826     0.51022E-03 
  58620.3447     0.50374E-03 
  58652.6069     0.49731E-03 
  58684.8690     0.49092E-03 
  58717.1312     0.48457E-03 
  58749.3934     0.47826E-03 
  58781.6555     0.47200E-03 
  58813.9177     0.46578E-03 
  58846.1798     0.45961E-03 
  58878.4420     0.45348E-03 
  58910.7042     0.44740E-03 
  58942.9663     0.44136E-03 
  58975.2285     0.43536E-03 
  59007.4906     0.42941E-03 
  59039.7528     0.42350E-03 
  59072.0150     0.41764E-03 
  59104.2771     0.41183E-03 
  59136.5393     0.40606E-03 
  59168.8014     0.40033E-03 
  59201.0636     0.39466E-03 
  59233.3258     0.38902E-03 
  59265.5879     0.38344E-03 
  59297.8501     0.37790E-03 
  59330.1122     0.37240E-03 
  59362.3744     0.36696E-03 
  59394.6366     0.36155E-03 
  59426.8987     0.35620E-03 
  59459.1609     0.35089E-03 
  59491.4230     0.34564E-03 
  59523.6852     0.34042E-03 
  59555.9474     0.33526E-03 
  59588.2095     0.33014E-03 
  59620.4717     0.32508E-03 
  59652.7338     0.32006E-03 
  59684.9960     0.31509E-03 
  59717.2582     0.31017E-03 
  59749.5203     0.30529E-03 
  59781.7825     0.30047E-03 
  59814.0446     0.29570E-03 
  59846.3068     0.29097E-03 
  59878.5690     0.28630E-03 
  59910.8311     0.28167E-03 
  59943.0933     0.27710E-03 
  59975.3554     0.27258E-03 
  60007.6176     0.26811E-03 
  60039.8798     0.26369E-03 
  60072.1419     0.25932E-03 
  60104.4041     0.25500E-03 
  60136.6662     0.25074E-03 
  60168.9284     0.24653E-03 
  60201.1906     0.24237E-03 
  60233.4527     0.23826E-03 
  60265.7149     0.23421E-03 
  60297.9770     0.23021E-03 
  60330.2392     0.22627E-03 
  60362.5014     0.22238E-03 
  60394.7635     0.21855E-03 
  60427.0257     0.21477E-03 
  60459.2878     0.21104E-03 
  60491.5500     0.20738E-03 
  60523.8122     0.20376E-03 
  60556.0743     0.20021E-03 
  60588.3365     0.19671E-03 
  60620.5986     0.19327E-03 
  60652.8608     0.18989E-03 
  60685.1230     0.18657E-03 
  60717.3851     0.18330E-03 
  60749.6473     0.18010E-03 
  60781.9094     0.17695E-03 
  60814.1716     0.17386E-03 
  60846.4338     0.17084E-03 
  60878.6959     0.16787E-03 
  60910.9581     0.16497E-03 
  60943.2202     0.16213E-03 
  60975.4824     0.15935E-03 
  61007.7446     0.15663E-03 
  61040.0067     0.15398E-03 
  61072.2689     0.15139E-03 
  61104.5310     0.14886E-03 
  61136.7932     0.14641E-03 
  61169.0554     0.14401E-03 
  61201.3175     0.14168E-03 
  61233.5797     0.13942E-03 
  61265.8418     0.13723E-03 
  61298.1040     0.13510E-03 
  61330.3662     0.13304E-03 
  61362.6283     0.13105E-03 
  61394.8905     0.12913E-03 
  61427.1526     0.12728E-03 
  61459.4148     0.12550E-03 
  61491.6770     0.12380E-03 
  61523.9391     0.12216E-03 
  61556.2013     0.12060E-03 
  61588.4634     0.11911E-03 
  61620.7256     0.11769E-03 
  61652.9878     0.11635E-03 
  61685.2499     0.11509E-03 
  61717.5121     0.11390E-03 
  61749.7742     0.11279E-03 
  61782.0364     0.11175E-03 
  61814.2986     0.11080E-03 
  61846.5607     0.10992E-03 
  61878.8229     0.10913E-03 
  61911.0850     0.10841E-03 
  61943.3472     0.10778E-03 
  61975.6094     0.10722E-03 
  62007.8715     0.10676E-03 
  62040.1337     0.10637E-03 
  62072.3958     0.10607E-03 
  62104.6580     0.10586E-03 
  62136.9202     0.10573E-03 
  62169.1823     0.10569E-03 
  62201.4445     0.10574E-03 
  62233.7066     0.10587E-03 
  62265.9688     0.10610E-03 
  62298.2310     0.10642E-03 
  62330.4931     0.10683E-03 
  62362.7553     0.10734E-03 
  62395.0174     0.10793E-03 
  62427.2796     0.10863E-03 
  62459.5418     0.10942E-03 
  62491.8039     0.11030E-03 
  62524.0661     0.11129E-03 
  62556.3282     0.11237E-03 
  62588.5904     0.11355E-03 
  62620.8526     0.11484E-03 
  62653.1147     0.11623E-03 
  62685.3769     0.11772E-03 
  62717.6390     0.11931E-03 
  62749.9012     0.12101E-03 
  62782.1634     0.12282E-03 
  62814.4255     0.12474E-03 
  62846.6877     0.12676E-03 
  62878.9498     0.12890E-03 
  62911.2120     0.13115E-03 
  62943.4742     0.13351E-03 
  62975.7363     0.13599E-03 
  63007.9985     0.13858E-03 
  63040.2606     0.14128E-03 
  63072.5228     0.14411E-03 
  63104.7850     0.14705E-03 
  63137.0471     0.15012E-03 
  63169.3093     0.15331E-03 
  63201.5714     0.15662E-03 
  63233.8336     0.16005E-03 
  63266.0958     0.16361E-03 
  63298.3579     0.16730E-03 
  63330.6201     0.17112E-03 
  63362.8822     0.17507E-03 
  63395.1444     0.17915E-03 
  63427.4066     0.18337E-03 
  63459.6687     0.18772E-03 
  63491.9309     0.19220E-03 
  63524.1930     0.19683E-03 
  63556.4552     0.20159E-03 
  63588.7174     0.20649E-03 
  63620.9795     0.21154E-03 
  63653.2417     0.21673E-03 
  63685.5038     0.22207E-03 
  63717.7660     0.22756E-03 
  63750.0282     0.23319E-03 
  63782.2903     0.23898E-03 
  63814.5525     0.24492E-03 
  63846.8146     0.25101E-03 
  63879.0768     0.25726E-03 
  63911.3390     0.26367E-03 
  63943.6011     0.27023E-03 
  63975.8633     0.27696E-03 
  64008.1254     0.28385E-03 
  64040.3876     0.29091E-03 
  64072.6498     0.29813E-03 
  64104.9119     0.30553E-03 
  64137.1741     0.31309E-03 
  64169.4362     0.32083E-03 
  64201.6984     0.32874E-03 
  64233.9606     0.33683E-03 
  64266.2227     0.34509E-03 
  64298.4849     0.35354E-03 
  64330.7470     0.36217E-03 
  64363.0092     0.37099E-03 
  64395.2714     0.37999E-03 
  64427.5335     0.38918E-03 
  64459.7957     0.39856E-03 
  64492.0578     0.40813E-03 
  64524.3200     0.41790E-03 
  64556.5822     0.42787E-03 
  64588.8443     0.43804E-03 
  64621.1065     0.44840E-03 
  64653.3686     0.45898E-03 
  64685.6308     0.46976E-03 
  64717.8930     0.48074E-03 
  64750.1551     0.49194E-03 
  64782.4173     0.50335E-03 
  64814.6794     0.51498E-03 
  64846.9416     0.52682E-03 
  64879.2038     0.53889E-03 
  64911.4659     0.55117E-03 
  64943.7281     0.56368E-03 
  64975.9902     0.57642E-03 
  65008.2524     0.58939E-03 
  65040.5146     0.60259E-03 
  65072.7767     0.61603E-03 
  65105.0389     0.62970E-03 
  65137.3010     0.64362E-03 
  65169.5632     0.65777E-03 
  65201.8254     0.67217E-03 
  65234.0875     0.68682E-03 
  65266.3497     0.70172E-03 
  65298.6118     0.71687E-03 
  65330.8740     0.73228E-03 
  65363.1362     0.74795E-03 
  65395.3983     0.76387E-03 
  65427.6605     0.78006E-03 
  65459.9226     0.79652E-03 
  65492.1848     0.81324E-03 
  65524.4470     0.83024E-03 
  65556.7091     0.84752E-03 
  65588.9713     0.86507E-03 
  65621.2334     0.88290E-03 
  65653.4956     0.90101E-03 
  65685.7578     0.91941E-03 
  65718.0199     0.93810E-03 
  65750.2821     0.95708E-03 
  65782.5442     0.97636E-03 
  65814.8064     0.99593E-03 
  65847.0686     0.10158E-02 
  65879.3307     0.10360E-02 
  65911.5929     0.10565E-02 
  65943.8550     0.10773E-02 
  65976.1172     0.10984E-02 
  66008.3794     0.11198E-02 
  66040.6415     0.11416E-02 
  66072.9037     0.11636E-02 
  66105.1658     0.11860E-02 
  66137.4280     0.12087E-02 
  66169.6902     0.12318E-02 
  66201.9523     0.12552E-02 
  66234.2145     0.12789E-02 
  66266.4766     0.13030E-02 
  66298.7388     0.13274E-02 
  66331.0010     0.13522E-02 
  66363.2631     0.13773E-02 
  66395.5253     0.14027E-02 
  66427.7874     0.14286E-02 
  66460.0496     0.14548E-02 
  66492.3118     0.14813E-02 
  66524.5739     0.15082E-02 
  66556.8361     0.15355E-02 
  66589.0982     0.15632E-02 
  66621.3604     0.15913E-02 
  66653.6226     0.16197E-02 
  66685.8847     0.16485E-02 
  66718.1469     0.16777E-02 
  66750.4090     0.17073E-02 
  66782.6712     0.17373E-02 
  66814.9334     0.17677E-02 
  66847.1955     0.17985E-02 
  66879.4577     0.18297E-02 
  66911.7198     0.18613E-02 
  66943.9820     0.18934E-02 
  66976.2442     0.19258E-02 
  67008.5063     0.19587E-02 
  67040.7685     0.19920E-02 
  67073.0306     0.20257E-02 
  67105.2928     0.20598E-02 
  67137.5550     0.20944E-02 
  67169.8171     0.21295E-02 
  67202.0793     0.21649E-02 
  67234.3414     0.22009E-02 
  67266.6036     0.22372E-02 
  67298.8658     0.22741E-02 
  67331.1279     0.23113E-02 
  67363.3901     0.23491E-02 
  67395.6522     0.23873E-02 
  67427.9144     0.24260E-02 
  67460.1766     0.24651E-02 
  67492.4387     0.25048E-02 
  67524.7009     0.25449E-02 
  67556.9630     0.25855E-02 
  67589.2252     0.26266E-02 
  67621.4874     0.26682E-02 
  67653.7495     0.27102E-02 
  67686.0117     0.27528E-02 
  67718.2738     0.27959E-02 
  67750.5360     0.28395E-02 
  67782.7982     0.28836E-02 
  67815.0603     0.29282E-02 
  67847.3225     0.29733E-02 
  67879.5846     0.30190E-02 
  67911.8468     0.30652E-02 
  67944.1090     0.31119E-02 
  67976.3711     0.31592E-02 
  68008.6333     0.32070E-02 
  68040.8954     0.32553E-02 
  68073.1576     0.33042E-02 
  68105.4198     0.33536E-02 
  68137.6819     0.34036E-02 
  68169.9441     0.34542E-02 
  68202.2062     0.35053E-02 
  68234.4684     0.35570E-02 
  68266.7306     0.36092E-02 
  68298.9927     0.36621E-02 
  68331.2549     0.37155E-02 
  68363.5170     0.37695E-02 
  68395.7792     0.38241E-02 
  68428.0414     0.38792E-02 
  68460.3035     0.39350E-02 
  68492.5657     0.39914E-02 
  68524.8278     0.40483E-02 
  68557.0900     0.41059E-02 
  68589.3522     0.41641E-02 
  68621.6143     0.42229E-02 
  68653.8765     0.42823E-02 
  68686.1386     0.43423E-02 
  68718.4008     0.44030E-02 
  68750.6630     0.44643E-02 
  68782.9251     0.45262E-02 
  68815.1873     0.45888E-02 
  68847.4494     0.46520E-02 
  68879.7116     0.47158E-02 
  68911.9738     0.47803E-02 
  68944.2359     0.48455E-02 
  68976.4981     0.49113E-02 
  69008.7602     0.49778E-02 
  69041.0224     0.50449E-02 
  69073.2846     0.51127E-02 
  69105.5467     0.51812E-02 
  69137.8089     0.52503E-02 
  69170.0710     0.53202E-02 
  69202.3332     0.53907E-02 
  69234.5954     0.54619E-02 
  69266.8575     0.55338E-02 
  69299.1197     0.56064E-02 
  69331.3818     0.56797E-02 
  69363.6440     0.57537E-02 
  69395.9062     0.58284E-02 
  69428.1683     0.59038E-02 
  69460.4305     0.59799E-02 
  69492.6926     0.60567E-02 
  69524.9548     0.61343E-02 
  69557.2170     0.62126E-02 
  69589.4791     0.62916E-02 
  69621.7413     0.63713E-02 
  69654.0034     0.64518E-02 
  69686.2656     0.65330E-02 
  69718.5278     0.66150E-02 
  69750.7899     0.66977E-02 
  69783.0521     0.67811E-02 
  69815.3142     0.68653E-02 
  69847.5764     0.69502E-02 
  69879.8386     0.70360E-02 
  69912.1007     0.71224E-02 
  69944.3629     0.72097E-02 
  69976.6250     0.72977E-02 
  70008.8872     0.73864E-02 
  70041.1494     0.74760E-02 
  70073.4115     0.75663E-02 
  70105.6737     0.76574E-02 
  70137.9358     0.77493E-02 
  70170.1980     0.78420E-02 
  70202.4602     0.79354E-02 
  70234.7223     0.80297E-02 
  70266.9845     0.81247E-02 
  70299.2466     0.82206E-02 
  70331.5088     0.83172E-02 
  70363.7710     0.84147E-02 
  70396.0331     0.85129E-02 
  70428.2953     0.86120E-02 
  70460.5574     0.87119E-02 
  70492.8196     0.88126E-02 
  70525.0818     0.89141E-02 
  70557.3439     0.90164E-02 
  70589.6061     0.91196E-02 
  70621.8682     0.92236E-02 
  70654.1304     0.93284E-02 
  70686.3926     0.94340E-02 
  70718.6547     0.95405E-02 
  70750.9169     0.96478E-02 
  70783.1790     0.97559E-02 
  70815.4412     0.98649E-02 
  70847.7034     0.99747E-02 
  70879.9655     0.10085E-01 
  70912.2277     0.10197E-01 
  70944.4898     0.10309E-01 
  70976.7520     0.10422E-01 
  71009.0142     0.10537E-01 
  71041.2763     0.10651E-01 
  71073.5385     0.10767E-01 
  71105.8006     0.10884E-01 
  71138.0628     0.11001E-01 
  71170.3250     0.11120E-01 
  71202.5871     0.11239E-01 
  71234.8493     0.11359E-01 
  71267.1114     0.11480E-01 
  71299.3736     0.11602E-01 
  71331.6358     0.11724E-01 
  71363.8979     0.11848E-01 
  71396.1601     0.11972E-01 
  71428.4222     0.12098E-01 
  71460.6844     0.12224E-01 
  71492.9466     0.12351E-01 
  71525.2087     0.12479E-01 
  71557.4709     0.12607E-01 
  71589.7330     0.12737E-01 
  71621.9952     0.12868E-01 
  71654.2574     0.12999E-01 
  71686.5195     0.13131E-01 
  71718.7817     0.13265E-01 
  71751.0438     0.13399E-01 
  71783.3060     0.13534E-01 
  71815.5682     0.13669E-01 
  71847.8303     0.13806E-01 
  71880.0925     0.13944E-01 
  71912.3546     0.14082E-01 
  71944.6168     0.14221E-01 
  71976.8790     0.14362E-01 
  72009.1411     0.14503E-01 
  72041.4033     0.14645E-01 
  72073.6654     0.14788E-01 
  72105.9276     0.14931E-01 
  72138.1898     0.15076E-01 
  72170.4519     0.15222E-01 
  72202.7141     0.15368E-01 
  72234.9762     0.15515E-01 
  72267.2384     0.15663E-01 
  72299.5006     0.15812E-01 
  72331.7627     0.15962E-01 
  72364.0249     0.16113E-01 
  72396.2870     0.16265E-01 
  72428.5492     0.16417E-01 
  72460.8114     0.16571E-01 
  72493.0735     0.16725E-01 
  72525.3357     0.16880E-01 
  72557.5978     0.17037E-01 
  72589.8600     0.17193E-01 
