  32262.1600     0.16033E-03 
  32294.4222     0.16190E-03 
  32326.6843     0.16348E-03 
  32358.9465     0.16507E-03 
  32391.2086     0.16666E-03 
  32423.4708     0.16827E-03 
  32455.7330     0.16989E-03 
  32487.9951     0.17152E-03 
  32520.2573     0.17316E-03 
  32552.5194     0.17481E-03 
  32584.7816     0.17647E-03 
  32617.0438     0.17813E-03 
  32649.3059     0.17981E-03 
  32681.5681     0.18150E-03 
  32713.8302     0.18320E-03 
  32746.0924     0.18491E-03 
  32778.3546     0.18662E-03 
  32810.6167     0.18835E-03 
  32842.8789     0.19009E-03 
  32875.1410     0.19184E-03 
  32907.4032     0.19360E-03 
  32939.6654     0.19536E-03 
  32971.9275     0.19714E-03 
  33004.1897     0.19893E-03 
  33036.4518     0.20072E-03 
  33068.7140     0.20253E-03 
  33100.9762     0.20435E-03 
  33133.2383     0.20617E-03 
  33165.5005     0.20801E-03 
  33197.7626     0.20985E-03 
  33230.0248     0.21171E-03 
  33262.2870     0.21357E-03 
  33294.5491     0.21544E-03 
  33326.8113     0.21733E-03 
  33359.0734     0.21922E-03 
  33391.3356     0.22112E-03 
  33423.5978     0.22304E-03 
  33455.8599     0.22496E-03 
  33488.1221     0.22689E-03 
  33520.3842     0.22883E-03 
  33552.6464     0.23078E-03 
  33584.9086     0.23274E-03 
  33617.1707     0.23471E-03 
  33649.4329     0.23669E-03 
  33681.6950     0.23867E-03 
  33713.9572     0.24067E-03 
  33746.2194     0.24268E-03 
  33778.4815     0.24469E-03 
  33810.7437     0.24671E-03 
  33843.0058     0.24875E-03 
  33875.2680     0.25079E-03 
  33907.5302     0.25284E-03 
  33939.7923     0.25490E-03 
  33972.0545     0.25697E-03 
  34004.3166     0.25905E-03 
  34036.5788     0.26113E-03 
  34068.8410     0.26323E-03 
  34101.1031     0.26533E-03 
  34133.3653     0.26744E-03 
  34165.6274     0.26956E-03 
  34197.8896     0.27169E-03 
  34230.1518     0.27383E-03 
  34262.4139     0.27598E-03 
  34294.6761     0.27813E-03 
  34326.9382     0.28030E-03 
  34359.2004     0.28247E-03 
  34391.4626     0.28465E-03 
  34423.7247     0.28683E-03 
  34455.9869     0.28903E-03 
  34488.2490     0.29123E-03 
  34520.5112     0.29345E-03 
  34552.7734     0.29567E-03 
  34585.0355     0.29789E-03 
  34617.2977     0.30013E-03 
  34649.5598     0.30237E-03 
  34681.8220     0.30462E-03 
  34714.0842     0.30688E-03 
  34746.3463     0.30915E-03 
  34778.6085     0.31142E-03 
  34810.8706     0.31370E-03 
  34843.1328     0.31599E-03 
  34875.3950     0.31829E-03 
  34907.6571     0.32059E-03 
  34939.9193     0.32290E-03 
  34972.1814     0.32522E-03 
  35004.4436     0.32754E-03 
  35036.7058     0.32987E-03 
  35068.9679     0.33221E-03 
  35101.2301     0.33455E-03 
  35133.4922     0.33690E-03 
  35165.7544     0.33926E-03 
  35198.0166     0.34162E-03 
  35230.2787     0.34399E-03 
  35262.5409     0.34637E-03 
  35294.8030     0.34875E-03 
  35327.0652     0.35114E-03 
  35359.3274     0.35354E-03 
  35391.5895     0.35594E-03 
  35423.8517     0.35835E-03 
  35456.1138     0.36076E-03 
  35488.3760     0.36318E-03 
  35520.6382     0.36560E-03 
  35552.9003     0.36803E-03 
  35585.1625     0.37047E-03 
  35617.4246     0.37291E-03 
  35649.6868     0.37535E-03 
  35681.9490     0.37780E-03 
  35714.2111     0.38026E-03 
  35746.4733     0.38272E-03 
  35778.7354     0.38519E-03 
  35810.9976     0.38766E-03 
  35843.2598     0.39013E-03 
  35875.5219     0.39261E-03 
  35907.7841     0.39510E-03 
  35940.0462     0.39759E-03 
  35972.3084     0.40008E-03 
  36004.5706     0.40258E-03 
  36036.8327     0.40508E-03 
  36069.0949     0.40758E-03 
  36101.3570     0.41009E-03 
  36133.6192     0.41261E-03 
  36165.8814     0.41512E-03 
  36198.1435     0.41764E-03 
  36230.4057     0.42017E-03 
  36262.6678     0.42269E-03 
  36294.9300     0.42523E-03 
  36327.1922     0.42776E-03 
  36359.4543     0.43030E-03 
  36391.7165     0.43284E-03 
  36423.9786     0.43538E-03 
  36456.2408     0.43792E-03 
  36488.5030     0.44047E-03 
  36520.7651     0.44302E-03 
  36553.0273     0.44557E-03 
  36585.2894     0.44813E-03 
  36617.5516     0.45069E-03 
  36649.8138     0.45324E-03 
  36682.0759     0.45580E-03 
  36714.3381     0.45837E-03 
  36746.6002     0.46093E-03 
  36778.8624     0.46350E-03 
  36811.1246     0.46607E-03 
  36843.3867     0.46863E-03 
  36875.6489     0.47120E-03 
  36907.9110     0.47377E-03 
  36940.1732     0.47635E-03 
  36972.4354     0.47892E-03 
  37004.6975     0.48149E-03 
  37036.9597     0.48407E-03 
  37069.2218     0.48664E-03 
  37101.4840     0.48922E-03 
  37133.7462     0.49179E-03 
  37166.0083     0.49437E-03 
  37198.2705     0.49694E-03 
  37230.5326     0.49952E-03 
  37262.7948     0.50209E-03 
  37295.0570     0.50466E-03 
  37327.3191     0.50724E-03 
  37359.5813     0.50981E-03 
  37391.8434     0.51238E-03 
  37424.1056     0.51495E-03 
  37456.3678     0.51752E-03 
  37488.6299     0.52009E-03 
  37520.8921     0.52266E-03 
  37553.1542     0.52523E-03 
  37585.4164     0.52779E-03 
  37617.6786     0.53036E-03 
  37649.9407     0.53292E-03 
  37682.2029     0.53548E-03 
  37714.4650     0.53803E-03 
  37746.7272     0.54059E-03 
  37778.9894     0.54314E-03 
  37811.2515     0.54569E-03 
  37843.5137     0.54824E-03 
  37875.7758     0.55079E-03 
  37908.0380     0.55333E-03 
  37940.3002     0.55587E-03 
  37972.5623     0.55840E-03 
  38004.8245     0.56094E-03 
  38037.0866     0.56347E-03 
  38069.3488     0.56599E-03 
  38101.6110     0.56851E-03 
  38133.8731     0.57103E-03 
  38166.1353     0.57355E-03 
  38198.3974     0.57606E-03 
  38230.6596     0.57857E-03 
  38262.9218     0.58107E-03 
  38295.1839     0.58357E-03 
  38327.4461     0.58606E-03 
  38359.7082     0.58855E-03 
  38391.9704     0.59103E-03 
  38424.2326     0.59351E-03 
  38456.4947     0.59598E-03 
  38488.7569     0.59845E-03 
  38521.0190     0.60091E-03 
  38553.2812     0.60337E-03 
  38585.5434     0.60582E-03 
  38617.8055     0.60827E-03 
  38650.0677     0.61071E-03 
  38682.3298     0.61314E-03 
  38714.5920     0.61557E-03 
  38746.8542     0.61799E-03 
  38779.1163     0.62041E-03 
  38811.3785     0.62282E-03 
  38843.6406     0.62522E-03 
  38875.9028     0.62762E-03 
  38908.1650     0.63001E-03 
  38940.4271     0.63239E-03 
  38972.6893     0.63476E-03 
  39004.9514     0.63713E-03 
  39037.2136     0.63949E-03 
  39069.4758     0.64184E-03 
  39101.7379     0.64418E-03 
  39134.0001     0.64652E-03 
  39166.2622     0.64885E-03 
  39198.5244     0.65117E-03 
  39230.7866     0.65348E-03 
  39263.0487     0.65578E-03 
  39295.3109     0.65808E-03 
  39327.5730     0.66037E-03 
  39359.8352     0.66264E-03 
  39392.0974     0.66491E-03 
  39424.3595     0.66717E-03 
  39456.6217     0.66942E-03 
  39488.8838     0.67167E-03 
  39521.1460     0.67390E-03 
  39553.4082     0.67612E-03 
  39585.6703     0.67833E-03 
  39617.9325     0.68054E-03 
  39650.1946     0.68273E-03 
  39682.4568     0.68491E-03 
  39714.7190     0.68709E-03 
  39746.9811     0.68925E-03 
  39779.2433     0.69140E-03 
  39811.5054     0.69355E-03 
  39843.7676     0.69568E-03 
  39876.0298     0.69780E-03 
  39908.2919     0.69991E-03 
  39940.5541     0.70201E-03 
  39972.8162     0.70410E-03 
  40005.0784     0.70618E-03 
  40037.3406     0.70824E-03 
  40069.6027     0.71030E-03 
  40101.8649     0.71234E-03 
  40134.1270     0.71437E-03 
  40166.3892     0.71639E-03 
  40198.6514     0.71840E-03 
  40230.9135     0.72039E-03 
  40263.1757     0.72238E-03 
  40295.4378     0.72435E-03 
  40327.7000     0.72631E-03 
  40359.9622     0.72826E-03 
  40392.2243     0.73019E-03 
  40424.4865     0.73211E-03 
  40456.7486     0.73402E-03 
  40489.0108     0.73592E-03 
  40521.2730     0.73780E-03 
  40553.5351     0.73967E-03 
  40585.7973     0.74153E-03 
  40618.0594     0.74337E-03 
  40650.3216     0.74520E-03 
  40682.5838     0.74702E-03 
  40714.8459     0.74882E-03 
  40747.1081     0.75061E-03 
  40779.3702     0.75239E-03 
  40811.6324     0.75415E-03 
  40843.8946     0.75590E-03 
  40876.1567     0.75764E-03 
  40908.4189     0.75936E-03 
  40940.6810     0.76106E-03 
  40972.9432     0.76275E-03 
  41005.2054     0.76443E-03 
  41037.4675     0.76609E-03 
  41069.7297     0.76774E-03 
  41101.9918     0.76937E-03 
  41134.2540     0.77099E-03 
  41166.5162     0.77260E-03 
  41198.7783     0.77419E-03 
  41231.0405     0.77576E-03 
  41263.3026     0.77732E-03 
  41295.5648     0.77886E-03 
  41327.8270     0.78039E-03 
  41360.0891     0.78190E-03 
  41392.3513     0.78340E-03 
  41424.6134     0.78488E-03 
  41456.8756     0.78635E-03 
  41489.1378     0.78780E-03 
  41521.3999     0.78923E-03 
  41553.6621     0.79065E-03 
  41585.9242     0.79205E-03 
  41618.1864     0.79344E-03 
  41650.4486     0.79481E-03 
  41682.7107     0.79617E-03 
  41714.9729     0.79751E-03 
  41747.2350     0.79883E-03 
  41779.4972     0.80013E-03 
  41811.7594     0.80142E-03 
  41844.0215     0.80270E-03 
  41876.2837     0.80395E-03 
  41908.5458     0.80519E-03 
  41940.8080     0.80642E-03 
  41973.0702     0.80762E-03 
  42005.3323     0.80881E-03 
  42037.5945     0.80998E-03 
  42069.8566     0.81114E-03 
  42102.1188     0.81228E-03 
  42134.3810     0.81340E-03 
  42166.6431     0.81451E-03 
  42198.9053     0.81559E-03 
  42231.1674     0.81666E-03 
  42263.4296     0.81772E-03 
  42295.6918     0.81875E-03 
  42327.9539     0.81977E-03 
  42360.2161     0.82077E-03 
  42392.4782     0.82176E-03 
  42424.7404     0.82272E-03 
  42457.0026     0.82367E-03 
  42489.2647     0.82460E-03 
  42521.5269     0.82552E-03 
  42553.7890     0.82641E-03 
  42586.0512     0.82729E-03 
  42618.3134     0.82815E-03 
  42650.5755     0.82899E-03 
  42682.8377     0.82982E-03 
  42715.0998     0.83063E-03 
  42747.3620     0.83142E-03 
  42779.6242     0.83219E-03 
  42811.8863     0.83294E-03 
  42844.1485     0.83368E-03 
  42876.4106     0.83439E-03 
  42908.6728     0.83509E-03 
  42940.9350     0.83577E-03 
  42973.1971     0.83644E-03 
  43005.4593     0.83708E-03 
  43037.7214     0.83771E-03 
  43069.9836     0.83832E-03 
  43102.2458     0.83891E-03 
  43134.5079     0.83948E-03 
  43166.7701     0.84003E-03 
  43199.0322     0.84057E-03 
  43231.2944     0.84109E-03 
  43263.5566     0.84159E-03 
  43295.8187     0.84207E-03 
  43328.0809     0.84253E-03 
  43360.3430     0.84298E-03 
  43392.6052     0.84340E-03 
  43424.8674     0.84381E-03 
  43457.1295     0.84420E-03 
  43489.3917     0.84457E-03 
  43521.6538     0.84492E-03 
  43553.9160     0.84526E-03 
  43586.1782     0.84557E-03 
  43618.4403     0.84587E-03 
  43650.7025     0.84615E-03 
  43682.9646     0.84641E-03 
  43715.2268     0.84665E-03 
  43747.4890     0.84688E-03 
  43779.7511     0.84708E-03 
  43812.0133     0.84727E-03 
  43844.2754     0.84744E-03 
  43876.5376     0.84759E-03 
  43908.7998     0.84772E-03 
  43941.0619     0.84784E-03 
  43973.3241     0.84794E-03 
  44005.5862     0.84801E-03 
  44037.8484     0.84807E-03 
  44070.1106     0.84811E-03 
  44102.3727     0.84814E-03 
  44134.6349     0.84814E-03 
  44166.8970     0.84813E-03 
  44199.1592     0.84809E-03 
  44231.4214     0.84804E-03 
  44263.6835     0.84798E-03 
  44295.9457     0.84789E-03 
  44328.2078     0.84778E-03 
  44360.4700     0.84766E-03 
  44392.7322     0.84752E-03 
  44424.9943     0.84736E-03 
  44457.2565     0.84719E-03 
  44489.5186     0.84699E-03 
  44521.7808     0.84678E-03 
  44554.0430     0.84655E-03 
  44586.3051     0.84630E-03 
  44618.5673     0.84603E-03 
  44650.8294     0.84575E-03 
  44683.0916     0.84545E-03 
  44715.3538     0.84513E-03 
  44747.6159     0.84479E-03 
  44779.8781     0.84443E-03 
  44812.1402     0.84406E-03 
  44844.4024     0.84367E-03 
  44876.6646     0.84326E-03 
  44908.9267     0.84283E-03 
  44941.1889     0.84239E-03 
  44973.4510     0.84193E-03 
  45005.7132     0.84145E-03 
  45037.9754     0.84096E-03 
  45070.2375     0.84044E-03 
  45102.4997     0.83991E-03 
  45134.7618     0.83936E-03 
  45167.0240     0.83880E-03 
  45199.2862     0.83822E-03 
  45231.5483     0.83762E-03 
  45263.8105     0.83700E-03 
  45296.0726     0.83637E-03 
  45328.3348     0.83572E-03 
  45360.5970     0.83505E-03 
  45392.8591     0.83437E-03 
  45425.1213     0.83367E-03 
  45457.3834     0.83295E-03 
  45489.6456     0.83222E-03 
  45521.9078     0.83147E-03 
  45554.1699     0.83070E-03 
  45586.4321     0.82992E-03 
  45618.6942     0.82912E-03 
  45650.9564     0.82830E-03 
  45683.2186     0.82747E-03 
  45715.4807     0.82662E-03 
  45747.7429     0.82576E-03 
  45780.0050     0.82488E-03 
  45812.2672     0.82398E-03 
  45844.5294     0.82307E-03 
  45876.7915     0.82214E-03 
  45909.0537     0.82120E-03 
  45941.3158     0.82024E-03 
  45973.5780     0.81926E-03 
  46005.8402     0.81827E-03 
  46038.1023     0.81726E-03 
  46070.3645     0.81624E-03 
  46102.6266     0.81520E-03 
  46134.8888     0.81415E-03 
  46167.1510     0.81308E-03 
  46199.4131     0.81200E-03 
  46231.6753     0.81090E-03 
  46263.9374     0.80978E-03 
  46296.1996     0.80866E-03 
  46328.4618     0.80751E-03 
  46360.7239     0.80635E-03 
  46392.9861     0.80518E-03 
  46425.2482     0.80399E-03 
  46457.5104     0.80279E-03 
  46489.7726     0.80158E-03 
  46522.0347     0.80034E-03 
  46554.2969     0.79910E-03 
  46586.5590     0.79784E-03 
  46618.8212     0.79657E-03 
  46651.0834     0.79528E-03 
  46683.3455     0.79398E-03 
  46715.6077     0.79266E-03 
  46747.8698     0.79133E-03 
  46780.1320     0.78999E-03 
  46812.3942     0.78863E-03 
  46844.6563     0.78726E-03 
  46876.9185     0.78588E-03 
  46909.1806     0.78448E-03 
  46941.4428     0.78307E-03 
  46973.7050     0.78165E-03 
  47005.9671     0.78021E-03 
  47038.2293     0.77877E-03 
  47070.4914     0.77730E-03 
  47102.7536     0.77583E-03 
  47135.0158     0.77434E-03 
  47167.2779     0.77284E-03 
  47199.5401     0.77133E-03 
  47231.8022     0.76980E-03 
  47264.0644     0.76826E-03 
  47296.3266     0.76671E-03 
  47328.5887     0.76515E-03 
  47360.8509     0.76358E-03 
  47393.1130     0.76199E-03 
  47425.3752     0.76039E-03 
  47457.6374     0.75878E-03 
  47489.8995     0.75716E-03 
  47522.1617     0.75553E-03 
  47554.4238     0.75389E-03 
  47586.6860     0.75223E-03 
  47618.9482     0.75056E-03 
  47651.2103     0.74888E-03 
  47683.4725     0.74719E-03 
  47715.7346     0.74549E-03 
  47747.9968     0.74378E-03 
  47780.2590     0.74206E-03 
  47812.5211     0.74033E-03 
  47844.7833     0.73858E-03 
  47877.0454     0.73683E-03 
  47909.3076     0.73507E-03 
  47941.5698     0.73329E-03 
  47973.8319     0.73151E-03 
  48006.0941     0.72971E-03 
  48038.3562     0.72791E-03 
  48070.6184     0.72609E-03 
  48102.8806     0.72427E-03 
  48135.1427     0.72243E-03 
  48167.4049     0.72059E-03 
  48199.6670     0.71873E-03 
  48231.9292     0.71687E-03 
  48264.1914     0.71500E-03 
  48296.4535     0.71312E-03 
  48328.7157     0.71122E-03 
  48360.9778     0.70932E-03 
  48393.2400     0.70742E-03 
  48425.5022     0.70550E-03 
  48457.7643     0.70357E-03 
  48490.0265     0.70164E-03 
  48522.2886     0.69969E-03 
  48554.5508     0.69774E-03 
  48586.8130     0.69578E-03 
  48619.0751     0.69381E-03 
  48651.3373     0.69184E-03 
  48683.5994     0.68985E-03 
  48715.8616     0.68786E-03 
  48748.1238     0.68586E-03 
  48780.3859     0.68385E-03 
  48812.6481     0.68184E-03 
  48844.9102     0.67982E-03 
  48877.1724     0.67779E-03 
  48909.4346     0.67575E-03 
  48941.6967     0.67370E-03 
  48973.9589     0.67165E-03 
  49006.2210     0.66959E-03 
  49038.4832     0.66753E-03 
  49070.7454     0.66546E-03 
  49103.0075     0.66338E-03 
  49135.2697     0.66129E-03 
  49167.5318     0.65920E-03 
  49199.7940     0.65710E-03 
  49232.0562     0.65500E-03 
  49264.3183     0.65289E-03 
  49296.5805     0.65077E-03 
  49328.8426     0.64865E-03 
  49361.1048     0.64652E-03 
  49393.3670     0.64439E-03 
  49425.6291     0.64225E-03 
  49457.8913     0.64010E-03 
  49490.1534     0.63795E-03 
  49522.4156     0.63579E-03 
  49554.6778     0.63363E-03 
  49586.9399     0.63146E-03 
  49619.2021     0.62929E-03 
  49651.4642     0.62712E-03 
  49683.7264     0.62494E-03 
  49715.9886     0.62275E-03 
  49748.2507     0.62056E-03 
  49780.5129     0.61836E-03 
  49812.7750     0.61616E-03 
  49845.0372     0.61396E-03 
  49877.2994     0.61175E-03 
  49909.5615     0.60954E-03 
  49941.8237     0.60732E-03 
  49974.0858     0.60510E-03 
  50006.3480     0.60287E-03 
  50038.6102     0.60065E-03 
  50070.8723     0.59841E-03 
  50103.1345     0.59618E-03 
  50135.3966     0.59394E-03 
  50167.6588     0.59170E-03 
  50199.9210     0.58945E-03 
  50232.1831     0.58720E-03 
  50264.4453     0.58495E-03 
  50296.7074     0.58269E-03 
  50328.9696     0.58044E-03 
  50361.2318     0.57817E-03 
  50393.4939     0.57591E-03 
  50425.7561     0.57364E-03 
  50458.0182     0.57138E-03 
  50490.2804     0.56910E-03 
  50522.5426     0.56683E-03 
  50554.8047     0.56455E-03 
  50587.0669     0.56228E-03 
  50619.3290     0.56000E-03 
  50651.5912     0.55771E-03 
  50683.8534     0.55543E-03 
  50716.1155     0.55314E-03 
  50748.3777     0.55085E-03 
  50780.6398     0.54857E-03 
  50812.9020     0.54627E-03 
  50845.1642     0.54398E-03 
  50877.4263     0.54169E-03 
  50909.6885     0.53939E-03 
  50941.9506     0.53710E-03 
  50974.2128     0.53480E-03 
  51006.4750     0.53250E-03 
  51038.7371     0.53020E-03 
  51070.9993     0.52790E-03 
  51103.2614     0.52560E-03 
  51135.5236     0.52330E-03 
  51167.7858     0.52099E-03 
  51200.0479     0.51869E-03 
  51232.3101     0.51639E-03 
  51264.5722     0.51408E-03 
  51296.8344     0.51178E-03 
  51329.0966     0.50947E-03 
  51361.3587     0.50717E-03 
  51393.6209     0.50486E-03 
  51425.8830     0.50256E-03 
  51458.1452     0.50026E-03 
  51490.4074     0.49795E-03 
  51522.6695     0.49565E-03 
  51554.9317     0.49334E-03 
  51587.1938     0.49104E-03 
  51619.4560     0.48874E-03 
  51651.7182     0.48643E-03 
  51683.9803     0.48413E-03 
  51716.2425     0.48183E-03 
  51748.5046     0.47953E-03 
  51780.7668     0.47723E-03 
  51813.0290     0.47494E-03 
  51845.2911     0.47264E-03 
  51877.5533     0.47034E-03 
  51909.8154     0.46805E-03 
  51942.0776     0.46575E-03 
  51974.3398     0.46346E-03 
  52006.6019     0.46117E-03 
  52038.8641     0.45888E-03 
  52071.1262     0.45659E-03 
  52103.3884     0.45431E-03 
  52135.6506     0.45202E-03 
  52167.9127     0.44974E-03 
  52200.1749     0.44746E-03 
  52232.4370     0.44518E-03 
  52264.6992     0.44290E-03 
  52296.9614     0.44063E-03 
  52329.2235     0.43835E-03 
  52361.4857     0.43608E-03 
  52393.7478     0.43381E-03 
  52426.0100     0.43155E-03 
  52458.2722     0.42928E-03 
  52490.5343     0.42702E-03 
  52522.7965     0.42476E-03 
  52555.0586     0.42251E-03 
  52587.3208     0.42025E-03 
  52619.5830     0.41800E-03 
  52651.8451     0.41575E-03 
  52684.1073     0.41351E-03 
  52716.3694     0.41126E-03 
  52748.6316     0.40902E-03 
  52780.8938     0.40679E-03 
  52813.1559     0.40455E-03 
  52845.4181     0.40232E-03 
  52877.6802     0.40009E-03 
  52909.9424     0.39787E-03 
  52942.2046     0.39565E-03 
  52974.4667     0.39343E-03 
  53006.7289     0.39121E-03 
  53038.9910     0.38900E-03 
  53071.2532     0.38680E-03 
  53103.5154     0.38459E-03 
  53135.7775     0.38239E-03 
  53168.0397     0.38019E-03 
  53200.3018     0.37800E-03 
  53232.5640     0.37581E-03 
  53264.8262     0.37362E-03 
  53297.0883     0.37144E-03 
  53329.3505     0.36926E-03 
  53361.6126     0.36709E-03 
  53393.8748     0.36492E-03 
  53426.1370     0.36275E-03 
  53458.3991     0.36059E-03 
  53490.6613     0.35843E-03 
  53522.9234     0.35628E-03 
  53555.1856     0.35413E-03 
  53587.4478     0.35199E-03 
  53619.7099     0.34985E-03 
  53651.9721     0.34771E-03 
  53684.2342     0.34558E-03 
  53716.4964     0.34345E-03 
  53748.7586     0.34133E-03 
  53781.0207     0.33921E-03 
  53813.2829     0.33709E-03 
  53845.5450     0.33498E-03 
  53877.8072     0.33288E-03 
  53910.0694     0.33078E-03 
  53942.3315     0.32869E-03 
  53974.5937     0.32660E-03 
  54006.8558     0.32451E-03 
  54039.1180     0.32243E-03 
  54071.3802     0.32035E-03 
  54103.6423     0.31828E-03 
  54135.9045     0.31622E-03 
  54168.1666     0.31416E-03 
  54200.4288     0.31210E-03 
  54232.6910     0.31005E-03 
  54264.9531     0.30801E-03 
  54297.2153     0.30597E-03 
  54329.4774     0.30393E-03 
  54361.7396     0.30190E-03 
  54394.0018     0.29988E-03 
  54426.2639     0.29786E-03 
  54458.5261     0.29585E-03 
  54490.7882     0.29384E-03 
  54523.0504     0.29184E-03 
  54555.3126     0.28984E-03 
  54587.5747     0.28785E-03 
  54619.8369     0.28586E-03 
  54652.0990     0.28388E-03 
  54684.3612     0.28191E-03 
  54716.6234     0.27994E-03 
  54748.8855     0.27797E-03 
  54781.1477     0.27601E-03 
  54813.4098     0.27406E-03 
  54845.6720     0.27212E-03 
  54877.9342     0.27018E-03 
  54910.1963     0.26824E-03 
  54942.4585     0.26631E-03 
  54974.7206     0.26439E-03 
  55006.9828     0.26247E-03 
  55039.2450     0.26056E-03 
  55071.5071     0.25865E-03 
  55103.7693     0.25675E-03 
  55136.0314     0.25486E-03 
  55168.2936     0.25297E-03 
  55200.5558     0.25109E-03 
  55232.8179     0.24922E-03 
  55265.0801     0.24735E-03 
  55297.3422     0.24548E-03 
  55329.6044     0.24363E-03 
  55361.8666     0.24178E-03 
  55394.1287     0.23993E-03 
  55426.3909     0.23809E-03 
  55458.6530     0.23626E-03 
  55490.9152     0.23443E-03 
  55523.1774     0.23261E-03 
  55555.4395     0.23080E-03 
  55587.7017     0.22899E-03 
  55619.9638     0.22719E-03 
  55652.2260     0.22540E-03 
  55684.4882     0.22361E-03 
  55716.7503     0.22183E-03 
  55749.0125     0.22005E-03 
  55781.2746     0.21828E-03 
  55813.5368     0.21652E-03 
  55845.7990     0.21477E-03 
  55878.0611     0.21302E-03 
  55910.3233     0.21127E-03 
  55942.5854     0.20954E-03 
  55974.8476     0.20781E-03 
  56007.1098     0.20608E-03 
  56039.3719     0.20437E-03 
  56071.6341     0.20266E-03 
  56103.8962     0.20095E-03 
  56136.1584     0.19926E-03 
  56168.4206     0.19757E-03 
  56200.6827     0.19588E-03 
  56232.9449     0.19420E-03 
  56265.2070     0.19253E-03 
  56297.4692     0.19087E-03 
  56329.7314     0.18921E-03 
  56361.9935     0.18756E-03 
  56394.2557     0.18592E-03 
  56426.5178     0.18428E-03 
  56458.7800     0.18265E-03 
  56491.0422     0.18103E-03 
  56523.3043     0.17941E-03 
  56555.5665     0.17780E-03 
  56587.8286     0.17620E-03 
  56620.0908     0.17460E-03 
  56652.3530     0.17302E-03 
  56684.6151     0.17143E-03 
  56716.8773     0.16986E-03 
  56749.1394     0.16829E-03 
  56781.4016     0.16673E-03 
  56813.6638     0.16517E-03 
  56845.9259     0.16363E-03 
  56878.1881     0.16208E-03 
  56910.4502     0.16055E-03 
  56942.7124     0.15902E-03 
  56974.9746     0.15750E-03 
  57007.2367     0.15599E-03 
  57039.4989     0.15449E-03 
  57071.7610     0.15299E-03 
  57104.0232     0.15149E-03 
  57136.2854     0.15001E-03 
  57168.5475     0.14853E-03 
  57200.8097     0.14706E-03 
  57233.0718     0.14560E-03 
  57265.3340     0.14414E-03 
  57297.5962     0.14269E-03 
  57329.8583     0.14125E-03 
  57362.1205     0.13981E-03 
  57394.3826     0.13839E-03 
  57426.6448     0.13696E-03 
  57458.9070     0.13555E-03 
  57491.1691     0.13414E-03 
  57523.4313     0.13274E-03 
  57555.6934     0.13135E-03 
  57587.9556     0.12997E-03 
  57620.2178     0.12859E-03 
  57652.4799     0.12722E-03 
  57684.7421     0.12586E-03 
  57717.0042     0.12450E-03 
  57749.2664     0.12315E-03 
  57781.5286     0.12181E-03 
  57813.7907     0.12047E-03 
  57846.0529     0.11915E-03 
  57878.3150     0.11783E-03 
  57910.5772     0.11652E-03 
  57942.8394     0.11521E-03 
  57975.1015     0.11391E-03 
  58007.3637     0.11262E-03 
  58039.6258     0.11134E-03 
  58071.8880     0.11007E-03 
  58104.1502     0.10880E-03 
  58136.4123     0.10754E-03 
  58168.6745     0.10628E-03 
  58200.9366     0.10504E-03 
  58233.1988     0.10380E-03 
  58265.4610     0.10257E-03 
  58297.7231     0.10135E-03 
  58329.9853     0.10013E-03 
  58362.2474     0.98922E-04 
  58394.5096     0.97721E-04 
  58426.7718     0.96529E-04 
  58459.0339     0.95343E-04 
  58491.2961     0.94165E-04 
  58523.5582     0.92995E-04 
  58555.8204     0.91833E-04 
  58588.0826     0.90678E-04 
  58620.3447     0.89531E-04 
  58652.6069     0.88392E-04 
  58684.8690     0.87260E-04 
  58717.1312     0.86136E-04 
  58749.3934     0.85020E-04 
  58781.6555     0.83912E-04 
  58813.9177     0.82811E-04 
  58846.1798     0.81719E-04 
  58878.4420     0.80634E-04 
  58910.7042     0.79557E-04 
  58942.9663     0.78488E-04 
  58975.2285     0.77427E-04 
  59007.4906     0.76374E-04 
  59039.7528     0.75329E-04 
  59072.0150     0.74292E-04 
  59104.2771     0.73263E-04 
  59136.5393     0.72242E-04 
  59168.8014     0.71229E-04 
  59201.0636     0.70224E-04 
  59233.3258     0.69227E-04 
  59265.5879     0.68239E-04 
  59297.8501     0.67259E-04 
  59330.1122     0.66287E-04 
  59362.3744     0.65323E-04 
  59394.6366     0.64367E-04 
  59426.8987     0.63420E-04 
  59459.1609     0.62482E-04 
  59491.4230     0.61551E-04 
  59523.6852     0.60630E-04 
  59555.9474     0.59716E-04 
  59588.2095     0.58811E-04 
  59620.4717     0.57915E-04 
  59652.7338     0.57027E-04 
  59684.9960     0.56148E-04 
  59717.2582     0.55278E-04 
  59749.5203     0.54416E-04 
  59781.7825     0.53563E-04 
  59814.0446     0.52719E-04 
  59846.3068     0.51884E-04 
  59878.5690     0.51057E-04 
  59910.8311     0.50240E-04 
  59943.0933     0.49431E-04 
  59975.3554     0.48631E-04 
  60007.6176     0.47841E-04 
  60039.8798     0.47060E-04 
  60072.1419     0.46287E-04 
  60104.4041     0.45524E-04 
  60136.6662     0.44771E-04 
  60168.9284     0.44026E-04 
  60201.1906     0.43291E-04 
  60233.4527     0.42565E-04 
  60265.7149     0.41849E-04 
  60297.9770     0.41143E-04 
  60330.2392     0.40446E-04 
  60362.5014     0.39758E-04 
  60394.7635     0.39081E-04 
  60427.0257     0.38413E-04 
  60459.2878     0.37755E-04 
  60491.5500     0.37107E-04 
  60523.8122     0.36468E-04 
  60556.0743     0.35840E-04 
  60588.3365     0.35222E-04 
  60620.5986     0.34614E-04 
  60652.8608     0.34017E-04 
  60685.1230     0.33430E-04 
  60717.3851     0.32853E-04 
  60749.6473     0.32286E-04 
  60781.9094     0.31730E-04 
  60814.1716     0.31185E-04 
  60846.4338     0.30650E-04 
  60878.6959     0.30126E-04 
  60910.9581     0.29613E-04 
  60943.2202     0.29111E-04 
  60975.4824     0.28620E-04 
  61007.7446     0.28140E-04 
  61040.0067     0.27671E-04 
  61072.2689     0.27214E-04 
  61104.5310     0.26768E-04 
  61136.7932     0.26333E-04 
  61169.0554     0.25910E-04 
  61201.3175     0.25498E-04 
  61233.5797     0.25098E-04 
  61265.8418     0.24710E-04 
  61298.1040     0.24334E-04 
  61330.3662     0.23970E-04 
  61362.6283     0.23618E-04 
  61394.8905     0.23279E-04 
  61427.1526     0.22952E-04 
  61459.4148     0.22637E-04 
  61491.6770     0.22334E-04 
  61523.9391     0.22045E-04 
  61556.2013     0.21768E-04 
  61588.4634     0.21504E-04 
  61620.7256     0.21253E-04 
  61652.9878     0.21015E-04 
  61685.2499     0.20791E-04 
  61717.5121     0.20580E-04 
  61749.7742     0.20382E-04 
  61782.0364     0.20198E-04 
  61814.2986     0.20028E-04 
  61846.5607     0.19872E-04 
  61878.8229     0.19729E-04 
  61911.0850     0.19601E-04 
  61943.3472     0.19487E-04 
  61975.6094     0.19388E-04 
  62007.8715     0.19303E-04 
  62040.1337     0.19233E-04 
  62072.3958     0.19177E-04 
  62104.6580     0.19137E-04 
  62136.9202     0.19112E-04 
  62169.1823     0.19102E-04 
  62201.4445     0.19107E-04 
  62233.7066     0.19129E-04 
  62265.9688     0.19166E-04 
  62298.2310     0.19218E-04 
  62330.4931     0.19287E-04 
  62362.7553     0.19373E-04 
  62395.0174     0.19474E-04 
  62427.2796     0.19592E-04 
  62459.5418     0.19727E-04 
  62491.8039     0.19879E-04 
  62524.0661     0.20048E-04 
  62556.3282     0.20234E-04 
  62588.5904     0.20438E-04 
  62620.8526     0.20659E-04 
  62653.1147     0.20899E-04 
  62685.3769     0.21156E-04 
  62717.6390     0.21431E-04 
  62749.9012     0.21725E-04 
  62782.1634     0.22038E-04 
  62814.4255     0.22369E-04 
  62846.6877     0.22719E-04 
  62878.9498     0.23089E-04 
  62911.2120     0.23478E-04 
  62943.4742     0.23886E-04 
  62975.7363     0.24314E-04 
  63007.9985     0.24763E-04 
  63040.2606     0.25231E-04 
  63072.5228     0.25721E-04 
  63104.7850     0.26230E-04 
  63137.0471     0.26761E-04 
  63169.3093     0.27313E-04 
  63201.5714     0.27886E-04 
  63233.8336     0.28481E-04 
  63266.0958     0.29098E-04 
  63298.3579     0.29737E-04 
  63330.6201     0.30398E-04 
  63362.8822     0.31082E-04 
  63395.1444     0.31789E-04 
  63427.4066     0.32519E-04 
  63459.6687     0.33272E-04 
  63491.9309     0.34049E-04 
  63524.1930     0.34849E-04 
  63556.4552     0.35674E-04 
  63588.7174     0.36523E-04 
  63620.9795     0.37397E-04 
  63653.2417     0.38295E-04 
  63685.5038     0.39219E-04 
  63717.7660     0.40169E-04 
  63750.0282     0.41144E-04 
  63782.2903     0.42145E-04 
  63814.5525     0.43172E-04 
  63846.8146     0.44227E-04 
  63879.0768     0.45308E-04 
  63911.3390     0.46416E-04 
  63943.6011     0.47552E-04 
  63975.8633     0.48715E-04 
  64008.1254     0.49907E-04 
  64040.3876     0.51127E-04 
  64072.6498     0.52376E-04 
  64104.9119     0.53654E-04 
  64137.1741     0.54962E-04 
  64169.4362     0.56299E-04 
  64201.6984     0.57666E-04 
  64233.9606     0.59064E-04 
  64266.2227     0.60492E-04 
  64298.4849     0.61951E-04 
  64330.7470     0.63442E-04 
  64363.0092     0.64964E-04 
  64395.2714     0.66519E-04 
  64427.5335     0.68105E-04 
  64459.7957     0.69725E-04 
  64492.0578     0.71378E-04 
  64524.3200     0.73064E-04 
  64556.5822     0.74784E-04 
  64588.8443     0.76539E-04 
  64621.1065     0.78327E-04 
  64653.3686     0.80151E-04 
  64685.6308     0.82011E-04 
  64717.8930     0.83905E-04 
  64750.1551     0.85837E-04 
  64782.4173     0.87804E-04 
  64814.6794     0.89808E-04 
  64846.9416     0.91850E-04 
  64879.2038     0.93930E-04 
  64911.4659     0.96047E-04 
  64943.7281     0.98203E-04 
  64975.9902     0.10040E-03 
  65008.2524     0.10263E-03 
  65040.5146     0.10491E-03 
  65072.7767     0.10722E-03 
  65105.0389     0.10957E-03 
  65137.3010     0.11197E-03 
  65169.5632     0.11441E-03 
  65201.8254     0.11689E-03 
  65234.0875     0.11941E-03 
  65266.3497     0.12197E-03 
  65298.6118     0.12458E-03 
  65330.8740     0.12723E-03 
  65363.1362     0.12992E-03 
  65395.3983     0.13266E-03 
  65427.6605     0.13545E-03 
  65459.9226     0.13828E-03 
  65492.1848     0.14115E-03 
  65524.4470     0.14407E-03 
  65556.7091     0.14704E-03 
  65588.9713     0.15006E-03 
  65621.2334     0.15312E-03 
  65653.4956     0.15623E-03 
  65685.7578     0.15940E-03 
  65718.0199     0.16261E-03 
  65750.2821     0.16587E-03 
  65782.5442     0.16918E-03 
  65814.8064     0.17254E-03 
  65847.0686     0.17595E-03 
  65879.3307     0.17941E-03 
  65911.5929     0.18293E-03 
  65943.8550     0.18650E-03 
  65976.1172     0.19012E-03 
  66008.3794     0.19380E-03 
  66040.6415     0.19753E-03 
  66072.9037     0.20131E-03 
  66105.1658     0.20515E-03 
  66137.4280     0.20905E-03 
  66169.6902     0.21300E-03 
  66201.9523     0.21701E-03 
  66234.2145     0.22108E-03 
  66266.4766     0.22520E-03 
  66298.7388     0.22939E-03 
  66331.0010     0.23363E-03 
  66363.2631     0.23793E-03 
  66395.5253     0.24230E-03 
  66427.7874     0.24672E-03 
  66460.0496     0.25121E-03 
  66492.3118     0.25575E-03 
  66524.5739     0.26036E-03 
  66556.8361     0.26504E-03 
  66589.0982     0.26977E-03 
  66621.3604     0.27458E-03 
  66653.6226     0.27944E-03 
  66685.8847     0.28437E-03 
  66718.1469     0.28937E-03 
  66750.4090     0.29443E-03 
  66782.6712     0.29957E-03 
  66814.9334     0.30476E-03 
  66847.1955     0.31003E-03 
  66879.4577     0.31537E-03 
  66911.7198     0.32077E-03 
  66943.9820     0.32625E-03 
  66976.2442     0.33180E-03 
  67008.5063     0.33742E-03 
  67040.7685     0.34311E-03 
  67073.0306     0.34887E-03 
  67105.2928     0.35471E-03 
  67137.5550     0.36062E-03 
  67169.8171     0.36660E-03 
  67202.0793     0.37266E-03 
  67234.3414     0.37880E-03 
  67266.6036     0.38501E-03 
  67298.8658     0.39130E-03 
  67331.1279     0.39766E-03 
  67363.3901     0.40411E-03 
  67395.6522     0.41063E-03 
  67427.9144     0.41723E-03 
  67460.1766     0.42392E-03 
  67492.4387     0.43068E-03 
  67524.7009     0.43753E-03 
  67556.9630     0.44446E-03 
  67589.2252     0.45147E-03 
  67621.4874     0.45856E-03 
  67653.7495     0.46574E-03 
  67686.0117     0.47300E-03 
  67718.2738     0.48035E-03 
  67750.5360     0.48778E-03 
  67782.7982     0.49531E-03 
  67815.0603     0.50291E-03 
  67847.3225     0.51061E-03 
  67879.5846     0.51839E-03 
  67911.8468     0.52627E-03 
  67944.1090     0.53423E-03 
  67976.3711     0.54229E-03 
  68008.6333     0.55043E-03 
  68040.8954     0.55867E-03 
  68073.1576     0.56700E-03 
  68105.4198     0.57543E-03 
  68137.6819     0.58394E-03 
  68169.9441     0.59256E-03 
  68202.2062     0.60126E-03 
  68234.4684     0.61007E-03 
  68266.7306     0.61897E-03 
  68298.9927     0.62796E-03 
  68331.2549     0.63706E-03 
  68363.5170     0.64625E-03 
  68395.7792     0.65555E-03 
  68428.0414     0.66494E-03 
  68460.3035     0.67443E-03 
  68492.5657     0.68403E-03 
  68524.8278     0.69373E-03 
  68557.0900     0.70353E-03 
  68589.3522     0.71343E-03 
  68621.6143     0.72344E-03 
  68653.8765     0.73355E-03 
  68686.1386     0.74376E-03 
  68718.4008     0.75409E-03 
  68750.6630     0.76452E-03 
  68782.9251     0.77505E-03 
  68815.1873     0.78570E-03 
  68847.4494     0.79645E-03 
  68879.7116     0.80731E-03 
  68911.9738     0.81828E-03 
  68944.2359     0.82937E-03 
  68976.4981     0.84056E-03 
  69008.7602     0.85186E-03 
  69041.0224     0.86328E-03 
  69073.2846     0.87481E-03 
  69105.5467     0.88646E-03 
  69137.8089     0.89822E-03 
  69170.0710     0.91009E-03 
  69202.3332     0.92208E-03 
  69234.5954     0.93419E-03 
  69266.8575     0.94641E-03 
  69299.1197     0.95875E-03 
  69331.3818     0.97121E-03 
  69363.6440     0.98379E-03 
  69395.9062     0.99649E-03 
  69428.1683     0.10093E-02 
  69460.4305     0.10222E-02 
  69492.6926     0.10353E-02 
  69524.9548     0.10485E-02 
  69557.2170     0.10618E-02 
  69589.4791     0.10752E-02 
  69621.7413     0.10888E-02 
  69654.0034     0.11024E-02 
  69686.2656     0.11162E-02 
  69718.5278     0.11302E-02 
  69750.7899     0.11442E-02 
  69783.0521     0.11584E-02 
  69815.3142     0.11727E-02 
  69847.5764     0.11871E-02 
  69879.8386     0.12017E-02 
  69912.1007     0.12164E-02 
  69944.3629     0.12312E-02 
  69976.6250     0.12462E-02 
  70008.8872     0.12612E-02 
  70041.1494     0.12765E-02 
  70073.4115     0.12918E-02 
  70105.6737     0.13073E-02 
  70137.9358     0.13229E-02 
  70170.1980     0.13386E-02 
  70202.4602     0.13545E-02 
  70234.7223     0.13705E-02 
  70266.9845     0.13867E-02 
  70299.2466     0.14029E-02 
  70331.5088     0.14194E-02 
  70363.7710     0.14359E-02 
  70396.0331     0.14526E-02 
  70428.2953     0.14694E-02 
  70460.5574     0.14864E-02 
  70492.8196     0.15035E-02 
  70525.0818     0.15207E-02 
  70557.3439     0.15381E-02 
  70589.6061     0.15556E-02 
  70621.8682     0.15733E-02 
  70654.1304     0.15911E-02 
  70686.3926     0.16090E-02 
  70718.6547     0.16271E-02 
  70750.9169     0.16454E-02 
  70783.1790     0.16637E-02 
  70815.4412     0.16822E-02 
  70847.7034     0.17009E-02 
  70879.9655     0.17197E-02 
  70912.2277     0.17386E-02 
  70944.4898     0.17577E-02 
  70976.7520     0.17769E-02 
  71009.0142     0.17963E-02 
  71041.2763     0.18158E-02 
  71073.5385     0.18355E-02 
  71105.8006     0.18553E-02 
  71138.0628     0.18753E-02 
  71170.3250     0.18954E-02 
  71202.5871     0.19156E-02 
  71234.8493     0.19360E-02 
  71267.1114     0.19566E-02 
  71299.3736     0.19772E-02 
  71331.6358     0.19981E-02 
  71363.8979     0.20191E-02 
  71396.1601     0.20402E-02 
  71428.4222     0.20615E-02 
  71460.6844     0.20829E-02 
  71492.9466     0.21045E-02 
  71525.2087     0.21262E-02 
  71557.4709     0.21481E-02 
  71589.7330     0.21702E-02 
  71621.9952     0.21923E-02 
  71654.2574     0.22147E-02 
  71686.5195     0.22372E-02 
  71718.7817     0.22598E-02 
  71751.0438     0.22826E-02 
  71783.3060     0.23055E-02 
  71815.5682     0.23286E-02 
  71847.8303     0.23518E-02 
  71880.0925     0.23752E-02 
  71912.3546     0.23987E-02 
  71944.6168     0.24224E-02 
  71976.8790     0.24463E-02 
  72009.1411     0.24702E-02 
  72041.4033     0.24944E-02 
  72073.6654     0.25187E-02 
  72105.9276     0.25431E-02 
  72138.1898     0.25677E-02 
  72170.4519     0.25925E-02 
  72202.7141     0.26173E-02 
  72234.9762     0.26424E-02 
  72267.2384     0.26676E-02 
  72299.5006     0.26929E-02 
  72331.7627     0.27184E-02 
  72364.0249     0.27441E-02 
  72396.2870     0.27699E-02 
  72428.5492     0.27958E-02 
  72460.8114     0.28219E-02 
  72493.0735     0.28482E-02 
  72525.3357     0.28746E-02 
  72557.5978     0.29012E-02 
  72589.8600     0.29279E-02 
