  32262.1600     0.46031E-05 
  32294.4222     0.46217E-05 
  32326.6843     0.46404E-05 
  32358.9465     0.46591E-05 
  32391.2086     0.46778E-05 
  32423.4708     0.46966E-05 
  32455.7330     0.47155E-05 
  32487.9951     0.47344E-05 
  32520.2573     0.47534E-05 
  32552.5194     0.47725E-05 
  32584.7816     0.47916E-05 
  32617.0438     0.48107E-05 
  32649.3059     0.48299E-05 
  32681.5681     0.48492E-05 
  32713.8302     0.48686E-05 
  32746.0924     0.48879E-05 
  32778.3546     0.49074E-05 
  32810.6167     0.49269E-05 
  32842.8789     0.49465E-05 
  32875.1410     0.49661E-05 
  32907.4032     0.49857E-05 
  32939.6654     0.50055E-05 
  32971.9275     0.50253E-05 
  33004.1897     0.50451E-05 
  33036.4518     0.50650E-05 
  33068.7140     0.50850E-05 
  33100.9762     0.51051E-05 
  33133.2383     0.51251E-05 
  33165.5005     0.51453E-05 
  33197.7626     0.51655E-05 
  33230.0248     0.51858E-05 
  33262.2870     0.52061E-05 
  33294.5491     0.52265E-05 
  33326.8113     0.52469E-05 
  33359.0734     0.52674E-05 
  33391.3356     0.52880E-05 
  33423.5978     0.53086E-05 
  33455.8599     0.53293E-05 
  33488.1221     0.53501E-05 
  33520.3842     0.53709E-05 
  33552.6464     0.53917E-05 
  33584.9086     0.54127E-05 
  33617.1707     0.54337E-05 
  33649.4329     0.54547E-05 
  33681.6950     0.54758E-05 
  33713.9572     0.54970E-05 
  33746.2194     0.55182E-05 
  33778.4815     0.55395E-05 
  33810.7437     0.55609E-05 
  33843.0058     0.55823E-05 
  33875.2680     0.56038E-05 
  33907.5302     0.56253E-05 
  33939.7923     0.56469E-05 
  33972.0545     0.56686E-05 
  34004.3166     0.56903E-05 
  34036.5788     0.57121E-05 
  34068.8410     0.57340E-05 
  34101.1031     0.57559E-05 
  34133.3653     0.57779E-05 
  34165.6274     0.57999E-05 
  34197.8896     0.58220E-05 
  34230.1518     0.58442E-05 
  34262.4139     0.58664E-05 
  34294.6761     0.58887E-05 
  34326.9382     0.59111E-05 
  34359.2004     0.59335E-05 
  34391.4626     0.59560E-05 
  34423.7247     0.59786E-05 
  34455.9869     0.60012E-05 
  34488.2490     0.60238E-05 
  34520.5112     0.60466E-05 
  34552.7734     0.60694E-05 
  34585.0355     0.60923E-05 
  34617.2977     0.61152E-05 
  34649.5598     0.61382E-05 
  34681.8220     0.61613E-05 
  34714.0842     0.61844E-05 
  34746.3463     0.62076E-05 
  34778.6085     0.62309E-05 
  34810.8706     0.62542E-05 
  34843.1328     0.62776E-05 
  34875.3950     0.63010E-05 
  34907.6571     0.63246E-05 
  34939.9193     0.63482E-05 
  34972.1814     0.63718E-05 
  35004.4436     0.63955E-05 
  35036.7058     0.64193E-05 
  35068.9679     0.64432E-05 
  35101.2301     0.64671E-05 
  35133.4922     0.64911E-05 
  35165.7544     0.65151E-05 
  35198.0166     0.65393E-05 
  35230.2787     0.65634E-05 
  35262.5409     0.65877E-05 
  35294.8030     0.66120E-05 
  35327.0652     0.66364E-05 
  35359.3274     0.66609E-05 
  35391.5895     0.66854E-05 
  35423.8517     0.67100E-05 
  35456.1138     0.67346E-05 
  35488.3760     0.67594E-05 
  35520.6382     0.67842E-05 
  35552.9003     0.68090E-05 
  35585.1625     0.68339E-05 
  35617.4246     0.68589E-05 
  35649.6868     0.68840E-05 
  35681.9490     0.69092E-05 
  35714.2111     0.69344E-05 
  35746.4733     0.69596E-05 
  35778.7354     0.69850E-05 
  35810.9976     0.70104E-05 
  35843.2598     0.70359E-05 
  35875.5219     0.70614E-05 
  35907.7841     0.70870E-05 
  35940.0462     0.71127E-05 
  35972.3084     0.71385E-05 
  36004.5706     0.71643E-05 
  36036.8327     0.71902E-05 
  36069.0949     0.72162E-05 
  36101.3570     0.72422E-05 
  36133.6192     0.72683E-05 
  36165.8814     0.72945E-05 
  36198.1435     0.73208E-05 
  36230.4057     0.73471E-05 
  36262.6678     0.73735E-05 
  36294.9300     0.74000E-05 
  36327.1922     0.74265E-05 
  36359.4543     0.74531E-05 
  36391.7165     0.74798E-05 
  36423.9786     0.75065E-05 
  36456.2408     0.75334E-05 
  36488.5030     0.75603E-05 
  36520.7651     0.75872E-05 
  36553.0273     0.76143E-05 
  36585.2894     0.76414E-05 
  36617.5516     0.76686E-05 
  36649.8138     0.76958E-05 
  36682.0759     0.77231E-05 
  36714.3381     0.77505E-05 
  36746.6002     0.77780E-05 
  36778.8624     0.78056E-05 
  36811.1246     0.78332E-05 
  36843.3867     0.78609E-05 
  36875.6489     0.78886E-05 
  36907.9110     0.79165E-05 
  36940.1732     0.79444E-05 
  36972.4354     0.79724E-05 
  37004.6975     0.80004E-05 
  37036.9597     0.80286E-05 
  37069.2218     0.80568E-05 
  37101.4840     0.80851E-05 
  37133.7462     0.81134E-05 
  37166.0083     0.81418E-05 
  37198.2705     0.81704E-05 
  37230.5326     0.81989E-05 
  37262.7948     0.82276E-05 
  37295.0570     0.82563E-05 
  37327.3191     0.82851E-05 
  37359.5813     0.83140E-05 
  37391.8434     0.83430E-05 
  37424.1056     0.83720E-05 
  37456.3678     0.84011E-05 
  37488.6299     0.84303E-05 
  37520.8921     0.84596E-05 
  37553.1542     0.84889E-05 
  37585.4164     0.85183E-05 
  37617.6786     0.85478E-05 
  37649.9407     0.85774E-05 
  37682.2029     0.86070E-05 
  37714.4650     0.86367E-05 
  37746.7272     0.86665E-05 
  37778.9894     0.86964E-05 
  37811.2515     0.87263E-05 
  37843.5137     0.87564E-05 
  37875.7758     0.87865E-05 
  37908.0380     0.88167E-05 
  37940.3002     0.88469E-05 
  37972.5623     0.88773E-05 
  38004.8245     0.89077E-05 
  38037.0866     0.89382E-05 
  38069.3488     0.89687E-05 
  38101.6110     0.89994E-05 
  38133.8731     0.90301E-05 
  38166.1353     0.90609E-05 
  38198.3974     0.90918E-05 
  38230.6596     0.91228E-05 
  38262.9218     0.91538E-05 
  38295.1839     0.91849E-05 
  38327.4461     0.92161E-05 
  38359.7082     0.92474E-05 
  38391.9704     0.92788E-05 
  38424.2326     0.93102E-05 
  38456.4947     0.93418E-05 
  38488.7569     0.93734E-05 
  38521.0190     0.94050E-05 
  38553.2812     0.94368E-05 
  38585.5434     0.94686E-05 
  38617.8055     0.95006E-05 
  38650.0677     0.95326E-05 
  38682.3298     0.95647E-05 
  38714.5920     0.95968E-05 
  38746.8542     0.96291E-05 
  38779.1163     0.96614E-05 
  38811.3785     0.96938E-05 
  38843.6406     0.97263E-05 
  38875.9028     0.97589E-05 
  38908.1650     0.97915E-05 
  38940.4271     0.98242E-05 
  38972.6893     0.98571E-05 
  39004.9514     0.98900E-05 
  39037.2136     0.99229E-05 
  39069.4758     0.99560E-05 
  39101.7379     0.99892E-05 
  39134.0001     0.10022E-04 
  39166.2622     0.10056E-04 
  39198.5244     0.10089E-04 
  39230.7866     0.10123E-04 
  39263.0487     0.10156E-04 
  39295.3109     0.10190E-04 
  39327.5730     0.10224E-04 
  39359.8352     0.10257E-04 
  39392.0974     0.10291E-04 
  39424.3595     0.10325E-04 
  39456.6217     0.10359E-04 
  39488.8838     0.10393E-04 
  39521.1460     0.10428E-04 
  39553.4082     0.10462E-04 
  39585.6703     0.10496E-04 
  39617.9325     0.10531E-04 
  39650.1946     0.10565E-04 
  39682.4568     0.10600E-04 
  39714.7190     0.10635E-04 
  39746.9811     0.10670E-04 
  39779.2433     0.10705E-04 
  39811.5054     0.10740E-04 
  39843.7676     0.10775E-04 
  39876.0298     0.10810E-04 
  39908.2919     0.10845E-04 
  39940.5541     0.10880E-04 
  39972.8162     0.10916E-04 
  40005.0784     0.10951E-04 
  40037.3406     0.10987E-04 
  40069.6027     0.11023E-04 
  40101.8649     0.11058E-04 
  40134.1270     0.11094E-04 
  40166.3892     0.11130E-04 
  40198.6514     0.11166E-04 
  40230.9135     0.11202E-04 
  40263.1757     0.11239E-04 
  40295.4378     0.11275E-04 
  40327.7000     0.11311E-04 
  40359.9622     0.11348E-04 
  40392.2243     0.11384E-04 
  40424.4865     0.11421E-04 
  40456.7486     0.11458E-04 
  40489.0108     0.11495E-04 
  40521.2730     0.11531E-04 
  40553.5351     0.11568E-04 
  40585.7973     0.11606E-04 
  40618.0594     0.11643E-04 
  40650.3216     0.11680E-04 
  40682.5838     0.11717E-04 
  40714.8459     0.11755E-04 
  40747.1081     0.11792E-04 
  40779.3702     0.11830E-04 
  40811.6324     0.11868E-04 
  40843.8946     0.11906E-04 
  40876.1567     0.11943E-04 
  40908.4189     0.11981E-04 
  40940.6810     0.12020E-04 
  40972.9432     0.12058E-04 
  41005.2054     0.12096E-04 
  41037.4675     0.12134E-04 
  41069.7297     0.12173E-04 
  41101.9918     0.12211E-04 
  41134.2540     0.12250E-04 
  41166.5162     0.12289E-04 
  41198.7783     0.12327E-04 
  41231.0405     0.12366E-04 
  41263.3026     0.12405E-04 
  41295.5648     0.12444E-04 
  41327.8270     0.12484E-04 
  41360.0891     0.12523E-04 
  41392.3513     0.12562E-04 
  41424.6134     0.12602E-04 
  41456.8756     0.12641E-04 
  41489.1378     0.12681E-04 
  41521.3999     0.12721E-04 
  41553.6621     0.12760E-04 
  41585.9242     0.12800E-04 
  41618.1864     0.12840E-04 
  41650.4486     0.12881E-04 
  41682.7107     0.12921E-04 
  41714.9729     0.12961E-04 
  41747.2350     0.13001E-04 
  41779.4972     0.13042E-04 
  41811.7594     0.13083E-04 
  41844.0215     0.13123E-04 
  41876.2837     0.13164E-04 
  41908.5458     0.13205E-04 
  41940.8080     0.13246E-04 
  41973.0702     0.13287E-04 
  42005.3323     0.13328E-04 
  42037.5945     0.13369E-04 
  42069.8566     0.13411E-04 
  42102.1188     0.13452E-04 
  42134.3810     0.13494E-04 
  42166.6431     0.13535E-04 
  42198.9053     0.13577E-04 
  42231.1674     0.13619E-04 
  42263.4296     0.13661E-04 
  42295.6918     0.13703E-04 
  42327.9539     0.13745E-04 
  42360.2161     0.13787E-04 
  42392.4782     0.13829E-04 
  42424.7404     0.13872E-04 
  42457.0026     0.13914E-04 
  42489.2647     0.13957E-04 
  42521.5269     0.14000E-04 
  42553.7890     0.14042E-04 
  42586.0512     0.14085E-04 
  42618.3134     0.14128E-04 
  42650.5755     0.14171E-04 
  42682.8377     0.14215E-04 
  42715.0998     0.14258E-04 
  42747.3620     0.14301E-04 
  42779.6242     0.14345E-04 
  42811.8863     0.14388E-04 
  42844.1485     0.14432E-04 
  42876.4106     0.14476E-04 
  42908.6728     0.14520E-04 
  42940.9350     0.14564E-04 
  42973.1971     0.14608E-04 
  43005.4593     0.14652E-04 
  43037.7214     0.14696E-04 
  43069.9836     0.14741E-04 
  43102.2458     0.14785E-04 
  43134.5079     0.14830E-04 
  43166.7701     0.14874E-04 
  43199.0322     0.14919E-04 
  43231.2944     0.14964E-04 
  43263.5566     0.15009E-04 
  43295.8187     0.15054E-04 
  43328.0809     0.15099E-04 
  43360.3430     0.15145E-04 
  43392.6052     0.15190E-04 
  43424.8674     0.15235E-04 
  43457.1295     0.15281E-04 
  43489.3917     0.15327E-04 
  43521.6538     0.15373E-04 
  43553.9160     0.15418E-04 
  43586.1782     0.15464E-04 
  43618.4403     0.15511E-04 
  43650.7025     0.15557E-04 
  43682.9646     0.15603E-04 
  43715.2268     0.15650E-04 
  43747.4890     0.15696E-04 
  43779.7511     0.15743E-04 
  43812.0133     0.15789E-04 
  43844.2754     0.15836E-04 
  43876.5376     0.15883E-04 
  43908.7998     0.15930E-04 
  43941.0619     0.15977E-04 
  43973.3241     0.16025E-04 
  44005.5862     0.16072E-04 
  44037.8484     0.16119E-04 
  44070.1106     0.16167E-04 
  44102.3727     0.16215E-04 
  44134.6349     0.16262E-04 
  44166.8970     0.16310E-04 
  44199.1592     0.16358E-04 
  44231.4214     0.16406E-04 
  44263.6835     0.16455E-04 
  44295.9457     0.16503E-04 
  44328.2078     0.16551E-04 
  44360.4700     0.16600E-04 
  44392.7322     0.16649E-04 
  44424.9943     0.16697E-04 
  44457.2565     0.16746E-04 
  44489.5186     0.16795E-04 
  44521.7808     0.16844E-04 
  44554.0430     0.16893E-04 
  44586.3051     0.16943E-04 
  44618.5673     0.16992E-04 
  44650.8294     0.17041E-04 
  44683.0916     0.17091E-04 
  44715.3538     0.17141E-04 
  44747.6159     0.17191E-04 
  44779.8781     0.17240E-04 
  44812.1402     0.17290E-04 
  44844.4024     0.17341E-04 
  44876.6646     0.17391E-04 
  44908.9267     0.17441E-04 
  44941.1889     0.17492E-04 
  44973.4510     0.17542E-04 
  45005.7132     0.17593E-04 
  45037.9754     0.17644E-04 
  45070.2375     0.17695E-04 
  45102.4997     0.17746E-04 
  45134.7618     0.17797E-04 
  45167.0240     0.17848E-04 
  45199.2862     0.17899E-04 
  45231.5483     0.17951E-04 
  45263.8105     0.18002E-04 
  45296.0726     0.18054E-04 
  45328.3348     0.18106E-04 
  45360.5970     0.18158E-04 
  45392.8591     0.18210E-04 
  45425.1213     0.18262E-04 
  45457.3834     0.18314E-04 
  45489.6456     0.18366E-04 
  45521.9078     0.18419E-04 
  45554.1699     0.18472E-04 
  45586.4321     0.18524E-04 
  45618.6942     0.18577E-04 
  45650.9564     0.18630E-04 
  45683.2186     0.18683E-04 
  45715.4807     0.18736E-04 
  45747.7429     0.18789E-04 
  45780.0050     0.18843E-04 
  45812.2672     0.18896E-04 
  45844.5294     0.18950E-04 
  45876.7915     0.19003E-04 
  45909.0537     0.19057E-04 
  45941.3158     0.19111E-04 
  45973.5780     0.19165E-04 
  46005.8402     0.19219E-04 
  46038.1023     0.19274E-04 
  46070.3645     0.19328E-04 
  46102.6266     0.19383E-04 
  46134.8888     0.19437E-04 
  46167.1510     0.19492E-04 
  46199.4131     0.19547E-04 
  46231.6753     0.19602E-04 
  46263.9374     0.19657E-04 
  46296.1996     0.19712E-04 
  46328.4618     0.19767E-04 
  46360.7239     0.19823E-04 
  46392.9861     0.19878E-04 
  46425.2482     0.19934E-04 
  46457.5104     0.19990E-04 
  46489.7726     0.20046E-04 
  46522.0347     0.20102E-04 
  46554.2969     0.20158E-04 
  46586.5590     0.20214E-04 
  46618.8212     0.20270E-04 
  46651.0834     0.20327E-04 
  46683.3455     0.20383E-04 
  46715.6077     0.20440E-04 
  46747.8698     0.20497E-04 
  46780.1320     0.20554E-04 
  46812.3942     0.20611E-04 
  46844.6563     0.20668E-04 
  46876.9185     0.20726E-04 
  46909.1806     0.20783E-04 
  46941.4428     0.20841E-04 
  46973.7050     0.20898E-04 
  47005.9671     0.20956E-04 
  47038.2293     0.21014E-04 
  47070.4914     0.21072E-04 
  47102.7536     0.21130E-04 
  47135.0158     0.21188E-04 
  47167.2779     0.21247E-04 
  47199.5401     0.21305E-04 
  47231.8022     0.21364E-04 
  47264.0644     0.21423E-04 
  47296.3266     0.21482E-04 
  47328.5887     0.21541E-04 
  47360.8509     0.21600E-04 
  47393.1130     0.21659E-04 
  47425.3752     0.21718E-04 
  47457.6374     0.21778E-04 
  47489.8995     0.21837E-04 
  47522.1617     0.21897E-04 
  47554.4238     0.21957E-04 
  47586.6860     0.22017E-04 
  47618.9482     0.22077E-04 
  47651.2103     0.22137E-04 
  47683.4725     0.22198E-04 
  47715.7346     0.22258E-04 
  47747.9968     0.22319E-04 
  47780.2590     0.22379E-04 
  47812.5211     0.22440E-04 
  47844.7833     0.22501E-04 
  47877.0454     0.22562E-04 
  47909.3076     0.22623E-04 
  47941.5698     0.22685E-04 
  47973.8319     0.22746E-04 
  48006.0941     0.22808E-04 
  48038.3562     0.22870E-04 
  48070.6184     0.22931E-04 
  48102.8806     0.22993E-04 
  48135.1427     0.23055E-04 
  48167.4049     0.23118E-04 
  48199.6670     0.23180E-04 
  48231.9292     0.23242E-04 
  48264.1914     0.23305E-04 
  48296.4535     0.23368E-04 
  48328.7157     0.23431E-04 
  48360.9778     0.23494E-04 
  48393.2400     0.23557E-04 
  48425.5022     0.23620E-04 
  48457.7643     0.23683E-04 
  48490.0265     0.23747E-04 
  48522.2886     0.23810E-04 
  48554.5508     0.23874E-04 
  48586.8130     0.23938E-04 
  48619.0751     0.24002E-04 
  48651.3373     0.24066E-04 
  48683.5994     0.24130E-04 
  48715.8616     0.24195E-04 
  48748.1238     0.24259E-04 
  48780.3859     0.24324E-04 
  48812.6481     0.24388E-04 
  48844.9102     0.24453E-04 
  48877.1724     0.24518E-04 
  48909.4346     0.24583E-04 
  48941.6967     0.24649E-04 
  48973.9589     0.24714E-04 
  49006.2210     0.24780E-04 
  49038.4832     0.24845E-04 
  49070.7454     0.24911E-04 
  49103.0075     0.24977E-04 
  49135.2697     0.25043E-04 
  49167.5318     0.25109E-04 
  49199.7940     0.25176E-04 
  49232.0562     0.25242E-04 
  49264.3183     0.25309E-04 
  49296.5805     0.25375E-04 
  49328.8426     0.25442E-04 
  49361.1048     0.25509E-04 
  49393.3670     0.25576E-04 
  49425.6291     0.25644E-04 
  49457.8913     0.25711E-04 
  49490.1534     0.25778E-04 
  49522.4156     0.25846E-04 
  49554.6778     0.25914E-04 
  49586.9399     0.25982E-04 
  49619.2021     0.26050E-04 
  49651.4642     0.26118E-04 
  49683.7264     0.26186E-04 
  49715.9886     0.26255E-04 
  49748.2507     0.26323E-04 
  49780.5129     0.26392E-04 
  49812.7750     0.26461E-04 
  49845.0372     0.26530E-04 
  49877.2994     0.26599E-04 
  49909.5615     0.26668E-04 
  49941.8237     0.26738E-04 
  49974.0858     0.26807E-04 
  50006.3480     0.26877E-04 
  50038.6102     0.26947E-04 
  50070.8723     0.27016E-04 
  50103.1345     0.27087E-04 
  50135.3966     0.27157E-04 
  50167.6588     0.27227E-04 
  50199.9210     0.27298E-04 
  50232.1831     0.27368E-04 
  50264.4453     0.27439E-04 
  50296.7074     0.27510E-04 
  50328.9696     0.27581E-04 
  50361.2318     0.27652E-04 
  50393.4939     0.27723E-04 
  50425.7561     0.27795E-04 
  50458.0182     0.27866E-04 
  50490.2804     0.27938E-04 
  50522.5426     0.28010E-04 
  50554.8047     0.28082E-04 
  50587.0669     0.28154E-04 
  50619.3290     0.28226E-04 
  50651.5912     0.28299E-04 
  50683.8534     0.28371E-04 
  50716.1155     0.28444E-04 
  50748.3777     0.28517E-04 
  50780.6398     0.28590E-04 
  50812.9020     0.28663E-04 
  50845.1642     0.28736E-04 
  50877.4263     0.28809E-04 
  50909.6885     0.28883E-04 
  50941.9506     0.28956E-04 
  50974.2128     0.29030E-04 
  51006.4750     0.29104E-04 
  51038.7371     0.29178E-04 
  51070.9993     0.29253E-04 
  51103.2614     0.29327E-04 
  51135.5236     0.29401E-04 
  51167.7858     0.29476E-04 
  51200.0479     0.29551E-04 
  51232.3101     0.29626E-04 
  51264.5722     0.29701E-04 
  51296.8344     0.29776E-04 
  51329.0966     0.29851E-04 
  51361.3587     0.29927E-04 
  51393.6209     0.30003E-04 
  51425.8830     0.30078E-04 
  51458.1452     0.30154E-04 
  51490.4074     0.30230E-04 
  51522.6695     0.30307E-04 
  51554.9317     0.30383E-04 
  51587.1938     0.30459E-04 
  51619.4560     0.30536E-04 
  51651.7182     0.30613E-04 
  51683.9803     0.30690E-04 
  51716.2425     0.30767E-04 
  51748.5046     0.30844E-04 
  51780.7668     0.30922E-04 
  51813.0290     0.30999E-04 
  51845.2911     0.31077E-04 
  51877.5533     0.31155E-04 
  51909.8154     0.31233E-04 
  51942.0776     0.31311E-04 
  51974.3398     0.31389E-04 
  52006.6019     0.31467E-04 
  52038.8641     0.31546E-04 
  52071.1262     0.31625E-04 
  52103.3884     0.31703E-04 
  52135.6506     0.31782E-04 
  52167.9127     0.31862E-04 
  52200.1749     0.31941E-04 
  52232.4370     0.32020E-04 
  52264.6992     0.32100E-04 
  52296.9614     0.32180E-04 
  52329.2235     0.32259E-04 
  52361.4857     0.32339E-04 
  52393.7478     0.32420E-04 
  52426.0100     0.32500E-04 
  52458.2722     0.32580E-04 
  52490.5343     0.32661E-04 
  52522.7965     0.32742E-04 
  52555.0586     0.32823E-04 
  52587.3208     0.32904E-04 
  52619.5830     0.32985E-04 
  52651.8451     0.33066E-04 
  52684.1073     0.33148E-04 
  52716.3694     0.33230E-04 
  52748.6316     0.33311E-04 
  52780.8938     0.33393E-04 
  52813.1559     0.33476E-04 
  52845.4181     0.33558E-04 
  52877.6802     0.33640E-04 
  52909.9424     0.33723E-04 
  52942.2046     0.33806E-04 
  52974.4667     0.33888E-04 
  53006.7289     0.33971E-04 
  53038.9910     0.34055E-04 
  53071.2532     0.34138E-04 
  53103.5154     0.34221E-04 
  53135.7775     0.34305E-04 
  53168.0397     0.34389E-04 
  53200.3018     0.34473E-04 
  53232.5640     0.34557E-04 
  53264.8262     0.34641E-04 
  53297.0883     0.34726E-04 
  53329.3505     0.34810E-04 
  53361.6126     0.34895E-04 
  53393.8748     0.34980E-04 
  53426.1370     0.35065E-04 
  53458.3991     0.35150E-04 
  53490.6613     0.35235E-04 
  53522.9234     0.35321E-04 
  53555.1856     0.35407E-04 
  53587.4478     0.35492E-04 
  53619.7099     0.35578E-04 
  53651.9721     0.35664E-04 
  53684.2342     0.35751E-04 
  53716.4964     0.35837E-04 
  53748.7586     0.35924E-04 
  53781.0207     0.36011E-04 
  53813.2829     0.36097E-04 
  53845.5450     0.36184E-04 
  53877.8072     0.36272E-04 
  53910.0694     0.36359E-04 
  53942.3315     0.36447E-04 
  53974.5937     0.36534E-04 
  54006.8558     0.36622E-04 
  54039.1180     0.36710E-04 
  54071.3802     0.36798E-04 
  54103.6423     0.36887E-04 
  54135.9045     0.36975E-04 
  54168.1666     0.37064E-04 
  54200.4288     0.37153E-04 
  54232.6910     0.37242E-04 
  54264.9531     0.37331E-04 
  54297.2153     0.37420E-04 
  54329.4774     0.37509E-04 
  54361.7396     0.37599E-04 
  54394.0018     0.37689E-04 
  54426.2639     0.37779E-04 
  54458.5261     0.37869E-04 
  54490.7882     0.37959E-04 
  54523.0504     0.38049E-04 
  54555.3126     0.38140E-04 
  54587.5747     0.38231E-04 
  54619.8369     0.38322E-04 
  54652.0990     0.38413E-04 
  54684.3612     0.38504E-04 
  54716.6234     0.38595E-04 
  54748.8855     0.38687E-04 
  54781.1477     0.38779E-04 
  54813.4098     0.38870E-04 
  54845.6720     0.38962E-04 
  54877.9342     0.39055E-04 
  54910.1963     0.39147E-04 
  54942.4585     0.39240E-04 
  54974.7206     0.39332E-04 
  55006.9828     0.39425E-04 
  55039.2450     0.39518E-04 
  55071.5071     0.39611E-04 
  55103.7693     0.39705E-04 
  55136.0314     0.39798E-04 
  55168.2936     0.39892E-04 
  55200.5558     0.39986E-04 
  55232.8179     0.40080E-04 
  55265.0801     0.40174E-04 
  55297.3422     0.40268E-04 
  55329.6044     0.40363E-04 
  55361.8666     0.40457E-04 
  55394.1287     0.40552E-04 
  55426.3909     0.40647E-04 
  55458.6530     0.40742E-04 
  55490.9152     0.40838E-04 
  55523.1774     0.40933E-04 
  55555.4395     0.41029E-04 
  55587.7017     0.41125E-04 
  55619.9638     0.41221E-04 
  55652.2260     0.41317E-04 
  55684.4882     0.41413E-04 
  55716.7503     0.41510E-04 
  55749.0125     0.41606E-04 
  55781.2746     0.41703E-04 
  55813.5368     0.41800E-04 
  55845.7990     0.41897E-04 
  55878.0611     0.41995E-04 
  55910.3233     0.42092E-04 
  55942.5854     0.42190E-04 
  55974.8476     0.42288E-04 
  56007.1098     0.42386E-04 
  56039.3719     0.42484E-04 
  56071.6341     0.42582E-04 
  56103.8962     0.42681E-04 
  56136.1584     0.42780E-04 
  56168.4206     0.42879E-04 
  56200.6827     0.42978E-04 
  56232.9449     0.43077E-04 
  56265.2070     0.43176E-04 
  56297.4692     0.43276E-04 
  56329.7314     0.43376E-04 
  56361.9935     0.43476E-04 
  56394.2557     0.43576E-04 
  56426.5178     0.43676E-04 
  56458.7800     0.43776E-04 
  56491.0422     0.43877E-04 
  56523.3043     0.43978E-04 
  56555.5665     0.44079E-04 
  56587.8286     0.44180E-04 
  56620.0908     0.44281E-04 
  56652.3530     0.44383E-04 
  56684.6151     0.44484E-04 
  56716.8773     0.44586E-04 
  56749.1394     0.44688E-04 
  56781.4016     0.44790E-04 
  56813.6638     0.44893E-04 
  56845.9259     0.44995E-04 
  56878.1881     0.45098E-04 
  56910.4502     0.45201E-04 
  56942.7124     0.45304E-04 
  56974.9746     0.45407E-04 
  57007.2367     0.45510E-04 
  57039.4989     0.45614E-04 
  57071.7610     0.45718E-04 
  57104.0232     0.45822E-04 
  57136.2854     0.45926E-04 
  57168.5475     0.46030E-04 
  57200.8097     0.46135E-04 
  57233.0718     0.46239E-04 
  57265.3340     0.46344E-04 
  57297.5962     0.46449E-04 
  57329.8583     0.46554E-04 
  57362.1205     0.46660E-04 
  57394.3826     0.46765E-04 
  57426.6448     0.46871E-04 
  57458.9070     0.46977E-04 
  57491.1691     0.47083E-04 
  57523.4313     0.47189E-04 
  57555.6934     0.47295E-04 
  57587.9556     0.47402E-04 
  57620.2178     0.47509E-04 
  57652.4799     0.47616E-04 
  57684.7421     0.47723E-04 
  57717.0042     0.47830E-04 
  57749.2664     0.47938E-04 
  57781.5286     0.48046E-04 
  57813.7907     0.48153E-04 
  57846.0529     0.48261E-04 
  57878.3150     0.48370E-04 
  57910.5772     0.48478E-04 
  57942.8394     0.48587E-04 
  57975.1015     0.48696E-04 
  58007.3637     0.48805E-04 
  58039.6258     0.48914E-04 
  58071.8880     0.49023E-04 
  58104.1502     0.49133E-04 
  58136.4123     0.49242E-04 
  58168.6745     0.49352E-04 
  58200.9366     0.49462E-04 
  58233.1988     0.49572E-04 
  58265.4610     0.49683E-04 
  58297.7231     0.49794E-04 
  58329.9853     0.49904E-04 
  58362.2474     0.50015E-04 
  58394.5096     0.50126E-04 
  58426.7718     0.50238E-04 
  58459.0339     0.50349E-04 
  58491.2961     0.50461E-04 
  58523.5582     0.50573E-04 
  58555.8204     0.50685E-04 
  58588.0826     0.50797E-04 
  58620.3447     0.50910E-04 
  58652.6069     0.51023E-04 
  58684.8690     0.51135E-04 
  58717.1312     0.51249E-04 
  58749.3934     0.51362E-04 
  58781.6555     0.51475E-04 
  58813.9177     0.51589E-04 
  58846.1798     0.51703E-04 
  58878.4420     0.51817E-04 
  58910.7042     0.51931E-04 
  58942.9663     0.52045E-04 
  58975.2285     0.52160E-04 
  59007.4906     0.52274E-04 
  59039.7528     0.52389E-04 
  59072.0150     0.52504E-04 
  59104.2771     0.52620E-04 
  59136.5393     0.52735E-04 
  59168.8014     0.52851E-04 
  59201.0636     0.52967E-04 
  59233.3258     0.53083E-04 
  59265.5879     0.53199E-04 
  59297.8501     0.53315E-04 
  59330.1122     0.53432E-04 
  59362.3744     0.53549E-04 
  59394.6366     0.53666E-04 
  59426.8987     0.53783E-04 
  59459.1609     0.53901E-04 
  59491.4230     0.54018E-04 
  59523.6852     0.54136E-04 
  59555.9474     0.54254E-04 
  59588.2095     0.54372E-04 
  59620.4717     0.54490E-04 
  59652.7338     0.54609E-04 
  59684.9960     0.54728E-04 
  59717.2582     0.54847E-04 
  59749.5203     0.54966E-04 
  59781.7825     0.55085E-04 
  59814.0446     0.55205E-04 
  59846.3068     0.55324E-04 
  59878.5690     0.55444E-04 
  59910.8311     0.55564E-04 
  59943.0933     0.55685E-04 
  59975.3554     0.55805E-04 
  60007.6176     0.55926E-04 
  60039.8798     0.56047E-04 
  60072.1419     0.56168E-04 
  60104.4041     0.56289E-04 
  60136.6662     0.56411E-04 
  60168.9284     0.56532E-04 
  60201.1906     0.56654E-04 
  60233.4527     0.56776E-04 
  60265.7149     0.56899E-04 
  60297.9770     0.57021E-04 
  60330.2392     0.57144E-04 
  60362.5014     0.57267E-04 
  60394.7635     0.57390E-04 
  60427.0257     0.57513E-04 
  60459.2878     0.57636E-04 
  60491.5500     0.57760E-04 
  60523.8122     0.57884E-04 
  60556.0743     0.58008E-04 
  60588.3365     0.58132E-04 
  60620.5986     0.58257E-04 
  60652.8608     0.58381E-04 
  60685.1230     0.58506E-04 
  60717.3851     0.58631E-04 
  60749.6473     0.58756E-04 
  60781.9094     0.58882E-04 
  60814.1716     0.59008E-04 
  60846.4338     0.59133E-04 
  60878.6959     0.59259E-04 
  60910.9581     0.59386E-04 
  60943.2202     0.59512E-04 
  60975.4824     0.59639E-04 
  61007.7446     0.59766E-04 
  61040.0067     0.59893E-04 
  61072.2689     0.60020E-04 
  61104.5310     0.60147E-04 
  61136.7932     0.60275E-04 
  61169.0554     0.60403E-04 
  61201.3175     0.60531E-04 
  61233.5797     0.60659E-04 
  61265.8418     0.60788E-04 
  61298.1040     0.60917E-04 
  61330.3662     0.61045E-04 
  61362.6283     0.61175E-04 
  61394.8905     0.61304E-04 
  61427.1526     0.61433E-04 
  61459.4148     0.61563E-04 
  61491.6770     0.61693E-04 
  61523.9391     0.61823E-04 
  61556.2013     0.61953E-04 
  61588.4634     0.62084E-04 
  61620.7256     0.62215E-04 
  61652.9878     0.62346E-04 
  61685.2499     0.62477E-04 
  61717.5121     0.62608E-04 
  61749.7742     0.62740E-04 
  61782.0364     0.62871E-04 
  61814.2986     0.63003E-04 
  61846.5607     0.63136E-04 
  61878.8229     0.63268E-04 
  61911.0850     0.63401E-04 
  61943.3472     0.63533E-04 
  61975.6094     0.63667E-04 
  62007.8715     0.63800E-04 
  62040.1337     0.63933E-04 
  62072.3958     0.64067E-04 
  62104.6580     0.64201E-04 
  62136.9202     0.64335E-04 
  62169.1823     0.64469E-04 
  62201.4445     0.64604E-04 
  62233.7066     0.64738E-04 
  62265.9688     0.64873E-04 
  62298.2310     0.65008E-04 
  62330.4931     0.65144E-04 
  62362.7553     0.65279E-04 
  62395.0174     0.65415E-04 
  62427.2796     0.65551E-04 
  62459.5418     0.65687E-04 
  62491.8039     0.65823E-04 
  62524.0661     0.65960E-04 
  62556.3282     0.66097E-04 
  62588.5904     0.66234E-04 
  62620.8526     0.66371E-04 
  62653.1147     0.66509E-04 
  62685.3769     0.66646E-04 
  62717.6390     0.66784E-04 
  62749.9012     0.66922E-04 
  62782.1634     0.67061E-04 
  62814.4255     0.67199E-04 
  62846.6877     0.67338E-04 
  62878.9498     0.67477E-04 
  62911.2120     0.67616E-04 
  62943.4742     0.67755E-04 
  62975.7363     0.67895E-04 
  63007.9985     0.68035E-04 
  63040.2606     0.68175E-04 
  63072.5228     0.68315E-04 
  63104.7850     0.68455E-04 
  63137.0471     0.68596E-04 
  63169.3093     0.68737E-04 
  63201.5714     0.68878E-04 
  63233.8336     0.69019E-04 
  63266.0958     0.69161E-04 
  63298.3579     0.69303E-04 
  63330.6201     0.69445E-04 
  63362.8822     0.69587E-04 
  63395.1444     0.69729E-04 
  63427.4066     0.69872E-04 
  63459.6687     0.70015E-04 
  63491.9309     0.70158E-04 
  63524.1930     0.70301E-04 
  63556.4552     0.70445E-04 
  63588.7174     0.70588E-04 
  63620.9795     0.70732E-04 
  63653.2417     0.70877E-04 
  63685.5038     0.71021E-04 
  63717.7660     0.71166E-04 
  63750.0282     0.71310E-04 
  63782.2903     0.71455E-04 
  63814.5525     0.71601E-04 
  63846.8146     0.71746E-04 
  63879.0768     0.71892E-04 
  63911.3390     0.72038E-04 
  63943.6011     0.72184E-04 
  63975.8633     0.72330E-04 
  64008.1254     0.72477E-04 
  64040.3876     0.72624E-04 
  64072.6498     0.72771E-04 
  64104.9119     0.72918E-04 
  64137.1741     0.73066E-04 
  64169.4362     0.73213E-04 
  64201.6984     0.73361E-04 
  64233.9606     0.73510E-04 
  64266.2227     0.73658E-04 
  64298.4849     0.73807E-04 
  64330.7470     0.73955E-04 
  64363.0092     0.74104E-04 
  64395.2714     0.74254E-04 
  64427.5335     0.74403E-04 
  64459.7957     0.74553E-04 
  64492.0578     0.74703E-04 
  64524.3200     0.74853E-04 
  64556.5822     0.75004E-04 
  64588.8443     0.75154E-04 
  64621.1065     0.75305E-04 
  64653.3686     0.75456E-04 
  64685.6308     0.75608E-04 
  64717.8930     0.75759E-04 
  64750.1551     0.75911E-04 
  64782.4173     0.76063E-04 
  64814.6794     0.76215E-04 
  64846.9416     0.76368E-04 
  64879.2038     0.76520E-04 
  64911.4659     0.76673E-04 
  64943.7281     0.76826E-04 
  64975.9902     0.76980E-04 
  65008.2524     0.77133E-04 
  65040.5146     0.77287E-04 
  65072.7767     0.77441E-04 
  65105.0389     0.77596E-04 
  65137.3010     0.77750E-04 
  65169.5632     0.77905E-04 
  65201.8254     0.78060E-04 
  65234.0875     0.78215E-04 
  65266.3497     0.78371E-04 
  65298.6118     0.78526E-04 
  65330.8740     0.78682E-04 
  65363.1362     0.78838E-04 
  65395.3983     0.78995E-04 
  65427.6605     0.79152E-04 
  65459.9226     0.79308E-04 
  65492.1848     0.79465E-04 
  65524.4470     0.79623E-04 
  65556.7091     0.79780E-04 
  65588.9713     0.79938E-04 
  65621.2334     0.80096E-04 
  65653.4956     0.80254E-04 
  65685.7578     0.80413E-04 
  65718.0199     0.80572E-04 
  65750.2821     0.80731E-04 
  65782.5442     0.80890E-04 
  65814.8064     0.81049E-04 
  65847.0686     0.81209E-04 
  65879.3307     0.81369E-04 
  65911.5929     0.81529E-04 
  65943.8550     0.81689E-04 
  65976.1172     0.81850E-04 
  66008.3794     0.82011E-04 
  66040.6415     0.82172E-04 
  66072.9037     0.82333E-04 
  66105.1658     0.82495E-04 
  66137.4280     0.82657E-04 
  66169.6902     0.82819E-04 
  66201.9523     0.82981E-04 
  66234.2145     0.83143E-04 
  66266.4766     0.83306E-04 
  66298.7388     0.83469E-04 
  66331.0010     0.83632E-04 
  66363.2631     0.83796E-04 
  66395.5253     0.83959E-04 
  66427.7874     0.84123E-04 
  66460.0496     0.84288E-04 
  66492.3118     0.84452E-04 
  66524.5739     0.84617E-04 
  66556.8361     0.84782E-04 
  66589.0982     0.84947E-04 
  66621.3604     0.85112E-04 
  66653.6226     0.85278E-04 
  66685.8847     0.85444E-04 
  66718.1469     0.85610E-04 
  66750.4090     0.85776E-04 
  66782.6712     0.85943E-04 
  66814.9334     0.86110E-04 
  66847.1955     0.86277E-04 
  66879.4577     0.86444E-04 
  66911.7198     0.86612E-04 
  66943.9820     0.86779E-04 
  66976.2442     0.86947E-04 
  67008.5063     0.87116E-04 
  67040.7685     0.87284E-04 
  67073.0306     0.87453E-04 
  67105.2928     0.87622E-04 
  67137.5550     0.87791E-04 
  67169.8171     0.87961E-04 
  67202.0793     0.88131E-04 
  67234.3414     0.88301E-04 
  67266.6036     0.88471E-04 
  67298.8658     0.88642E-04 
  67331.1279     0.88812E-04 
  67363.3901     0.88983E-04 
  67395.6522     0.89155E-04 
  67427.9144     0.89326E-04 
  67460.1766     0.89498E-04 
  67492.4387     0.89670E-04 
  67524.7009     0.89842E-04 
  67556.9630     0.90014E-04 
  67589.2252     0.90187E-04 
  67621.4874     0.90360E-04 
  67653.7495     0.90533E-04 
  67686.0117     0.90707E-04 
  67718.2738     0.90881E-04 
  67750.5360     0.91055E-04 
  67782.7982     0.91229E-04 
  67815.0603     0.91403E-04 
  67847.3225     0.91578E-04 
  67879.5846     0.91753E-04 
  67911.8468     0.91928E-04 
  67944.1090     0.92104E-04 
  67976.3711     0.92279E-04 
  68008.6333     0.92455E-04 
  68040.8954     0.92632E-04 
  68073.1576     0.92808E-04 
  68105.4198     0.92985E-04 
  68137.6819     0.93162E-04 
  68169.9441     0.93339E-04 
  68202.2062     0.93517E-04 
  68234.4684     0.93694E-04 
  68266.7306     0.93872E-04 
  68298.9927     0.94051E-04 
  68331.2549     0.94229E-04 
  68363.5170     0.94408E-04 
  68395.7792     0.94587E-04 
  68428.0414     0.94766E-04 
  68460.3035     0.94946E-04 
  68492.5657     0.95126E-04 
  68524.8278     0.95306E-04 
  68557.0900     0.95486E-04 
  68589.3522     0.95666E-04 
  68621.6143     0.95847E-04 
  68653.8765     0.96028E-04 
  68686.1386     0.96210E-04 
  68718.4008     0.96391E-04 
  68750.6630     0.96573E-04 
  68782.9251     0.96755E-04 
  68815.1873     0.96937E-04 
  68847.4494     0.97120E-04 
  68879.7116     0.97303E-04 
  68911.9738     0.97486E-04 
  68944.2359     0.97669E-04 
  68976.4981     0.97853E-04 
  69008.7602     0.98037E-04 
  69041.0224     0.98221E-04 
  69073.2846     0.98406E-04 
  69105.5467     0.98590E-04 
  69137.8089     0.98775E-04 
  69170.0710     0.98960E-04 
  69202.3332     0.99146E-04 
  69234.5954     0.99332E-04 
  69266.8575     0.99517E-04 
  69299.1197     0.99704E-04 
  69331.3818     0.99890E-04 
  69363.6440     0.10008E-03 
  69395.9062     0.10026E-03 
  69428.1683     0.10045E-03 
  69460.4305     0.10064E-03 
  69492.6926     0.10083E-03 
  69524.9548     0.10101E-03 
  69557.2170     0.10120E-03 
  69589.4791     0.10139E-03 
  69621.7413     0.10158E-03 
  69654.0034     0.10177E-03 
  69686.2656     0.10196E-03 
  69718.5278     0.10215E-03 
  69750.7899     0.10234E-03 
  69783.0521     0.10253E-03 
  69815.3142     0.10272E-03 
  69847.5764     0.10291E-03 
  69879.8386     0.10310E-03 
  69912.1007     0.10329E-03 
  69944.3629     0.10348E-03 
  69976.6250     0.10368E-03 
  70008.8872     0.10387E-03 
  70041.1494     0.10406E-03 
  70073.4115     0.10425E-03 
  70105.6737     0.10445E-03 
  70137.9358     0.10464E-03 
  70170.1980     0.10483E-03 
  70202.4602     0.10503E-03 
  70234.7223     0.10522E-03 
  70266.9845     0.10541E-03 
  70299.2466     0.10561E-03 
  70331.5088     0.10580E-03 
  70363.7710     0.10600E-03 
  70396.0331     0.10619E-03 
  70428.2953     0.10639E-03 
  70460.5574     0.10658E-03 
  70492.8196     0.10678E-03 
  70525.0818     0.10698E-03 
  70557.3439     0.10717E-03 
  70589.6061     0.10737E-03 
  70621.8682     0.10757E-03 
  70654.1304     0.10776E-03 
  70686.3926     0.10796E-03 
  70718.6547     0.10816E-03 
  70750.9169     0.10836E-03 
  70783.1790     0.10856E-03 
  70815.4412     0.10876E-03 
  70847.7034     0.10895E-03 
  70879.9655     0.10915E-03 
  70912.2277     0.10935E-03 
  70944.4898     0.10955E-03 
  70976.7520     0.10975E-03 
  71009.0142     0.10995E-03 
  71041.2763     0.11015E-03 
  71073.5385     0.11036E-03 
  71105.8006     0.11056E-03 
  71138.0628     0.11076E-03 
  71170.3250     0.11096E-03 
  71202.5871     0.11116E-03 
  71234.8493     0.11136E-03 
  71267.1114     0.11157E-03 
  71299.3736     0.11177E-03 
  71331.6358     0.11197E-03 
  71363.8979     0.11218E-03 
  71396.1601     0.11238E-03 
  71428.4222     0.11258E-03 
  71460.6844     0.11279E-03 
  71492.9466     0.11299E-03 
  71525.2087     0.11320E-03 
  71557.4709     0.11340E-03 
  71589.7330     0.11361E-03 
  71621.9952     0.11381E-03 
  71654.2574     0.11402E-03 
  71686.5195     0.11423E-03 
  71718.7817     0.11443E-03 
  71751.0438     0.11464E-03 
  71783.3060     0.11485E-03 
  71815.5682     0.11505E-03 
  71847.8303     0.11526E-03 
  71880.0925     0.11547E-03 
  71912.3546     0.11568E-03 
  71944.6168     0.11589E-03 
  71976.8790     0.11610E-03 
  72009.1411     0.11630E-03 
  72041.4033     0.11651E-03 
  72073.6654     0.11672E-03 
  72105.9276     0.11693E-03 
  72138.1898     0.11714E-03 
  72170.4519     0.11735E-03 
  72202.7141     0.11756E-03 
  72234.9762     0.11778E-03 
  72267.2384     0.11799E-03 
  72299.5006     0.11820E-03 
  72331.7627     0.11841E-03 
  72364.0249     0.11862E-03 
  72396.2870     0.11884E-03 
  72428.5492     0.11905E-03 
  72460.8114     0.11926E-03 
  72493.0735     0.11947E-03 
  72525.3357     0.11969E-03 
  72557.5978     0.11990E-03 
  72589.8600     0.12012E-03 
