  32262.1600     0.13902E-02 
  32294.4222     0.14048E-02 
  32326.6843     0.14195E-02 
  32358.9465     0.14343E-02 
  32391.2086     0.14492E-02 
  32423.4708     0.14643E-02 
  32455.7330     0.14794E-02 
  32487.9951     0.14946E-02 
  32520.2573     0.15099E-02 
  32552.5194     0.15253E-02 
  32584.7816     0.15409E-02 
  32617.0438     0.15565E-02 
  32649.3059     0.15722E-02 
  32681.5681     0.15880E-02 
  32713.8302     0.16039E-02 
  32746.0924     0.16200E-02 
  32778.3546     0.16361E-02 
  32810.6167     0.16523E-02 
  32842.8789     0.16686E-02 
  32875.1410     0.16850E-02 
  32907.4032     0.17016E-02 
  32939.6654     0.17182E-02 
  32971.9275     0.17349E-02 
  33004.1897     0.17517E-02 
  33036.4518     0.17686E-02 
  33068.7140     0.17856E-02 
  33100.9762     0.18027E-02 
  33133.2383     0.18199E-02 
  33165.5005     0.18373E-02 
  33197.7626     0.18547E-02 
  33230.0248     0.18721E-02 
  33262.2870     0.18897E-02 
  33294.5491     0.19074E-02 
  33326.8113     0.19252E-02 
  33359.0734     0.19431E-02 
  33391.3356     0.19611E-02 
  33423.5978     0.19792E-02 
  33455.8599     0.19973E-02 
  33488.1221     0.20156E-02 
  33520.3842     0.20339E-02 
  33552.6464     0.20524E-02 
  33584.9086     0.20709E-02 
  33617.1707     0.20896E-02 
  33649.4329     0.21083E-02 
  33681.6950     0.21271E-02 
  33713.9572     0.21460E-02 
  33746.2194     0.21651E-02 
  33778.4815     0.21842E-02 
  33810.7437     0.22033E-02 
  33843.0058     0.22226E-02 
  33875.2680     0.22420E-02 
  33907.5302     0.22614E-02 
  33939.7923     0.22810E-02 
  33972.0545     0.23006E-02 
  34004.3166     0.23203E-02 
  34036.5788     0.23401E-02 
  34068.8410     0.23600E-02 
  34101.1031     0.23800E-02 
  34133.3653     0.24001E-02 
  34165.6274     0.24202E-02 
  34197.8896     0.24405E-02 
  34230.1518     0.24608E-02 
  34262.4139     0.24812E-02 
  34294.6761     0.25017E-02 
  34326.9382     0.25222E-02 
  34359.2004     0.25429E-02 
  34391.4626     0.25636E-02 
  34423.7247     0.25844E-02 
  34455.9869     0.26053E-02 
  34488.2490     0.26263E-02 
  34520.5112     0.26473E-02 
  34552.7734     0.26684E-02 
  34585.0355     0.26896E-02 
  34617.2977     0.27109E-02 
  34649.5598     0.27322E-02 
  34681.8220     0.27536E-02 
  34714.0842     0.27751E-02 
  34746.3463     0.27967E-02 
  34778.6085     0.28183E-02 
  34810.8706     0.28400E-02 
  34843.1328     0.28618E-02 
  34875.3950     0.28837E-02 
  34907.6571     0.29056E-02 
  34939.9193     0.29276E-02 
  34972.1814     0.29496E-02 
  35004.4436     0.29717E-02 
  35036.7058     0.29939E-02 
  35068.9679     0.30161E-02 
  35101.2301     0.30385E-02 
  35133.4922     0.30608E-02 
  35165.7544     0.30833E-02 
  35198.0166     0.31057E-02 
  35230.2787     0.31283E-02 
  35262.5409     0.31509E-02 
  35294.8030     0.31736E-02 
  35327.0652     0.31963E-02 
  35359.3274     0.32191E-02 
  35391.5895     0.32419E-02 
  35423.8517     0.32648E-02 
  35456.1138     0.32877E-02 
  35488.3760     0.33107E-02 
  35520.6382     0.33338E-02 
  35552.9003     0.33569E-02 
  35585.1625     0.33800E-02 
  35617.4246     0.34032E-02 
  35649.6868     0.34265E-02 
  35681.9490     0.34497E-02 
  35714.2111     0.34731E-02 
  35746.4733     0.34964E-02 
  35778.7354     0.35199E-02 
  35810.9976     0.35433E-02 
  35843.2598     0.35668E-02 
  35875.5219     0.35903E-02 
  35907.7841     0.36139E-02 
  35940.0462     0.36375E-02 
  35972.3084     0.36612E-02 
  36004.5706     0.36848E-02 
  36036.8327     0.37086E-02 
  36069.0949     0.37323E-02 
  36101.3570     0.37561E-02 
  36133.6192     0.37799E-02 
  36165.8814     0.38037E-02 
  36198.1435     0.38276E-02 
  36230.4057     0.38515E-02 
  36262.6678     0.38754E-02 
  36294.9300     0.38993E-02 
  36327.1922     0.39233E-02 
  36359.4543     0.39473E-02 
  36391.7165     0.39713E-02 
  36423.9786     0.39953E-02 
  36456.2408     0.40193E-02 
  36488.5030     0.40434E-02 
  36520.7651     0.40674E-02 
  36553.0273     0.40915E-02 
  36585.2894     0.41156E-02 
  36617.5516     0.41397E-02 
  36649.8138     0.41638E-02 
  36682.0759     0.41880E-02 
  36714.3381     0.42121E-02 
  36746.6002     0.42362E-02 
  36778.8624     0.42604E-02 
  36811.1246     0.42845E-02 
  36843.3867     0.43087E-02 
  36875.6489     0.43328E-02 
  36907.9110     0.43570E-02 
  36940.1732     0.43811E-02 
  36972.4354     0.44053E-02 
  37004.6975     0.44294E-02 
  37036.9597     0.44536E-02 
  37069.2218     0.44777E-02 
  37101.4840     0.45018E-02 
  37133.7462     0.45259E-02 
  37166.0083     0.45500E-02 
  37198.2705     0.45741E-02 
  37230.5326     0.45982E-02 
  37262.7948     0.46222E-02 
  37295.0570     0.46463E-02 
  37327.3191     0.46703E-02 
  37359.5813     0.46943E-02 
  37391.8434     0.47183E-02 
  37424.1056     0.47423E-02 
  37456.3678     0.47662E-02 
  37488.6299     0.47901E-02 
  37520.8921     0.48140E-02 
  37553.1542     0.48378E-02 
  37585.4164     0.48617E-02 
  37617.6786     0.48855E-02 
  37649.9407     0.49092E-02 
  37682.2029     0.49330E-02 
  37714.4650     0.49567E-02 
  37746.7272     0.49803E-02 
  37778.9894     0.50040E-02 
  37811.2515     0.50276E-02 
  37843.5137     0.50511E-02 
  37875.7758     0.50746E-02 
  37908.0380     0.50981E-02 
  37940.3002     0.51215E-02 
  37972.5623     0.51449E-02 
  38004.8245     0.51682E-02 
  38037.0866     0.51915E-02 
  38069.3488     0.52147E-02 
  38101.6110     0.52379E-02 
  38133.8731     0.52610E-02 
  38166.1353     0.52840E-02 
  38198.3974     0.53071E-02 
  38230.6596     0.53300E-02 
  38262.9218     0.53529E-02 
  38295.1839     0.53757E-02 
  38327.4461     0.53985E-02 
  38359.7082     0.54212E-02 
  38391.9704     0.54439E-02 
  38424.2326     0.54665E-02 
  38456.4947     0.54890E-02 
  38488.7569     0.55114E-02 
  38521.0190     0.55338E-02 
  38553.2812     0.55561E-02 
  38585.5434     0.55784E-02 
  38617.8055     0.56005E-02 
  38650.0677     0.56226E-02 
  38682.3298     0.56446E-02 
  38714.5920     0.56666E-02 
  38746.8542     0.56884E-02 
  38779.1163     0.57102E-02 
  38811.3785     0.57319E-02 
  38843.6406     0.57535E-02 
  38875.9028     0.57750E-02 
  38908.1650     0.57965E-02 
  38940.4271     0.58178E-02 
  38972.6893     0.58391E-02 
  39004.9514     0.58603E-02 
  39037.2136     0.58813E-02 
  39069.4758     0.59023E-02 
  39101.7379     0.59232E-02 
  39134.0001     0.59440E-02 
  39166.2622     0.59647E-02 
  39198.5244     0.59854E-02 
  39230.7866     0.60059E-02 
  39263.0487     0.60263E-02 
  39295.3109     0.60466E-02 
  39327.5730     0.60668E-02 
  39359.8352     0.60869E-02 
  39392.0974     0.61069E-02 
  39424.3595     0.61268E-02 
  39456.6217     0.61466E-02 
  39488.8838     0.61663E-02 
  39521.1460     0.61858E-02 
  39553.4082     0.62053E-02 
  39585.6703     0.62246E-02 
  39617.9325     0.62439E-02 
  39650.1946     0.62630E-02 
  39682.4568     0.62820E-02 
  39714.7190     0.63009E-02 
  39746.9811     0.63196E-02 
  39779.2433     0.63383E-02 
  39811.5054     0.63568E-02 
  39843.7676     0.63752E-02 
  39876.0298     0.63935E-02 
  39908.2919     0.64116E-02 
  39940.5541     0.64297E-02 
  39972.8162     0.64476E-02 
  40005.0784     0.64653E-02 
  40037.3406     0.64830E-02 
  40069.6027     0.65005E-02 
  40101.8649     0.65179E-02 
  40134.1270     0.65352E-02 
  40166.3892     0.65523E-02 
  40198.6514     0.65693E-02 
  40230.9135     0.65861E-02 
  40263.1757     0.66029E-02 
  40295.4378     0.66195E-02 
  40327.7000     0.66359E-02 
  40359.9622     0.66522E-02 
  40392.2243     0.66684E-02 
  40424.4865     0.66844E-02 
  40456.7486     0.67003E-02 
  40489.0108     0.67160E-02 
  40521.2730     0.67316E-02 
  40553.5351     0.67471E-02 
  40585.7973     0.67624E-02 
  40618.0594     0.67776E-02 
  40650.3216     0.67926E-02 
  40682.5838     0.68075E-02 
  40714.8459     0.68222E-02 
  40747.1081     0.68368E-02 
  40779.3702     0.68512E-02 
  40811.6324     0.68655E-02 
  40843.8946     0.68796E-02 
  40876.1567     0.68935E-02 
  40908.4189     0.69074E-02 
  40940.6810     0.69210E-02 
  40972.9432     0.69345E-02 
  41005.2054     0.69479E-02 
  41037.4675     0.69610E-02 
  41069.7297     0.69741E-02 
  41101.9918     0.69869E-02 
  41134.2540     0.69997E-02 
  41166.5162     0.70122E-02 
  41198.7783     0.70246E-02 
  41231.0405     0.70368E-02 
  41263.3026     0.70489E-02 
  41295.5648     0.70608E-02 
  41327.8270     0.70726E-02 
  41360.0891     0.70841E-02 
  41392.3513     0.70956E-02 
  41424.6134     0.71068E-02 
  41456.8756     0.71179E-02 
  41489.1378     0.71288E-02 
  41521.3999     0.71396E-02 
  41553.6621     0.71502E-02 
  41585.9242     0.71606E-02 
  41618.1864     0.71708E-02 
  41650.4486     0.71809E-02 
  41682.7107     0.71908E-02 
  41714.9729     0.72005E-02 
  41747.2350     0.72101E-02 
  41779.4972     0.72195E-02 
  41811.7594     0.72287E-02 
  41844.0215     0.72378E-02 
  41876.2837     0.72467E-02 
  41908.5458     0.72554E-02 
  41940.8080     0.72639E-02 
  41973.0702     0.72723E-02 
  42005.3323     0.72805E-02 
  42037.5945     0.72885E-02 
  42069.8566     0.72963E-02 
  42102.1188     0.73040E-02 
  42134.3810     0.73115E-02 
  42166.6431     0.73188E-02 
  42198.9053     0.73259E-02 
  42231.1674     0.73329E-02 
  42263.4296     0.73397E-02 
  42295.6918     0.73463E-02 
  42327.9539     0.73527E-02 
  42360.2161     0.73590E-02 
  42392.4782     0.73651E-02 
  42424.7404     0.73710E-02 
  42457.0026     0.73767E-02 
  42489.2647     0.73822E-02 
  42521.5269     0.73876E-02 
  42553.7890     0.73928E-02 
  42586.0512     0.73978E-02 
  42618.3134     0.74026E-02 
  42650.5755     0.74073E-02 
  42682.8377     0.74117E-02 
  42715.0998     0.74160E-02 
  42747.3620     0.74201E-02 
  42779.6242     0.74241E-02 
  42811.8863     0.74278E-02 
  42844.1485     0.74314E-02 
  42876.4106     0.74348E-02 
  42908.6728     0.74380E-02 
  42940.9350     0.74411E-02 
  42973.1971     0.74439E-02 
  43005.4593     0.74466E-02 
  43037.7214     0.74491E-02 
  43069.9836     0.74514E-02 
  43102.2458     0.74536E-02 
  43134.5079     0.74555E-02 
  43166.7701     0.74573E-02 
  43199.0322     0.74589E-02 
  43231.2944     0.74604E-02 
  43263.5566     0.74616E-02 
  43295.8187     0.74627E-02 
  43328.0809     0.74636E-02 
  43360.3430     0.74643E-02 
  43392.6052     0.74648E-02 
  43424.8674     0.74652E-02 
  43457.1295     0.74654E-02 
  43489.3917     0.74654E-02 
  43521.6538     0.74652E-02 
  43553.9160     0.74648E-02 
  43586.1782     0.74643E-02 
  43618.4403     0.74636E-02 
  43650.7025     0.74627E-02 
  43682.9646     0.74617E-02 
  43715.2268     0.74604E-02 
  43747.4890     0.74590E-02 
  43779.7511     0.74575E-02 
  43812.0133     0.74557E-02 
  43844.2754     0.74538E-02 
  43876.5376     0.74517E-02 
  43908.7998     0.74494E-02 
  43941.0619     0.74469E-02 
  43973.3241     0.74443E-02 
  44005.5862     0.74415E-02 
  44037.8484     0.74385E-02 
  44070.1106     0.74354E-02 
  44102.3727     0.74321E-02 
  44134.6349     0.74286E-02 
  44166.8970     0.74250E-02 
  44199.1592     0.74211E-02 
  44231.4214     0.74171E-02 
  44263.6835     0.74130E-02 
  44295.9457     0.74087E-02 
  44328.2078     0.74042E-02 
  44360.4700     0.73995E-02 
  44392.7322     0.73947E-02 
  44424.9943     0.73897E-02 
  44457.2565     0.73845E-02 
  44489.5186     0.73792E-02 
  44521.7808     0.73737E-02 
  44554.0430     0.73680E-02 
  44586.3051     0.73622E-02 
  44618.5673     0.73562E-02 
  44650.8294     0.73501E-02 
  44683.0916     0.73438E-02 
  44715.3538     0.73373E-02 
  44747.6159     0.73307E-02 
  44779.8781     0.73239E-02 
  44812.1402     0.73169E-02 
  44844.4024     0.73098E-02 
  44876.6646     0.73025E-02 
  44908.9267     0.72951E-02 
  44941.1889     0.72875E-02 
  44973.4510     0.72798E-02 
  45005.7132     0.72719E-02 
  45037.9754     0.72639E-02 
  45070.2375     0.72557E-02 
  45102.4997     0.72473E-02 
  45134.7618     0.72388E-02 
  45167.0240     0.72302E-02 
  45199.2862     0.72214E-02 
  45231.5483     0.72124E-02 
  45263.8105     0.72033E-02 
  45296.0726     0.71940E-02 
  45328.3348     0.71846E-02 
  45360.5970     0.71751E-02 
  45392.8591     0.71654E-02 
  45425.1213     0.71556E-02 
  45457.3834     0.71456E-02 
  45489.6456     0.71355E-02 
  45521.9078     0.71252E-02 
  45554.1699     0.71148E-02 
  45586.4321     0.71042E-02 
  45618.6942     0.70935E-02 
  45650.9564     0.70827E-02 
  45683.2186     0.70717E-02 
  45715.4807     0.70606E-02 
  45747.7429     0.70494E-02 
  45780.0050     0.70380E-02 
  45812.2672     0.70265E-02 
  45844.5294     0.70148E-02 
  45876.7915     0.70030E-02 
  45909.0537     0.69911E-02 
  45941.3158     0.69790E-02 
  45973.5780     0.69669E-02 
  46005.8402     0.69545E-02 
  46038.1023     0.69421E-02 
  46070.3645     0.69295E-02 
  46102.6266     0.69168E-02 
  46134.8888     0.69040E-02 
  46167.1510     0.68911E-02 
  46199.4131     0.68780E-02 
  46231.6753     0.68648E-02 
  46263.9374     0.68515E-02 
  46296.1996     0.68380E-02 
  46328.4618     0.68245E-02 
  46360.7239     0.68108E-02 
  46392.9861     0.67970E-02 
  46425.2482     0.67831E-02 
  46457.5104     0.67691E-02 
  46489.7726     0.67549E-02 
  46522.0347     0.67407E-02 
  46554.2969     0.67263E-02 
  46586.5590     0.67118E-02 
  46618.8212     0.66972E-02 
  46651.0834     0.66825E-02 
  46683.3455     0.66677E-02 
  46715.6077     0.66527E-02 
  46747.8698     0.66377E-02 
  46780.1320     0.66225E-02 
  46812.3942     0.66073E-02 
  46844.6563     0.65919E-02 
  46876.9185     0.65765E-02 
  46909.1806     0.65609E-02 
  46941.4428     0.65453E-02 
  46973.7050     0.65295E-02 
  47005.9671     0.65136E-02 
  47038.2293     0.64977E-02 
  47070.4914     0.64816E-02 
  47102.7536     0.64655E-02 
  47135.0158     0.64492E-02 
  47167.2779     0.64329E-02 
  47199.5401     0.64164E-02 
  47231.8022     0.63999E-02 
  47264.0644     0.63833E-02 
  47296.3266     0.63666E-02 
  47328.5887     0.63498E-02 
  47360.8509     0.63329E-02 
  47393.1130     0.63159E-02 
  47425.3752     0.62988E-02 
  47457.6374     0.62817E-02 
  47489.8995     0.62644E-02 
  47522.1617     0.62471E-02 
  47554.4238     0.62297E-02 
  47586.6860     0.62123E-02 
  47618.9482     0.61947E-02 
  47651.2103     0.61771E-02 
  47683.4725     0.61593E-02 
  47715.7346     0.61416E-02 
  47747.9968     0.61237E-02 
  47780.2590     0.61057E-02 
  47812.5211     0.60877E-02 
  47844.7833     0.60696E-02 
  47877.0454     0.60515E-02 
  47909.3076     0.60332E-02 
  47941.5698     0.60149E-02 
  47973.8319     0.59966E-02 
  48006.0941     0.59781E-02 
  48038.3562     0.59596E-02 
  48070.6184     0.59411E-02 
  48102.8806     0.59224E-02 
  48135.1427     0.59037E-02 
  48167.4049     0.58850E-02 
  48199.6670     0.58662E-02 
  48231.9292     0.58473E-02 
  48264.1914     0.58283E-02 
  48296.4535     0.58094E-02 
  48328.7157     0.57903E-02 
  48360.9778     0.57712E-02 
  48393.2400     0.57520E-02 
  48425.5022     0.57328E-02 
  48457.7643     0.57135E-02 
  48490.0265     0.56942E-02 
  48522.2886     0.56748E-02 
  48554.5508     0.56554E-02 
  48586.8130     0.56359E-02 
  48619.0751     0.56164E-02 
  48651.3373     0.55968E-02 
  48683.5994     0.55772E-02 
  48715.8616     0.55576E-02 
  48748.1238     0.55379E-02 
  48780.3859     0.55181E-02 
  48812.6481     0.54983E-02 
  48844.9102     0.54785E-02 
  48877.1724     0.54586E-02 
  48909.4346     0.54387E-02 
  48941.6967     0.54188E-02 
  48973.9589     0.53988E-02 
  49006.2210     0.53788E-02 
  49038.4832     0.53587E-02 
  49070.7454     0.53386E-02 
  49103.0075     0.53185E-02 
  49135.2697     0.52984E-02 
  49167.5318     0.52782E-02 
  49199.7940     0.52580E-02 
  49232.0562     0.52377E-02 
  49264.3183     0.52175E-02 
  49296.5805     0.51972E-02 
  49328.8426     0.51768E-02 
  49361.1048     0.51565E-02 
  49393.3670     0.51361E-02 
  49425.6291     0.51157E-02 
  49457.8913     0.50953E-02 
  49490.1534     0.50748E-02 
  49522.4156     0.50544E-02 
  49554.6778     0.50339E-02 
  49586.9399     0.50134E-02 
  49619.2021     0.49929E-02 
  49651.4642     0.49723E-02 
  49683.7264     0.49518E-02 
  49715.9886     0.49312E-02 
  49748.2507     0.49106E-02 
  49780.5129     0.48900E-02 
  49812.7750     0.48694E-02 
  49845.0372     0.48488E-02 
  49877.2994     0.48281E-02 
  49909.5615     0.48075E-02 
  49941.8237     0.47868E-02 
  49974.0858     0.47662E-02 
  50006.3480     0.47455E-02 
  50038.6102     0.47248E-02 
  50070.8723     0.47041E-02 
  50103.1345     0.46834E-02 
  50135.3966     0.46628E-02 
  50167.6588     0.46421E-02 
  50199.9210     0.46214E-02 
  50232.1831     0.46007E-02 
  50264.4453     0.45800E-02 
  50296.7074     0.45593E-02 
  50328.9696     0.45386E-02 
  50361.2318     0.45179E-02 
  50393.4939     0.44972E-02 
  50425.7561     0.44765E-02 
  50458.0182     0.44558E-02 
  50490.2804     0.44351E-02 
  50522.5426     0.44144E-02 
  50554.8047     0.43937E-02 
  50587.0669     0.43731E-02 
  50619.3290     0.43524E-02 
  50651.5912     0.43317E-02 
  50683.8534     0.43111E-02 
  50716.1155     0.42905E-02 
  50748.3777     0.42699E-02 
  50780.6398     0.42492E-02 
  50812.9020     0.42286E-02 
  50845.1642     0.42081E-02 
  50877.4263     0.41875E-02 
  50909.6885     0.41669E-02 
  50941.9506     0.41464E-02 
  50974.2128     0.41259E-02 
  51006.4750     0.41053E-02 
  51038.7371     0.40849E-02 
  51070.9993     0.40644E-02 
  51103.2614     0.40439E-02 
  51135.5236     0.40235E-02 
  51167.7858     0.40031E-02 
  51200.0479     0.39827E-02 
  51232.3101     0.39623E-02 
  51264.5722     0.39419E-02 
  51296.8344     0.39216E-02 
  51329.0966     0.39013E-02 
  51361.3587     0.38810E-02 
  51393.6209     0.38607E-02 
  51425.8830     0.38405E-02 
  51458.1452     0.38203E-02 
  51490.4074     0.38001E-02 
  51522.6695     0.37799E-02 
  51554.9317     0.37598E-02 
  51587.1938     0.37397E-02 
  51619.4560     0.37196E-02 
  51651.7182     0.36996E-02 
  51683.9803     0.36796E-02 
  51716.2425     0.36596E-02 
  51748.5046     0.36396E-02 
  51780.7668     0.36197E-02 
  51813.0290     0.35998E-02 
  51845.2911     0.35799E-02 
  51877.5533     0.35601E-02 
  51909.8154     0.35403E-02 
  51942.0776     0.35206E-02 
  51974.3398     0.35008E-02 
  52006.6019     0.34811E-02 
  52038.8641     0.34615E-02 
  52071.1262     0.34419E-02 
  52103.3884     0.34223E-02 
  52135.6506     0.34027E-02 
  52167.9127     0.33832E-02 
  52200.1749     0.33638E-02 
  52232.4370     0.33443E-02 
  52264.6992     0.33250E-02 
  52296.9614     0.33056E-02 
  52329.2235     0.32863E-02 
  52361.4857     0.32670E-02 
  52393.7478     0.32478E-02 
  52426.0100     0.32286E-02 
  52458.2722     0.32095E-02 
  52490.5343     0.31903E-02 
  52522.7965     0.31713E-02 
  52555.0586     0.31523E-02 
  52587.3208     0.31333E-02 
  52619.5830     0.31144E-02 
  52651.8451     0.30955E-02 
  52684.1073     0.30766E-02 
  52716.3694     0.30578E-02 
  52748.6316     0.30391E-02 
  52780.8938     0.30204E-02 
  52813.1559     0.30017E-02 
  52845.4181     0.29831E-02 
  52877.6802     0.29645E-02 
  52909.9424     0.29460E-02 
  52942.2046     0.29275E-02 
  52974.4667     0.29091E-02 
  53006.7289     0.28908E-02 
  53038.9910     0.28724E-02 
  53071.2532     0.28541E-02 
  53103.5154     0.28359E-02 
  53135.7775     0.28177E-02 
  53168.0397     0.27996E-02 
  53200.3018     0.27815E-02 
  53232.5640     0.27635E-02 
  53264.8262     0.27455E-02 
  53297.0883     0.27276E-02 
  53329.3505     0.27098E-02 
  53361.6126     0.26919E-02 
  53393.8748     0.26742E-02 
  53426.1370     0.26565E-02 
  53458.3991     0.26388E-02 
  53490.6613     0.26212E-02 
  53522.9234     0.26036E-02 
  53555.1856     0.25861E-02 
  53587.4478     0.25687E-02 
  53619.7099     0.25513E-02 
  53651.9721     0.25340E-02 
  53684.2342     0.25167E-02 
  53716.4964     0.24994E-02 
  53748.7586     0.24823E-02 
  53781.0207     0.24652E-02 
  53813.2829     0.24481E-02 
  53845.5450     0.24311E-02 
  53877.8072     0.24141E-02 
  53910.0694     0.23972E-02 
  53942.3315     0.23804E-02 
  53974.5937     0.23636E-02 
  54006.8558     0.23469E-02 
  54039.1180     0.23302E-02 
  54071.3802     0.23136E-02 
  54103.6423     0.22971E-02 
  54135.9045     0.22806E-02 
  54168.1666     0.22641E-02 
  54200.4288     0.22478E-02 
  54232.6910     0.22314E-02 
  54264.9531     0.22152E-02 
  54297.2153     0.21990E-02 
  54329.4774     0.21828E-02 
  54361.7396     0.21667E-02 
  54394.0018     0.21507E-02 
  54426.2639     0.21347E-02 
  54458.5261     0.21188E-02 
  54490.7882     0.21030E-02 
  54523.0504     0.20872E-02 
  54555.3126     0.20715E-02 
  54587.5747     0.20558E-02 
  54619.8369     0.20402E-02 
  54652.0990     0.20246E-02 
  54684.3612     0.20092E-02 
  54716.6234     0.19937E-02 
  54748.8855     0.19784E-02 
  54781.1477     0.19630E-02 
  54813.4098     0.19478E-02 
  54845.6720     0.19326E-02 
  54877.9342     0.19175E-02 
  54910.1963     0.19024E-02 
  54942.4585     0.18874E-02 
  54974.7206     0.18725E-02 
  55006.9828     0.18576E-02 
  55039.2450     0.18428E-02 
  55071.5071     0.18280E-02 
  55103.7693     0.18133E-02 
  55136.0314     0.17987E-02 
  55168.2936     0.17841E-02 
  55200.5558     0.17696E-02 
  55232.8179     0.17551E-02 
  55265.0801     0.17407E-02 
  55297.3422     0.17264E-02 
  55329.6044     0.17121E-02 
  55361.8666     0.16979E-02 
  55394.1287     0.16838E-02 
  55426.3909     0.16697E-02 
  55458.6530     0.16557E-02 
  55490.9152     0.16417E-02 
  55523.1774     0.16278E-02 
  55555.4395     0.16140E-02 
  55587.7017     0.16002E-02 
  55619.9638     0.15865E-02 
  55652.2260     0.15728E-02 
  55684.4882     0.15592E-02 
  55716.7503     0.15457E-02 
  55749.0125     0.15323E-02 
  55781.2746     0.15189E-02 
  55813.5368     0.15055E-02 
  55845.7990     0.14922E-02 
  55878.0611     0.14790E-02 
  55910.3233     0.14659E-02 
  55942.5854     0.14528E-02 
  55974.8476     0.14397E-02 
  56007.1098     0.14268E-02 
  56039.3719     0.14139E-02 
  56071.6341     0.14010E-02 
  56103.8962     0.13882E-02 
  56136.1584     0.13755E-02 
  56168.4206     0.13629E-02 
  56200.6827     0.13503E-02 
  56232.9449     0.13377E-02 
  56265.2070     0.13253E-02 
  56297.4692     0.13128E-02 
  56329.7314     0.13005E-02 
  56361.9935     0.12882E-02 
  56394.2557     0.12760E-02 
  56426.5178     0.12638E-02 
  56458.7800     0.12517E-02 
  56491.0422     0.12397E-02 
  56523.3043     0.12277E-02 
  56555.5665     0.12158E-02 
  56587.8286     0.12039E-02 
  56620.0908     0.11921E-02 
  56652.3530     0.11804E-02 
  56684.6151     0.11687E-02 
  56716.8773     0.11571E-02 
  56749.1394     0.11456E-02 
  56781.4016     0.11341E-02 
  56813.6638     0.11227E-02 
  56845.9259     0.11113E-02 
  56878.1881     0.11000E-02 
  56910.4502     0.10887E-02 
  56942.7124     0.10776E-02 
  56974.9746     0.10664E-02 
  57007.2367     0.10554E-02 
  57039.4989     0.10444E-02 
  57071.7610     0.10334E-02 
  57104.0232     0.10226E-02 
  57136.2854     0.10118E-02 
  57168.5475     0.10010E-02 
  57200.8097     0.99030E-03 
  57233.0718     0.97966E-03 
  57265.3340     0.96909E-03 
  57297.5962     0.95857E-03 
  57329.8583     0.94812E-03 
  57362.1205     0.93773E-03 
  57394.3826     0.92739E-03 
  57426.6448     0.91712E-03 
  57458.9070     0.90691E-03 
  57491.1691     0.89675E-03 
  57523.4313     0.88666E-03 
  57555.6934     0.87662E-03 
  57587.9556     0.86665E-03 
  57620.2178     0.85674E-03 
  57652.4799     0.84688E-03 
  57684.7421     0.83709E-03 
  57717.0042     0.82735E-03 
  57749.2664     0.81768E-03 
  57781.5286     0.80806E-03 
  57813.7907     0.79850E-03 
  57846.0529     0.78901E-03 
  57878.3150     0.77957E-03 
  57910.5772     0.77019E-03 
  57942.8394     0.76087E-03 
  57975.1015     0.75161E-03 
  58007.3637     0.74241E-03 
  58039.6258     0.73327E-03 
  58071.8880     0.72419E-03 
  58104.1502     0.71516E-03 
  58136.4123     0.70620E-03 
  58168.6745     0.69729E-03 
  58200.9366     0.68845E-03 
  58233.1988     0.67966E-03 
  58265.4610     0.67093E-03 
  58297.7231     0.66226E-03 
  58329.9853     0.65365E-03 
  58362.2474     0.64509E-03 
  58394.5096     0.63660E-03 
  58426.7718     0.62816E-03 
  58459.0339     0.61978E-03 
  58491.2961     0.61147E-03 
  58523.5582     0.60321E-03 
  58555.8204     0.59500E-03 
  58588.0826     0.58686E-03 
  58620.3447     0.57878E-03 
  58652.6069     0.57075E-03 
  58684.8690     0.56278E-03 
  58717.1312     0.55487E-03 
  58749.3934     0.54702E-03 
  58781.6555     0.53923E-03 
  58813.9177     0.53149E-03 
  58846.1798     0.52382E-03 
  58878.4420     0.51620E-03 
  58910.7042     0.50864E-03 
  58942.9663     0.50114E-03 
  58975.2285     0.49370E-03 
  59007.4906     0.48632E-03 
  59039.7528     0.47899E-03 
  59072.0150     0.47173E-03 
  59104.2771     0.46452E-03 
  59136.5393     0.45737E-03 
  59168.8014     0.45028E-03 
  59201.0636     0.44325E-03 
  59233.3258     0.43627E-03 
  59265.5879     0.42936E-03 
  59297.8501     0.42250E-03 
  59330.1122     0.41570E-03 
  59362.3744     0.40897E-03 
  59394.6366     0.40229E-03 
  59426.8987     0.39567E-03 
  59459.1609     0.38911E-03 
  59491.4230     0.38260E-03 
  59523.6852     0.37616E-03 
  59555.9474     0.36978E-03 
  59588.2095     0.36346E-03 
  59620.4717     0.35719E-03 
  59652.7338     0.35099E-03 
  59684.9960     0.34484E-03 
  59717.2582     0.33876E-03 
  59749.5203     0.33273E-03 
  59781.7825     0.32677E-03 
  59814.0446     0.32086E-03 
  59846.3068     0.31502E-03 
  59878.5690     0.30924E-03 
  59910.8311     0.30351E-03 
  59943.0933     0.29785E-03 
  59975.3554     0.29225E-03 
  60007.6176     0.28671E-03 
  60039.8798     0.28123E-03 
  60072.1419     0.27582E-03 
  60104.4041     0.27046E-03 
  60136.6662     0.26517E-03 
  60168.9284     0.25994E-03 
  60201.1906     0.25477E-03 
  60233.4527     0.24966E-03 
  60265.7149     0.24462E-03 
  60297.9770     0.23964E-03 
  60330.2392     0.23472E-03 
  60362.5014     0.22987E-03 
  60394.7635     0.22508E-03 
  60427.0257     0.22035E-03 
  60459.2878     0.21569E-03 
  60491.5500     0.21109E-03 
  60523.8122     0.20656E-03 
  60556.0743     0.20209E-03 
  60588.3365     0.19769E-03 
  60620.5986     0.19336E-03 
  60652.8608     0.18909E-03 
  60685.1230     0.18488E-03 
  60717.3851     0.18075E-03 
  60749.6473     0.17668E-03 
  60781.9094     0.17268E-03 
  60814.1716     0.16874E-03 
  60846.4338     0.16488E-03 
  60878.6959     0.16108E-03 
  60910.9581     0.15736E-03 
  60943.2202     0.15370E-03 
  60975.4824     0.15011E-03 
  61007.7446     0.14659E-03 
  61040.0067     0.14314E-03 
  61072.2689     0.13977E-03 
  61104.5310     0.13647E-03 
  61136.7932     0.13323E-03 
  61169.0554     0.13008E-03 
  61201.3175     0.12699E-03 
  61233.5797     0.12398E-03 
  61265.8418     0.12104E-03 
  61298.1040     0.11818E-03 
  61330.3662     0.11539E-03 
  61362.6283     0.11268E-03 
  61394.8905     0.11005E-03 
  61427.1526     0.10749E-03 
  61459.4148     0.10501E-03 
  61491.6770     0.10261E-03 
  61523.9391     0.10029E-03 
  61556.2013     0.98047E-04 
  61588.4634     0.95886E-04 
  61620.7256     0.93806E-04 
  61652.9878     0.91807E-04 
  61685.2499     0.89891E-04 
  61717.5121     0.88058E-04 
  61749.7742     0.86309E-04 
  61782.0364     0.84645E-04 
  61814.2986     0.83067E-04 
  61846.5607     0.81575E-04 
  61878.8229     0.80170E-04 
  61911.0850     0.78852E-04 
  61943.3472     0.77624E-04 
  61975.6094     0.76485E-04 
  62007.8715     0.75437E-04 
  62040.1337     0.74481E-04 
  62072.3958     0.73616E-04 
  62104.6580     0.72845E-04 
  62136.9202     0.72168E-04 
  62169.1823     0.71586E-04 
  62201.4445     0.71101E-04 
  62233.7066     0.70712E-04 
  62265.9688     0.70422E-04 
  62298.2310     0.70231E-04 
  62330.4931     0.70140E-04 
  62362.7553     0.70151E-04 
  62395.0174     0.70264E-04 
  62427.2796     0.70481E-04 
  62459.5418     0.70802E-04 
  62491.8039     0.71230E-04 
  62524.0661     0.71764E-04 
  62556.3282     0.72407E-04 
  62588.5904     0.73159E-04 
  62620.8526     0.74022E-04 
  62653.1147     0.74996E-04 
  62685.3769     0.76085E-04 
  62717.6390     0.77287E-04 
  62749.9012     0.78606E-04 
  62782.1634     0.80042E-04 
  62814.4255     0.81597E-04 
  62846.6877     0.83271E-04 
  62878.9498     0.85068E-04 
  62911.2120     0.86987E-04 
  62943.4742     0.89030E-04 
  62975.7363     0.91200E-04 
  63007.9985     0.93497E-04 
  63040.2606     0.95923E-04 
  63072.5228     0.98480E-04 
  63104.7850     0.10117E-03 
  63137.0471     0.10399E-03 
  63169.3093     0.10695E-03 
  63201.5714     0.11004E-03 
  63233.8336     0.11328E-03 
  63266.0958     0.11665E-03 
  63298.3579     0.12017E-03 
  63330.6201     0.12383E-03 
  63362.8822     0.12764E-03 
  63395.1444     0.13159E-03 
  63427.4066     0.13570E-03 
  63459.6687     0.13995E-03 
  63491.9309     0.14436E-03 
  63524.1930     0.14893E-03 
  63556.4552     0.15365E-03 
  63588.7174     0.15853E-03 
  63620.9795     0.16357E-03 
  63653.2417     0.16878E-03 
  63685.5038     0.17415E-03 
  63717.7660     0.17969E-03 
  63750.0282     0.18540E-03 
  63782.2903     0.19128E-03 
  63814.5525     0.19734E-03 
  63846.8146     0.20357E-03 
  63879.0768     0.20999E-03 
  63911.3390     0.21658E-03 
  63943.6011     0.22335E-03 
  63975.8633     0.23032E-03 
  64008.1254     0.23747E-03 
  64040.3876     0.24481E-03 
  64072.6498     0.25235E-03 
  64104.9119     0.26008E-03 
  64137.1741     0.26801E-03 
  64169.4362     0.27614E-03 
  64201.6984     0.28447E-03 
  64233.9606     0.29301E-03 
  64266.2227     0.30176E-03 
  64298.4849     0.31072E-03 
  64330.7470     0.31990E-03 
  64363.0092     0.32929E-03 
  64395.2714     0.33890E-03 
  64427.5335     0.34874E-03 
  64459.7957     0.35880E-03 
  64492.0578     0.36909E-03 
  64524.3200     0.37961E-03 
  64556.5822     0.39037E-03 
  64588.8443     0.40136E-03 
  64621.1065     0.41260E-03 
  64653.3686     0.42408E-03 
  64685.6308     0.43581E-03 
  64717.8930     0.44778E-03 
  64750.1551     0.46002E-03 
  64782.4173     0.47250E-03 
  64814.6794     0.48525E-03 
  64846.9416     0.49827E-03 
  64879.2038     0.51154E-03 
  64911.4659     0.52509E-03 
  64943.7281     0.53892E-03 
  64975.9902     0.55302E-03 
  65008.2524     0.56740E-03 
  65040.5146     0.58207E-03 
  65072.7767     0.59703E-03 
  65105.0389     0.61227E-03 
  65137.3010     0.62782E-03 
  65169.5632     0.64366E-03 
  65201.8254     0.65981E-03 
  65234.0875     0.67626E-03 
  65266.3497     0.69303E-03 
  65298.6118     0.71010E-03 
  65330.8740     0.72750E-03 
  65363.1362     0.74522E-03 
  65395.3983     0.76327E-03 
  65427.6605     0.78165E-03 
  65459.9226     0.80037E-03 
  65492.1848     0.81942E-03 
  65524.4470     0.83882E-03 
  65556.7091     0.85857E-03 
  65588.9713     0.87866E-03 
  65621.2334     0.89912E-03 
  65653.4956     0.91994E-03 
  65685.7578     0.94112E-03 
  65718.0199     0.96267E-03 
  65750.2821     0.98459E-03 
  65782.5442     0.10069E-02 
  65814.8064     0.10296E-02 
  65847.0686     0.10527E-02 
  65879.3307     0.10761E-02 
  65911.5929     0.11000E-02 
  65943.8550     0.11243E-02 
  65976.1172     0.11489E-02 
  66008.3794     0.11740E-02 
  66040.6415     0.11995E-02 
  66072.9037     0.12255E-02 
  66105.1658     0.12518E-02 
  66137.4280     0.12786E-02 
  66169.6902     0.13058E-02 
  66201.9523     0.13335E-02 
  66234.2145     0.13616E-02 
  66266.4766     0.13902E-02 
  66298.7388     0.14192E-02 
  66331.0010     0.14487E-02 
  66363.2631     0.14787E-02 
  66395.5253     0.15091E-02 
  66427.7874     0.15400E-02 
  66460.0496     0.15714E-02 
  66492.3118     0.16033E-02 
  66524.5739     0.16357E-02 
  66556.8361     0.16686E-02 
  66589.0982     0.17020E-02 
  66621.3604     0.17359E-02 
  66653.6226     0.17703E-02 
  66685.8847     0.18052E-02 
  66718.1469     0.18407E-02 
  66750.4090     0.18767E-02 
  66782.6712     0.19133E-02 
  66814.9334     0.19504E-02 
  66847.1955     0.19881E-02 
  66879.4577     0.20263E-02 
  66911.7198     0.20651E-02 
  66943.9820     0.21044E-02 
  66976.2442     0.21444E-02 
  67008.5063     0.21849E-02 
  67040.7685     0.22260E-02 
  67073.0306     0.22677E-02 
  67105.2928     0.23101E-02 
  67137.5550     0.23530E-02 
  67169.8171     0.23965E-02 
  67202.0793     0.24407E-02 
  67234.3414     0.24855E-02 
  67266.6036     0.25309E-02 
  67298.8658     0.25770E-02 
  67331.1279     0.26237E-02 
  67363.3901     0.26711E-02 
  67395.6522     0.27191E-02 
  67427.9144     0.27678E-02 
  67460.1766     0.28172E-02 
  67492.4387     0.28673E-02 
  67524.7009     0.29180E-02 
  67556.9630     0.29695E-02 
  67589.2252     0.30216E-02 
  67621.4874     0.30745E-02 
  67653.7495     0.31281E-02 
  67686.0117     0.31824E-02 
  67718.2738     0.32374E-02 
  67750.5360     0.32932E-02 
  67782.7982     0.33497E-02 
  67815.0603     0.34070E-02 
  67847.3225     0.34650E-02 
  67879.5846     0.35238E-02 
  67911.8468     0.35833E-02 
  67944.1090     0.36437E-02 
  67976.3711     0.37048E-02 
  68008.6333     0.37667E-02 
  68040.8954     0.38295E-02 
  68073.1576     0.38930E-02 
  68105.4198     0.39574E-02 
  68137.6819     0.40225E-02 
  68169.9441     0.40885E-02 
  68202.2062     0.41554E-02 
  68234.4684     0.42231E-02 
  68266.7306     0.42916E-02 
  68298.9927     0.43610E-02 
  68331.2549     0.44313E-02 
  68363.5170     0.45025E-02 
  68395.7792     0.45745E-02 
  68428.0414     0.46474E-02 
  68460.3035     0.47213E-02 
  68492.5657     0.47960E-02 
  68524.8278     0.48716E-02 
  68557.0900     0.49482E-02 
  68589.3522     0.50257E-02 
  68621.6143     0.51041E-02 
  68653.8765     0.51835E-02 
  68686.1386     0.52638E-02 
  68718.4008     0.53451E-02 
  68750.6630     0.54274E-02 
  68782.9251     0.55106E-02 
  68815.1873     0.55948E-02 
  68847.4494     0.56800E-02 
  68879.7116     0.57662E-02 
  68911.9738     0.58534E-02 
  68944.2359     0.59416E-02 
  68976.4981     0.60308E-02 
  69008.7602     0.61211E-02 
  69041.0224     0.62124E-02 
  69073.2846     0.63047E-02 
  69105.5467     0.63981E-02 
  69137.8089     0.64926E-02 
  69170.0710     0.65881E-02 
  69202.3332     0.66847E-02 
  69234.5954     0.67824E-02 
  69266.8575     0.68811E-02 
  69299.1197     0.69810E-02 
  69331.3818     0.70820E-02 
  69363.6440     0.71840E-02 
  69395.9062     0.72872E-02 
  69428.1683     0.73916E-02 
  69460.4305     0.74970E-02 
  69492.6926     0.76036E-02 
  69524.9548     0.77114E-02 
  69557.2170     0.78203E-02 
  69589.4791     0.79304E-02 
  69621.7413     0.80416E-02 
  69654.0034     0.81540E-02 
  69686.2656     0.82676E-02 
  69718.5278     0.83825E-02 
  69750.7899     0.84985E-02 
  69783.0521     0.86157E-02 
  69815.3142     0.87341E-02 
  69847.5764     0.88538E-02 
  69879.8386     0.89747E-02 
  69912.1007     0.90968E-02 
  69944.3629     0.92202E-02 
  69976.6250     0.93448E-02 
  70008.8872     0.94707E-02 
  70041.1494     0.95979E-02 
  70073.4115     0.97263E-02 
  70105.6737     0.98560E-02 
  70137.9358     0.99870E-02 
  70170.1980     0.10119E-01 
  70202.4602     0.10253E-01 
  70234.7223     0.10388E-01 
  70266.9845     0.10524E-01 
  70299.2466     0.10662E-01 
  70331.5088     0.10800E-01 
  70363.7710     0.10941E-01 
  70396.0331     0.11082E-01 
  70428.2953     0.11225E-01 
  70460.5574     0.11369E-01 
  70492.8196     0.11515E-01 
  70525.0818     0.11662E-01 
  70557.3439     0.11810E-01 
  70589.6061     0.11960E-01 
  70621.8682     0.12111E-01 
  70654.1304     0.12264E-01 
  70686.3926     0.12418E-01 
  70718.6547     0.12573E-01 
  70750.9169     0.12730E-01 
  70783.1790     0.12888E-01 
  70815.4412     0.13047E-01 
  70847.7034     0.13208E-01 
  70879.9655     0.13371E-01 
  70912.2277     0.13534E-01 
  70944.4898     0.13700E-01 
  70976.7520     0.13867E-01 
  71009.0142     0.14035E-01 
  71041.2763     0.14204E-01 
  71073.5385     0.14376E-01 
  71105.8006     0.14548E-01 
  71138.0628     0.14722E-01 
  71170.3250     0.14898E-01 
  71202.5871     0.15075E-01 
  71234.8493     0.15253E-01 
  71267.1114     0.15433E-01 
  71299.3736     0.15615E-01 
  71331.6358     0.15798E-01 
  71363.8979     0.15982E-01 
  71396.1601     0.16168E-01 
  71428.4222     0.16356E-01 
  71460.6844     0.16545E-01 
  71492.9466     0.16736E-01 
  71525.2087     0.16928E-01 
  71557.4709     0.17121E-01 
  71589.7330     0.17316E-01 
  71621.9952     0.17513E-01 
  71654.2574     0.17711E-01 
  71686.5195     0.17911E-01 
  71718.7817     0.18113E-01 
  71751.0438     0.18315E-01 
  71783.3060     0.18520E-01 
  71815.5682     0.18726E-01 
  71847.8303     0.18933E-01 
  71880.0925     0.19142E-01 
  71912.3546     0.19353E-01 
  71944.6168     0.19565E-01 
  71976.8790     0.19779E-01 
  72009.1411     0.19995E-01 
  72041.4033     0.20211E-01 
  72073.6654     0.20430E-01 
  72105.9276     0.20650E-01 
  72138.1898     0.20872E-01 
  72170.4519     0.21095E-01 
  72202.7141     0.21320E-01 
  72234.9762     0.21546E-01 
  72267.2384     0.21774E-01 
  72299.5006     0.22004E-01 
  72331.7627     0.22235E-01 
  72364.0249     0.22467E-01 
  72396.2870     0.22702E-01 
  72428.5492     0.22938E-01 
  72460.8114     0.23175E-01 
  72493.0735     0.23414E-01 
  72525.3357     0.23655E-01 
  72557.5978     0.23897E-01 
  72589.8600     0.24141E-01 
