  32262.1600     0.41138E-03 
  32294.4222     0.41461E-03 
  32326.6843     0.41785E-03 
  32358.9465     0.42110E-03 
  32391.2086     0.42437E-03 
  32423.4708     0.42765E-03 
  32455.7330     0.43095E-03 
  32487.9951     0.43426E-03 
  32520.2573     0.43758E-03 
  32552.5194     0.44092E-03 
  32584.7816     0.44427E-03 
  32617.0438     0.44764E-03 
  32649.3059     0.45102E-03 
  32681.5681     0.45441E-03 
  32713.8302     0.45782E-03 
  32746.0924     0.46124E-03 
  32778.3546     0.46468E-03 
  32810.6167     0.46813E-03 
  32842.8789     0.47159E-03 
  32875.1410     0.47506E-03 
  32907.4032     0.47855E-03 
  32939.6654     0.48206E-03 
  32971.9275     0.48557E-03 
  33004.1897     0.48910E-03 
  33036.4518     0.49264E-03 
  33068.7140     0.49620E-03 
  33100.9762     0.49977E-03 
  33133.2383     0.50335E-03 
  33165.5005     0.50694E-03 
  33197.7626     0.51055E-03 
  33230.0248     0.51417E-03 
  33262.2870     0.51780E-03 
  33294.5491     0.52145E-03 
  33326.8113     0.52511E-03 
  33359.0734     0.52878E-03 
  33391.3356     0.53246E-03 
  33423.5978     0.53616E-03 
  33455.8599     0.53986E-03 
  33488.1221     0.54359E-03 
  33520.3842     0.54732E-03 
  33552.6464     0.55106E-03 
  33584.9086     0.55482E-03 
  33617.1707     0.55859E-03 
  33649.4329     0.56237E-03 
  33681.6950     0.56616E-03 
  33713.9572     0.56996E-03 
  33746.2194     0.57378E-03 
  33778.4815     0.57761E-03 
  33810.7437     0.58144E-03 
  33843.0058     0.58529E-03 
  33875.2680     0.58916E-03 
  33907.5302     0.59303E-03 
  33939.7923     0.59691E-03 
  33972.0545     0.60081E-03 
  34004.3166     0.60471E-03 
  34036.5788     0.60863E-03 
  34068.8410     0.61255E-03 
  34101.1031     0.61649E-03 
  34133.3653     0.62044E-03 
  34165.6274     0.62440E-03 
  34197.8896     0.62837E-03 
  34230.1518     0.63235E-03 
  34262.4139     0.63634E-03 
  34294.6761     0.64034E-03 
  34326.9382     0.64434E-03 
  34359.2004     0.64836E-03 
  34391.4626     0.65239E-03 
  34423.7247     0.65643E-03 
  34455.9869     0.66048E-03 
  34488.2490     0.66454E-03 
  34520.5112     0.66860E-03 
  34552.7734     0.67268E-03 
  34585.0355     0.67676E-03 
  34617.2977     0.68086E-03 
  34649.5598     0.68496E-03 
  34681.8220     0.68907E-03 
  34714.0842     0.69319E-03 
  34746.3463     0.69732E-03 
  34778.6085     0.70146E-03 
  34810.8706     0.70561E-03 
  34843.1328     0.70976E-03 
  34875.3950     0.71392E-03 
  34907.6571     0.71809E-03 
  34939.9193     0.72227E-03 
  34972.1814     0.72646E-03 
  35004.4436     0.73065E-03 
  35036.7058     0.73485E-03 
  35068.9679     0.73906E-03 
  35101.2301     0.74327E-03 
  35133.4922     0.74750E-03 
  35165.7544     0.75172E-03 
  35198.0166     0.75596E-03 
  35230.2787     0.76020E-03 
  35262.5409     0.76445E-03 
  35294.8030     0.76871E-03 
  35327.0652     0.77297E-03 
  35359.3274     0.77724E-03 
  35391.5895     0.78152E-03 
  35423.8517     0.78580E-03 
  35456.1138     0.79008E-03 
  35488.3760     0.79438E-03 
  35520.6382     0.79867E-03 
  35552.9003     0.80298E-03 
  35585.1625     0.80729E-03 
  35617.4246     0.81160E-03 
  35649.6868     0.81592E-03 
  35681.9490     0.82024E-03 
  35714.2111     0.82457E-03 
  35746.4733     0.82890E-03 
  35778.7354     0.83324E-03 
  35810.9976     0.83758E-03 
  35843.2598     0.84193E-03 
  35875.5219     0.84628E-03 
  35907.7841     0.85064E-03 
  35940.0462     0.85499E-03 
  35972.3084     0.85936E-03 
  36004.5706     0.86372E-03 
  36036.8327     0.86809E-03 
  36069.0949     0.87246E-03 
  36101.3570     0.87684E-03 
  36133.6192     0.88121E-03 
  36165.8814     0.88559E-03 
  36198.1435     0.88998E-03 
  36230.4057     0.89436E-03 
  36262.6678     0.89875E-03 
  36294.9300     0.90314E-03 
  36327.1922     0.90753E-03 
  36359.4543     0.91193E-03 
  36391.7165     0.91632E-03 
  36423.9786     0.92072E-03 
  36456.2408     0.92512E-03 
  36488.5030     0.92952E-03 
  36520.7651     0.93392E-03 
  36553.0273     0.93832E-03 
  36585.2894     0.94272E-03 
  36617.5516     0.94713E-03 
  36649.8138     0.95153E-03 
  36682.0759     0.95594E-03 
  36714.3381     0.96034E-03 
  36746.6002     0.96475E-03 
  36778.8624     0.96915E-03 
  36811.1246     0.97356E-03 
  36843.3867     0.97796E-03 
  36875.6489     0.98236E-03 
  36907.9110     0.98677E-03 
  36940.1732     0.99117E-03 
  36972.4354     0.99557E-03 
  37004.6975     0.99997E-03 
  37036.9597     0.10044E-02 
  37069.2218     0.10088E-02 
  37101.4840     0.10132E-02 
  37133.7462     0.10175E-02 
  37166.0083     0.10219E-02 
  37198.2705     0.10263E-02 
  37230.5326     0.10307E-02 
  37262.7948     0.10351E-02 
  37295.0570     0.10395E-02 
  37327.3191     0.10439E-02 
  37359.5813     0.10482E-02 
  37391.8434     0.10526E-02 
  37424.1056     0.10570E-02 
  37456.3678     0.10613E-02 
  37488.6299     0.10657E-02 
  37520.8921     0.10701E-02 
  37553.1542     0.10744E-02 
  37585.4164     0.10788E-02 
  37617.6786     0.10831E-02 
  37649.9407     0.10875E-02 
  37682.2029     0.10918E-02 
  37714.4650     0.10961E-02 
  37746.7272     0.11005E-02 
  37778.9894     0.11048E-02 
  37811.2515     0.11091E-02 
  37843.5137     0.11134E-02 
  37875.7758     0.11177E-02 
  37908.0380     0.11220E-02 
  37940.3002     0.11263E-02 
  37972.5623     0.11306E-02 
  38004.8245     0.11349E-02 
  38037.0866     0.11391E-02 
  38069.3488     0.11434E-02 
  38101.6110     0.11477E-02 
  38133.8731     0.11519E-02 
  38166.1353     0.11562E-02 
  38198.3974     0.11604E-02 
  38230.6596     0.11647E-02 
  38262.9218     0.11689E-02 
  38295.1839     0.11731E-02 
  38327.4461     0.11773E-02 
  38359.7082     0.11815E-02 
  38391.9704     0.11857E-02 
  38424.2326     0.11899E-02 
  38456.4947     0.11941E-02 
  38488.7569     0.11982E-02 
  38521.0190     0.12024E-02 
  38553.2812     0.12066E-02 
  38585.5434     0.12107E-02 
  38617.8055     0.12148E-02 
  38650.0677     0.12190E-02 
  38682.3298     0.12231E-02 
  38714.5920     0.12272E-02 
  38746.8542     0.12313E-02 
  38779.1163     0.12353E-02 
  38811.3785     0.12394E-02 
  38843.6406     0.12435E-02 
  38875.9028     0.12475E-02 
  38908.1650     0.12516E-02 
  38940.4271     0.12556E-02 
  38972.6893     0.12596E-02 
  39004.9514     0.12636E-02 
  39037.2136     0.12676E-02 
  39069.4758     0.12716E-02 
  39101.7379     0.12756E-02 
  39134.0001     0.12796E-02 
  39166.2622     0.12835E-02 
  39198.5244     0.12874E-02 
  39230.7866     0.12914E-02 
  39263.0487     0.12953E-02 
  39295.3109     0.12992E-02 
  39327.5730     0.13031E-02 
  39359.8352     0.13069E-02 
  39392.0974     0.13108E-02 
  39424.3595     0.13146E-02 
  39456.6217     0.13185E-02 
  39488.8838     0.13223E-02 
  39521.1460     0.13261E-02 
  39553.4082     0.13299E-02 
  39585.6703     0.13337E-02 
  39617.9325     0.13374E-02 
  39650.1946     0.13412E-02 
  39682.4568     0.13449E-02 
  39714.7190     0.13487E-02 
  39746.9811     0.13524E-02 
  39779.2433     0.13561E-02 
  39811.5054     0.13597E-02 
  39843.7676     0.13634E-02 
  39876.0298     0.13670E-02 
  39908.2919     0.13707E-02 
  39940.5541     0.13743E-02 
  39972.8162     0.13779E-02 
  40005.0784     0.13815E-02 
  40037.3406     0.13850E-02 
  40069.6027     0.13886E-02 
  40101.8649     0.13921E-02 
  40134.1270     0.13956E-02 
  40166.3892     0.13991E-02 
  40198.6514     0.14026E-02 
  40230.9135     0.14061E-02 
  40263.1757     0.14095E-02 
  40295.4378     0.14130E-02 
  40327.7000     0.14164E-02 
  40359.9622     0.14198E-02 
  40392.2243     0.14232E-02 
  40424.4865     0.14265E-02 
  40456.7486     0.14299E-02 
  40489.0108     0.14332E-02 
  40521.2730     0.14365E-02 
  40553.5351     0.14398E-02 
  40585.7973     0.14431E-02 
  40618.0594     0.14463E-02 
  40650.3216     0.14496E-02 
  40682.5838     0.14528E-02 
  40714.8459     0.14560E-02 
  40747.1081     0.14592E-02 
  40779.3702     0.14623E-02 
  40811.6324     0.14655E-02 
  40843.8946     0.14686E-02 
  40876.1567     0.14717E-02 
  40908.4189     0.14748E-02 
  40940.6810     0.14778E-02 
  40972.9432     0.14809E-02 
  41005.2054     0.14839E-02 
  41037.4675     0.14869E-02 
  41069.7297     0.14899E-02 
  41101.9918     0.14928E-02 
  41134.2540     0.14958E-02 
  41166.5162     0.14987E-02 
  41198.7783     0.15016E-02 
  41231.0405     0.15045E-02 
  41263.3026     0.15073E-02 
  41295.5648     0.15102E-02 
  41327.8270     0.15130E-02 
  41360.0891     0.15158E-02 
  41392.3513     0.15185E-02 
  41424.6134     0.15213E-02 
  41456.8756     0.15240E-02 
  41489.1378     0.15267E-02 
  41521.3999     0.15294E-02 
  41553.6621     0.15321E-02 
  41585.9242     0.15347E-02 
  41618.1864     0.15373E-02 
  41650.4486     0.15399E-02 
  41682.7107     0.15425E-02 
  41714.9729     0.15451E-02 
  41747.2350     0.15476E-02 
  41779.4972     0.15501E-02 
  41811.7594     0.15526E-02 
  41844.0215     0.15550E-02 
  41876.2837     0.15575E-02 
  41908.5458     0.15599E-02 
  41940.8080     0.15623E-02 
  41973.0702     0.15647E-02 
  42005.3323     0.15670E-02 
  42037.5945     0.15693E-02 
  42069.8566     0.15716E-02 
  42102.1188     0.15739E-02 
  42134.3810     0.15762E-02 
  42166.6431     0.15784E-02 
  42198.9053     0.15806E-02 
  42231.1674     0.15828E-02 
  42263.4296     0.15849E-02 
  42295.6918     0.15871E-02 
  42327.9539     0.15892E-02 
  42360.2161     0.15913E-02 
  42392.4782     0.15933E-02 
  42424.7404     0.15953E-02 
  42457.0026     0.15974E-02 
  42489.2647     0.15993E-02 
  42521.5269     0.16013E-02 
  42553.7890     0.16032E-02 
  42586.0512     0.16052E-02 
  42618.3134     0.16071E-02 
  42650.5755     0.16089E-02 
  42682.8377     0.16108E-02 
  42715.0998     0.16126E-02 
  42747.3620     0.16144E-02 
  42779.6242     0.16161E-02 
  42811.8863     0.16179E-02 
  42844.1485     0.16196E-02 
  42876.4106     0.16213E-02 
  42908.6728     0.16229E-02 
  42940.9350     0.16246E-02 
  42973.1971     0.16262E-02 
  43005.4593     0.16278E-02 
  43037.7214     0.16293E-02 
  43069.9836     0.16309E-02 
  43102.2458     0.16324E-02 
  43134.5079     0.16339E-02 
  43166.7701     0.16353E-02 
  43199.0322     0.16368E-02 
  43231.2944     0.16382E-02 
  43263.5566     0.16395E-02 
  43295.8187     0.16409E-02 
  43328.0809     0.16422E-02 
  43360.3430     0.16435E-02 
  43392.6052     0.16448E-02 
  43424.8674     0.16461E-02 
  43457.1295     0.16473E-02 
  43489.3917     0.16485E-02 
  43521.6538     0.16497E-02 
  43553.9160     0.16508E-02 
  43586.1782     0.16519E-02 
  43618.4403     0.16530E-02 
  43650.7025     0.16541E-02 
  43682.9646     0.16551E-02 
  43715.2268     0.16562E-02 
  43747.4890     0.16571E-02 
  43779.7511     0.16581E-02 
  43812.0133     0.16590E-02 
  43844.2754     0.16600E-02 
  43876.5376     0.16608E-02 
  43908.7998     0.16617E-02 
  43941.0619     0.16625E-02 
  43973.3241     0.16633E-02 
  44005.5862     0.16641E-02 
  44037.8484     0.16649E-02 
  44070.1106     0.16656E-02 
  44102.3727     0.16663E-02 
  44134.6349     0.16669E-02 
  44166.8970     0.16676E-02 
  44199.1592     0.16682E-02 
  44231.4214     0.16688E-02 
  44263.6835     0.16694E-02 
  44295.9457     0.16699E-02 
  44328.2078     0.16704E-02 
  44360.4700     0.16709E-02 
  44392.7322     0.16714E-02 
  44424.9943     0.16718E-02 
  44457.2565     0.16722E-02 
  44489.5186     0.16726E-02 
  44521.7808     0.16729E-02 
  44554.0430     0.16732E-02 
  44586.3051     0.16735E-02 
  44618.5673     0.16738E-02 
  44650.8294     0.16741E-02 
  44683.0916     0.16743E-02 
  44715.3538     0.16745E-02 
  44747.6159     0.16746E-02 
  44779.8781     0.16748E-02 
  44812.1402     0.16749E-02 
  44844.4024     0.16750E-02 
  44876.6646     0.16750E-02 
  44908.9267     0.16751E-02 
  44941.1889     0.16751E-02 
  44973.4510     0.16750E-02 
  45005.7132     0.16750E-02 
  45037.9754     0.16749E-02 
  45070.2375     0.16748E-02 
  45102.4997     0.16747E-02 
  45134.7618     0.16745E-02 
  45167.0240     0.16744E-02 
  45199.2862     0.16741E-02 
  45231.5483     0.16739E-02 
  45263.8105     0.16737E-02 
  45296.0726     0.16734E-02 
  45328.3348     0.16731E-02 
  45360.5970     0.16727E-02 
  45392.8591     0.16723E-02 
  45425.1213     0.16720E-02 
  45457.3834     0.16715E-02 
  45489.6456     0.16711E-02 
  45521.9078     0.16706E-02 
  45554.1699     0.16701E-02 
  45586.4321     0.16696E-02 
  45618.6942     0.16691E-02 
  45650.9564     0.16685E-02 
  45683.2186     0.16679E-02 
  45715.4807     0.16673E-02 
  45747.7429     0.16666E-02 
  45780.0050     0.16659E-02 
  45812.2672     0.16652E-02 
  45844.5294     0.16645E-02 
  45876.7915     0.16638E-02 
  45909.0537     0.16630E-02 
  45941.3158     0.16622E-02 
  45973.5780     0.16613E-02 
  46005.8402     0.16605E-02 
  46038.1023     0.16596E-02 
  46070.3645     0.16587E-02 
  46102.6266     0.16578E-02 
  46134.8888     0.16568E-02 
  46167.1510     0.16558E-02 
  46199.4131     0.16548E-02 
  46231.6753     0.16538E-02 
  46263.9374     0.16527E-02 
  46296.1996     0.16516E-02 
  46328.4618     0.16505E-02 
  46360.7239     0.16494E-02 
  46392.9861     0.16482E-02 
  46425.2482     0.16471E-02 
  46457.5104     0.16459E-02 
  46489.7726     0.16446E-02 
  46522.0347     0.16434E-02 
  46554.2969     0.16421E-02 
  46586.5590     0.16408E-02 
  46618.8212     0.16395E-02 
  46651.0834     0.16381E-02 
  46683.3455     0.16367E-02 
  46715.6077     0.16353E-02 
  46747.8698     0.16339E-02 
  46780.1320     0.16324E-02 
  46812.3942     0.16310E-02 
  46844.6563     0.16295E-02 
  46876.9185     0.16280E-02 
  46909.1806     0.16264E-02 
  46941.4428     0.16248E-02 
  46973.7050     0.16232E-02 
  47005.9671     0.16216E-02 
  47038.2293     0.16200E-02 
  47070.4914     0.16183E-02 
  47102.7536     0.16166E-02 
  47135.0158     0.16149E-02 
  47167.2779     0.16132E-02 
  47199.5401     0.16115E-02 
  47231.8022     0.16097E-02 
  47264.0644     0.16079E-02 
  47296.3266     0.16061E-02 
  47328.5887     0.16042E-02 
  47360.8509     0.16023E-02 
  47393.1130     0.16004E-02 
  47425.3752     0.15985E-02 
  47457.6374     0.15966E-02 
  47489.8995     0.15946E-02 
  47522.1617     0.15927E-02 
  47554.4238     0.15907E-02 
  47586.6860     0.15886E-02 
  47618.9482     0.15866E-02 
  47651.2103     0.15845E-02 
  47683.4725     0.15824E-02 
  47715.7346     0.15803E-02 
  47747.9968     0.15782E-02 
  47780.2590     0.15760E-02 
  47812.5211     0.15739E-02 
  47844.7833     0.15717E-02 
  47877.0454     0.15695E-02 
  47909.3076     0.15672E-02 
  47941.5698     0.15650E-02 
  47973.8319     0.15627E-02 
  48006.0941     0.15604E-02 
  48038.3562     0.15581E-02 
  48070.6184     0.15557E-02 
  48102.8806     0.15533E-02 
  48135.1427     0.15510E-02 
  48167.4049     0.15486E-02 
  48199.6670     0.15461E-02 
  48231.9292     0.15437E-02 
  48264.1914     0.15412E-02 
  48296.4535     0.15387E-02 
  48328.7157     0.15362E-02 
  48360.9778     0.15337E-02 
  48393.2400     0.15312E-02 
  48425.5022     0.15286E-02 
  48457.7643     0.15260E-02 
  48490.0265     0.15234E-02 
  48522.2886     0.15208E-02 
  48554.5508     0.15182E-02 
  48586.8130     0.15155E-02 
  48619.0751     0.15129E-02 
  48651.3373     0.15102E-02 
  48683.5994     0.15074E-02 
  48715.8616     0.15047E-02 
  48748.1238     0.15020E-02 
  48780.3859     0.14992E-02 
  48812.6481     0.14964E-02 
  48844.9102     0.14936E-02 
  48877.1724     0.14908E-02 
  48909.4346     0.14879E-02 
  48941.6967     0.14851E-02 
  48973.9589     0.14822E-02 
  49006.2210     0.14793E-02 
  49038.4832     0.14764E-02 
  49070.7454     0.14735E-02 
  49103.0075     0.14705E-02 
  49135.2697     0.14676E-02 
  49167.5318     0.14646E-02 
  49199.7940     0.14616E-02 
  49232.0562     0.14586E-02 
  49264.3183     0.14556E-02 
  49296.5805     0.14525E-02 
  49328.8426     0.14495E-02 
  49361.1048     0.14464E-02 
  49393.3670     0.14433E-02 
  49425.6291     0.14402E-02 
  49457.8913     0.14371E-02 
  49490.1534     0.14339E-02 
  49522.4156     0.14308E-02 
  49554.6778     0.14276E-02 
  49586.9399     0.14244E-02 
  49619.2021     0.14212E-02 
  49651.4642     0.14180E-02 
  49683.7264     0.14147E-02 
  49715.9886     0.14115E-02 
  49748.2507     0.14082E-02 
  49780.5129     0.14050E-02 
  49812.7750     0.14017E-02 
  49845.0372     0.13984E-02 
  49877.2994     0.13950E-02 
  49909.5615     0.13917E-02 
  49941.8237     0.13883E-02 
  49974.0858     0.13850E-02 
  50006.3480     0.13816E-02 
  50038.6102     0.13782E-02 
  50070.8723     0.13748E-02 
  50103.1345     0.13714E-02 
  50135.3966     0.13680E-02 
  50167.6588     0.13645E-02 
  50199.9210     0.13611E-02 
  50232.1831     0.13576E-02 
  50264.4453     0.13541E-02 
  50296.7074     0.13506E-02 
  50328.9696     0.13471E-02 
  50361.2318     0.13436E-02 
  50393.4939     0.13400E-02 
  50425.7561     0.13365E-02 
  50458.0182     0.13329E-02 
  50490.2804     0.13294E-02 
  50522.5426     0.13258E-02 
  50554.8047     0.13222E-02 
  50587.0669     0.13186E-02 
  50619.3290     0.13149E-02 
  50651.5912     0.13113E-02 
  50683.8534     0.13077E-02 
  50716.1155     0.13040E-02 
  50748.3777     0.13004E-02 
  50780.6398     0.12967E-02 
  50812.9020     0.12930E-02 
  50845.1642     0.12893E-02 
  50877.4263     0.12856E-02 
  50909.6885     0.12819E-02 
  50941.9506     0.12781E-02 
  50974.2128     0.12744E-02 
  51006.4750     0.12707E-02 
  51038.7371     0.12669E-02 
  51070.9993     0.12631E-02 
  51103.2614     0.12594E-02 
  51135.5236     0.12556E-02 
  51167.7858     0.12518E-02 
  51200.0479     0.12480E-02 
  51232.3101     0.12441E-02 
  51264.5722     0.12403E-02 
  51296.8344     0.12365E-02 
  51329.0966     0.12326E-02 
  51361.3587     0.12288E-02 
  51393.6209     0.12249E-02 
  51425.8830     0.12210E-02 
  51458.1452     0.12172E-02 
  51490.4074     0.12133E-02 
  51522.6695     0.12094E-02 
  51554.9317     0.12055E-02 
  51587.1938     0.12016E-02 
  51619.4560     0.11977E-02 
  51651.7182     0.11937E-02 
  51683.9803     0.11898E-02 
  51716.2425     0.11858E-02 
  51748.5046     0.11819E-02 
  51780.7668     0.11779E-02 
  51813.0290     0.11740E-02 
  51845.2911     0.11700E-02 
  51877.5533     0.11660E-02 
  51909.8154     0.11620E-02 
  51942.0776     0.11580E-02 
  51974.3398     0.11540E-02 
  52006.6019     0.11500E-02 
  52038.8641     0.11460E-02 
  52071.1262     0.11420E-02 
  52103.3884     0.11380E-02 
  52135.6506     0.11340E-02 
  52167.9127     0.11299E-02 
  52200.1749     0.11259E-02 
  52232.4370     0.11218E-02 
  52264.6992     0.11178E-02 
  52296.9614     0.11137E-02 
  52329.2235     0.11097E-02 
  52361.4857     0.11056E-02 
  52393.7478     0.11015E-02 
  52426.0100     0.10974E-02 
  52458.2722     0.10933E-02 
  52490.5343     0.10893E-02 
  52522.7965     0.10852E-02 
  52555.0586     0.10811E-02 
  52587.3208     0.10770E-02 
  52619.5830     0.10729E-02 
  52651.8451     0.10687E-02 
  52684.1073     0.10646E-02 
  52716.3694     0.10605E-02 
  52748.6316     0.10564E-02 
  52780.8938     0.10523E-02 
  52813.1559     0.10481E-02 
  52845.4181     0.10440E-02 
  52877.6802     0.10399E-02 
  52909.9424     0.10357E-02 
  52942.2046     0.10316E-02 
  52974.4667     0.10274E-02 
  53006.7289     0.10233E-02 
  53038.9910     0.10191E-02 
  53071.2532     0.10150E-02 
  53103.5154     0.10108E-02 
  53135.7775     0.10067E-02 
  53168.0397     0.10025E-02 
  53200.3018     0.99834E-03 
  53232.5640     0.99417E-03 
  53264.8262     0.99000E-03 
  53297.0883     0.98583E-03 
  53329.3505     0.98166E-03 
  53361.6126     0.97748E-03 
  53393.8748     0.97331E-03 
  53426.1370     0.96913E-03 
  53458.3991     0.96495E-03 
  53490.6613     0.96077E-03 
  53522.9234     0.95659E-03 
  53555.1856     0.95241E-03 
  53587.4478     0.94823E-03 
  53619.7099     0.94405E-03 
  53651.9721     0.93986E-03 
  53684.2342     0.93568E-03 
  53716.4964     0.93149E-03 
  53748.7586     0.92731E-03 
  53781.0207     0.92312E-03 
  53813.2829     0.91893E-03 
  53845.5450     0.91475E-03 
  53877.8072     0.91056E-03 
  53910.0694     0.90638E-03 
  53942.3315     0.90219E-03 
  53974.5937     0.89801E-03 
  54006.8558     0.89382E-03 
  54039.1180     0.88964E-03 
  54071.3802     0.88545E-03 
  54103.6423     0.88127E-03 
  54135.9045     0.87709E-03 
  54168.1666     0.87291E-03 
  54200.4288     0.86873E-03 
  54232.6910     0.86455E-03 
  54264.9531     0.86038E-03 
  54297.2153     0.85620E-03 
  54329.4774     0.85203E-03 
  54361.7396     0.84786E-03 
  54394.0018     0.84369E-03 
  54426.2639     0.83952E-03 
  54458.5261     0.83535E-03 
  54490.7882     0.83119E-03 
  54523.0504     0.82703E-03 
  54555.3126     0.82287E-03 
  54587.5747     0.81871E-03 
  54619.8369     0.81456E-03 
  54652.0990     0.81041E-03 
  54684.3612     0.80626E-03 
  54716.6234     0.80211E-03 
  54748.8855     0.79797E-03 
  54781.1477     0.79383E-03 
  54813.4098     0.78970E-03 
  54845.6720     0.78556E-03 
  54877.9342     0.78143E-03 
  54910.1963     0.77731E-03 
  54942.4585     0.77319E-03 
  54974.7206     0.76907E-03 
  55006.9828     0.76495E-03 
  55039.2450     0.76084E-03 
  55071.5071     0.75674E-03 
  55103.7693     0.75264E-03 
  55136.0314     0.74854E-03 
  55168.2936     0.74444E-03 
  55200.5558     0.74036E-03 
  55232.8179     0.73627E-03 
  55265.0801     0.73219E-03 
  55297.3422     0.72812E-03 
  55329.6044     0.72405E-03 
  55361.8666     0.71999E-03 
  55394.1287     0.71593E-03 
  55426.3909     0.71188E-03 
  55458.6530     0.70783E-03 
  55490.9152     0.70379E-03 
  55523.1774     0.69975E-03 
  55555.4395     0.69572E-03 
  55587.7017     0.69170E-03 
  55619.9638     0.68768E-03 
  55652.2260     0.68366E-03 
  55684.4882     0.67966E-03 
  55716.7503     0.67566E-03 
  55749.0125     0.67167E-03 
  55781.2746     0.66768E-03 
  55813.5368     0.66370E-03 
  55845.7990     0.65973E-03 
  55878.0611     0.65576E-03 
  55910.3233     0.65180E-03 
  55942.5854     0.64785E-03 
  55974.8476     0.64391E-03 
  56007.1098     0.63997E-03 
  56039.3719     0.63604E-03 
  56071.6341     0.63212E-03 
  56103.8962     0.62821E-03 
  56136.1584     0.62431E-03 
  56168.4206     0.62041E-03 
  56200.6827     0.61652E-03 
  56232.9449     0.61264E-03 
  56265.2070     0.60877E-03 
  56297.4692     0.60491E-03 
  56329.7314     0.60105E-03 
  56361.9935     0.59721E-03 
  56394.2557     0.59337E-03 
  56426.5178     0.58954E-03 
  56458.7800     0.58572E-03 
  56491.0422     0.58192E-03 
  56523.3043     0.57812E-03 
  56555.5665     0.57433E-03 
  56587.8286     0.57055E-03 
  56620.0908     0.56678E-03 
  56652.3530     0.56302E-03 
  56684.6151     0.55927E-03 
  56716.8773     0.55553E-03 
  56749.1394     0.55180E-03 
  56781.4016     0.54809E-03 
  56813.6638     0.54438E-03 
  56845.9259     0.54068E-03 
  56878.1881     0.53700E-03 
  56910.4502     0.53332E-03 
  56942.7124     0.52966E-03 
  56974.9746     0.52601E-03 
  57007.2367     0.52237E-03 
  57039.4989     0.51874E-03 
  57071.7610     0.51513E-03 
  57104.0232     0.51153E-03 
  57136.2854     0.50793E-03 
  57168.5475     0.50436E-03 
  57200.8097     0.50079E-03 
  57233.0718     0.49724E-03 
  57265.3340     0.49370E-03 
  57297.5962     0.49017E-03 
  57329.8583     0.48665E-03 
  57362.1205     0.48315E-03 
  57394.3826     0.47967E-03 
  57426.6448     0.47619E-03 
  57458.9070     0.47273E-03 
  57491.1691     0.46929E-03 
  57523.4313     0.46585E-03 
  57555.6934     0.46244E-03 
  57587.9556     0.45903E-03 
  57620.2178     0.45565E-03 
  57652.4799     0.45227E-03 
  57684.7421     0.44891E-03 
  57717.0042     0.44557E-03 
  57749.2664     0.44224E-03 
  57781.5286     0.43893E-03 
  57813.7907     0.43564E-03 
  57846.0529     0.43236E-03 
  57878.3150     0.42909E-03 
  57910.5772     0.42584E-03 
  57942.8394     0.42261E-03 
  57975.1015     0.41940E-03 
  58007.3637     0.41620E-03 
  58039.6258     0.41302E-03 
  58071.8880     0.40986E-03 
  58104.1502     0.40671E-03 
  58136.4123     0.40358E-03 
  58168.6745     0.40047E-03 
  58200.9366     0.39738E-03 
  58233.1988     0.39430E-03 
  58265.4610     0.39125E-03 
  58297.7231     0.38821E-03 
  58329.9853     0.38519E-03 
  58362.2474     0.38220E-03 
  58394.5096     0.37922E-03 
  58426.7718     0.37626E-03 
  58459.0339     0.37332E-03 
  58491.2961     0.37040E-03 
  58523.5582     0.36750E-03 
  58555.8204     0.36462E-03 
  58588.0826     0.36176E-03 
  58620.3447     0.35892E-03 
  58652.6069     0.35610E-03 
  58684.8690     0.35331E-03 
  58717.1312     0.35054E-03 
  58749.3934     0.34778E-03 
  58781.6555     0.34505E-03 
  58813.9177     0.34235E-03 
  58846.1798     0.33966E-03 
  58878.4420     0.33700E-03 
  58910.7042     0.33436E-03 
  58942.9663     0.33175E-03 
  58975.2285     0.32915E-03 
  59007.4906     0.32659E-03 
  59039.7528     0.32404E-03 
  59072.0150     0.32152E-03 
  59104.2771     0.31903E-03 
  59136.5393     0.31656E-03 
  59168.8014     0.31411E-03 
  59201.0636     0.31169E-03 
  59233.3258     0.30930E-03 
  59265.5879     0.30693E-03 
  59297.8501     0.30459E-03 
  59330.1122     0.30228E-03 
  59362.3744     0.29999E-03 
  59394.6366     0.29773E-03 
  59426.8987     0.29550E-03 
  59459.1609     0.29329E-03 
  59491.4230     0.29112E-03 
  59523.6852     0.28897E-03 
  59555.9474     0.28685E-03 
  59588.2095     0.28476E-03 
  59620.4717     0.28270E-03 
  59652.7338     0.28067E-03 
  59684.9960     0.27866E-03 
  59717.2582     0.27669E-03 
  59749.5203     0.27475E-03 
  59781.7825     0.27284E-03 
  59814.0446     0.27096E-03 
  59846.3068     0.26912E-03 
  59878.5690     0.26730E-03 
  59910.8311     0.26552E-03 
  59943.0933     0.26377E-03 
  59975.3554     0.26205E-03 
  60007.6176     0.26037E-03 
  60039.8798     0.25872E-03 
  60072.1419     0.25710E-03 
  60104.4041     0.25552E-03 
  60136.6662     0.25397E-03 
  60168.9284     0.25246E-03 
  60201.1906     0.25099E-03 
  60233.4527     0.24955E-03 
  60265.7149     0.24814E-03 
  60297.9770     0.24677E-03 
  60330.2392     0.24544E-03 
  60362.5014     0.24415E-03 
  60394.7635     0.24290E-03 
  60427.0257     0.24168E-03 
  60459.2878     0.24050E-03 
  60491.5500     0.23936E-03 
  60523.8122     0.23826E-03 
  60556.0743     0.23720E-03 
  60588.3365     0.23618E-03 
  60620.5986     0.23521E-03 
  60652.8608     0.23427E-03 
  60685.1230     0.23337E-03 
  60717.3851     0.23252E-03 
  60749.6473     0.23171E-03 
  60781.9094     0.23094E-03 
  60814.1716     0.23021E-03 
  60846.4338     0.22953E-03 
  60878.6959     0.22889E-03 
  60910.9581     0.22830E-03 
  60943.2202     0.22775E-03 
  60975.4824     0.22725E-03 
  61007.7446     0.22679E-03 
  61040.0067     0.22638E-03 
  61072.2689     0.22602E-03 
  61104.5310     0.22571E-03 
  61136.7932     0.22544E-03 
  61169.0554     0.22522E-03 
  61201.3175     0.22505E-03 
  61233.5797     0.22493E-03 
  61265.8418     0.22486E-03 
  61298.1040     0.22484E-03 
  61330.3662     0.22487E-03 
  61362.6283     0.22495E-03 
  61394.8905     0.22508E-03 
  61427.1526     0.22527E-03 
  61459.4148     0.22551E-03 
  61491.6770     0.22580E-03 
  61523.9391     0.22615E-03 
  61556.2013     0.22655E-03 
  61588.4634     0.22701E-03 
  61620.7256     0.22752E-03 
  61652.9878     0.22809E-03 
  61685.2499     0.22871E-03 
  61717.5121     0.22940E-03 
  61749.7742     0.23014E-03 
  61782.0364     0.23093E-03 
  61814.2986     0.23179E-03 
  61846.5607     0.23271E-03 
  61878.8229     0.23369E-03 
  61911.0850     0.23472E-03 
  61943.3472     0.23582E-03 
  61975.6094     0.23698E-03 
  62007.8715     0.23821E-03 
  62040.1337     0.23950E-03 
  62072.3958     0.24085E-03 
  62104.6580     0.24226E-03 
  62136.9202     0.24374E-03 
  62169.1823     0.24528E-03 
  62201.4445     0.24690E-03 
  62233.7066     0.24857E-03 
  62265.9688     0.25032E-03 
  62298.2310     0.25213E-03 
  62330.4931     0.25401E-03 
  62362.7553     0.25597E-03 
  62395.0174     0.25799E-03 
  62427.2796     0.26008E-03 
  62459.5418     0.26224E-03 
  62491.8039     0.26448E-03 
  62524.0661     0.26678E-03 
  62556.3282     0.26916E-03 
  62588.5904     0.27162E-03 
  62620.8526     0.27415E-03 
  62653.1147     0.27675E-03 
  62685.3769     0.27943E-03 
  62717.6390     0.28219E-03 
  62749.9012     0.28502E-03 
  62782.1634     0.28793E-03 
  62814.4255     0.29092E-03 
  62846.6877     0.29399E-03 
  62878.9498     0.29714E-03 
  62911.2120     0.30037E-03 
  62943.4742     0.30369E-03 
  62975.7363     0.30708E-03 
  63007.9985     0.31056E-03 
  63040.2606     0.31412E-03 
  63072.5228     0.31776E-03 
  63104.7850     0.32149E-03 
  63137.0471     0.32531E-03 
  63169.3093     0.32921E-03 
  63201.5714     0.33320E-03 
  63233.8336     0.33728E-03 
  63266.0958     0.34145E-03 
  63298.3579     0.34570E-03 
  63330.6201     0.35005E-03 
  63362.8822     0.35449E-03 
  63395.1444     0.35902E-03 
  63427.4066     0.36364E-03 
  63459.6687     0.36835E-03 
  63491.9309     0.37316E-03 
  63524.1930     0.37807E-03 
  63556.4552     0.38307E-03 
  63588.7174     0.38817E-03 
  63620.9795     0.39336E-03 
  63653.2417     0.39865E-03 
  63685.5038     0.40404E-03 
  63717.7660     0.40954E-03 
  63750.0282     0.41513E-03 
  63782.2903     0.42082E-03 
  63814.5525     0.42661E-03 
  63846.8146     0.43251E-03 
  63879.0768     0.43851E-03 
  63911.3390     0.44462E-03 
  63943.6011     0.45083E-03 
  63975.8633     0.45715E-03 
  64008.1254     0.46357E-03 
  64040.3876     0.47011E-03 
  64072.6498     0.47675E-03 
  64104.9119     0.48350E-03 
  64137.1741     0.49036E-03 
  64169.4362     0.49733E-03 
  64201.6984     0.50442E-03 
  64233.9606     0.51161E-03 
  64266.2227     0.51892E-03 
  64298.4849     0.52635E-03 
  64330.7470     0.53389E-03 
  64363.0092     0.54155E-03 
  64395.2714     0.54932E-03 
  64427.5335     0.55722E-03 
  64459.7957     0.56523E-03 
  64492.0578     0.57336E-03 
  64524.3200     0.58161E-03 
  64556.5822     0.58998E-03 
  64588.8443     0.59848E-03 
  64621.1065     0.60710E-03 
  64653.3686     0.61584E-03 
  64685.6308     0.62471E-03 
  64717.8930     0.63371E-03 
  64750.1551     0.64283E-03 
  64782.4173     0.65208E-03 
  64814.6794     0.66145E-03 
  64846.9416     0.67096E-03 
  64879.2038     0.68060E-03 
  64911.4659     0.69037E-03 
  64943.7281     0.70027E-03 
  64975.9902     0.71030E-03 
  65008.2524     0.72047E-03 
  65040.5146     0.73077E-03 
  65072.7767     0.74121E-03 
  65105.0389     0.75178E-03 
  65137.3010     0.76249E-03 
  65169.5632     0.77334E-03 
  65201.8254     0.78433E-03 
  65234.0875     0.79546E-03 
  65266.3497     0.80673E-03 
  65298.6118     0.81815E-03 
  65330.8740     0.82970E-03 
  65363.1362     0.84140E-03 
  65395.3983     0.85325E-03 
  65427.6605     0.86524E-03 
  65459.9226     0.87737E-03 
  65492.1848     0.88966E-03 
  65524.4470     0.90209E-03 
  65556.7091     0.91467E-03 
  65588.9713     0.92740E-03 
  65621.2334     0.94029E-03 
  65653.4956     0.95332E-03 
  65685.7578     0.96651E-03 
  65718.0199     0.97985E-03 
  65750.2821     0.99334E-03 
  65782.5442     0.10070E-02 
  65814.8064     0.10208E-02 
  65847.0686     0.10348E-02 
  65879.3307     0.10489E-02 
  65911.5929     0.10632E-02 
  65943.8550     0.10776E-02 
  65976.1172     0.10922E-02 
  66008.3794     0.11070E-02 
  66040.6415     0.11219E-02 
  66072.9037     0.11370E-02 
  66105.1658     0.11523E-02 
  66137.4280     0.11677E-02 
  66169.6902     0.11833E-02 
  66201.9523     0.11990E-02 
  66234.2145     0.12150E-02 
  66266.4766     0.12310E-02 
  66298.7388     0.12473E-02 
  66331.0010     0.12637E-02 
  66363.2631     0.12803E-02 
  66395.5253     0.12971E-02 
  66427.7874     0.13141E-02 
  66460.0496     0.13312E-02 
  66492.3118     0.13485E-02 
  66524.5739     0.13660E-02 
  66556.8361     0.13836E-02 
  66589.0982     0.14015E-02 
  66621.3604     0.14195E-02 
  66653.6226     0.14377E-02 
  66685.8847     0.14560E-02 
  66718.1469     0.14746E-02 
  66750.4090     0.14933E-02 
  66782.6712     0.15122E-02 
  66814.9334     0.15313E-02 
  66847.1955     0.15506E-02 
  66879.4577     0.15701E-02 
  66911.7198     0.15897E-02 
  66943.9820     0.16096E-02 
  66976.2442     0.16296E-02 
  67008.5063     0.16498E-02 
  67040.7685     0.16702E-02 
  67073.0306     0.16908E-02 
  67105.2928     0.17116E-02 
  67137.5550     0.17326E-02 
  67169.8171     0.17537E-02 
  67202.0793     0.17751E-02 
  67234.3414     0.17967E-02 
  67266.6036     0.18184E-02 
  67298.8658     0.18404E-02 
  67331.1279     0.18625E-02 
  67363.3901     0.18849E-02 
  67395.6522     0.19074E-02 
  67427.9144     0.19301E-02 
  67460.1766     0.19531E-02 
  67492.4387     0.19762E-02 
  67524.7009     0.19996E-02 
  67556.9630     0.20231E-02 
  67589.2252     0.20468E-02 
  67621.4874     0.20708E-02 
  67653.7495     0.20949E-02 
  67686.0117     0.21193E-02 
  67718.2738     0.21438E-02 
  67750.5360     0.21686E-02 
  67782.7982     0.21936E-02 
  67815.0603     0.22188E-02 
  67847.3225     0.22442E-02 
  67879.5846     0.22697E-02 
  67911.8468     0.22956E-02 
  67944.1090     0.23216E-02 
  67976.3711     0.23478E-02 
  68008.6333     0.23742E-02 
  68040.8954     0.24009E-02 
  68073.1576     0.24277E-02 
  68105.4198     0.24548E-02 
  68137.6819     0.24821E-02 
  68169.9441     0.25096E-02 
  68202.2062     0.25373E-02 
  68234.4684     0.25652E-02 
  68266.7306     0.25934E-02 
  68298.9927     0.26217E-02 
  68331.2549     0.26503E-02 
  68363.5170     0.26791E-02 
  68395.7792     0.27081E-02 
  68428.0414     0.27374E-02 
  68460.3035     0.27668E-02 
  68492.5657     0.27965E-02 
  68524.8278     0.28264E-02 
  68557.0900     0.28565E-02 
  68589.3522     0.28868E-02 
  68621.6143     0.29174E-02 
  68653.8765     0.29481E-02 
  68686.1386     0.29791E-02 
  68718.4008     0.30104E-02 
  68750.6630     0.30418E-02 
  68782.9251     0.30735E-02 
  68815.1873     0.31054E-02 
  68847.4494     0.31375E-02 
  68879.7116     0.31698E-02 
  68911.9738     0.32024E-02 
  68944.2359     0.32352E-02 
  68976.4981     0.32682E-02 
  69008.7602     0.33014E-02 
  69041.0224     0.33349E-02 
  69073.2846     0.33686E-02 
  69105.5467     0.34025E-02 
  69137.8089     0.34367E-02 
  69170.0710     0.34711E-02 
  69202.3332     0.35057E-02 
  69234.5954     0.35405E-02 
  69266.8575     0.35756E-02 
  69299.1197     0.36109E-02 
  69331.3818     0.36464E-02 
  69363.6440     0.36821E-02 
  69395.9062     0.37181E-02 
  69428.1683     0.37543E-02 
  69460.4305     0.37908E-02 
  69492.6926     0.38274E-02 
  69524.9548     0.38643E-02 
  69557.2170     0.39015E-02 
  69589.4791     0.39388E-02 
  69621.7413     0.39764E-02 
  69654.0034     0.40142E-02 
  69686.2656     0.40523E-02 
  69718.5278     0.40906E-02 
  69750.7899     0.41291E-02 
  69783.0521     0.41678E-02 
  69815.3142     0.42068E-02 
  69847.5764     0.42460E-02 
  69879.8386     0.42855E-02 
  69912.1007     0.43251E-02 
  69944.3629     0.43650E-02 
  69976.6250     0.44052E-02 
  70008.8872     0.44455E-02 
  70041.1494     0.44861E-02 
  70073.4115     0.45269E-02 
  70105.6737     0.45680E-02 
  70137.9358     0.46093E-02 
  70170.1980     0.46508E-02 
  70202.4602     0.46925E-02 
  70234.7223     0.47345E-02 
  70266.9845     0.47767E-02 
  70299.2466     0.48192E-02 
  70331.5088     0.48618E-02 
  70363.7710     0.49047E-02 
  70396.0331     0.49479E-02 
  70428.2953     0.49912E-02 
  70460.5574     0.50348E-02 
  70492.8196     0.50786E-02 
  70525.0818     0.51227E-02 
  70557.3439     0.51669E-02 
  70589.6061     0.52114E-02 
  70621.8682     0.52562E-02 
  70654.1304     0.53011E-02 
  70686.3926     0.53463E-02 
  70718.6547     0.53917E-02 
  70750.9169     0.54373E-02 
  70783.1790     0.54832E-02 
  70815.4412     0.55293E-02 
  70847.7034     0.55756E-02 
  70879.9655     0.56221E-02 
  70912.2277     0.56689E-02 
  70944.4898     0.57159E-02 
  70976.7520     0.57631E-02 
  71009.0142     0.58105E-02 
  71041.2763     0.58582E-02 
  71073.5385     0.59060E-02 
  71105.8006     0.59541E-02 
  71138.0628     0.60025E-02 
  71170.3250     0.60510E-02 
  71202.5871     0.60998E-02 
  71234.8493     0.61487E-02 
  71267.1114     0.61979E-02 
  71299.3736     0.62473E-02 
  71331.6358     0.62970E-02 
  71363.8979     0.63468E-02 
  71396.1601     0.63969E-02 
  71428.4222     0.64472E-02 
  71460.6844     0.64976E-02 
  71492.9466     0.65484E-02 
  71525.2087     0.65993E-02 
  71557.4709     0.66504E-02 
  71589.7330     0.67018E-02 
  71621.9952     0.67533E-02 
  71654.2574     0.68051E-02 
  71686.5195     0.68570E-02 
  71718.7817     0.69092E-02 
  71751.0438     0.69616E-02 
  71783.3060     0.70142E-02 
  71815.5682     0.70670E-02 
  71847.8303     0.71200E-02 
  71880.0925     0.71732E-02 
  71912.3546     0.72267E-02 
  71944.6168     0.72803E-02 
  71976.8790     0.73341E-02 
  72009.1411     0.73881E-02 
  72041.4033     0.74423E-02 
  72073.6654     0.74967E-02 
  72105.9276     0.75514E-02 
  72138.1898     0.76062E-02 
  72170.4519     0.76612E-02 
  72202.7141     0.77164E-02 
  72234.9762     0.77718E-02 
  72267.2384     0.78274E-02 
  72299.5006     0.78831E-02 
  72331.7627     0.79391E-02 
  72364.0249     0.79952E-02 
  72396.2870     0.80516E-02 
  72428.5492     0.81081E-02 
  72460.8114     0.81648E-02 
  72493.0735     0.82217E-02 
  72525.3357     0.82788E-02 
  72557.5978     0.83361E-02 
  72589.8600     0.83935E-02 
