  32262.1600     0.12541E+00 
  32294.4222     0.12643E+00 
  32326.6843     0.12745E+00 
  32358.9465     0.12849E+00 
  32391.2086     0.12952E+00 
  32423.4708     0.13056E+00 
  32455.7330     0.13161E+00 
  32487.9951     0.13266E+00 
  32520.2573     0.13372E+00 
  32552.5194     0.13478E+00 
  32584.7816     0.13585E+00 
  32617.0438     0.13692E+00 
  32649.3059     0.13800E+00 
  32681.5681     0.13908E+00 
  32713.8302     0.14017E+00 
  32746.0924     0.14126E+00 
  32778.3546     0.14236E+00 
  32810.6167     0.14346E+00 
  32842.8789     0.14457E+00 
  32875.1410     0.14568E+00 
  32907.4032     0.14680E+00 
  32939.6654     0.14792E+00 
  32971.9275     0.14905E+00 
  33004.1897     0.15019E+00 
  33036.4518     0.15132E+00 
  33068.7140     0.15247E+00 
  33100.9762     0.15362E+00 
  33133.2383     0.15477E+00 
  33165.5005     0.15593E+00 
  33197.7626     0.15709E+00 
  33230.0248     0.15826E+00 
  33262.2870     0.15943E+00 
  33294.5491     0.16061E+00 
  33326.8113     0.16179E+00 
  33359.0734     0.16298E+00 
  33391.3356     0.16417E+00 
  33423.5978     0.16537E+00 
  33455.8599     0.16657E+00 
  33488.1221     0.16778E+00 
  33520.3842     0.16899E+00 
  33552.6464     0.17021E+00 
  33584.9086     0.17143E+00 
  33617.1707     0.17266E+00 
  33649.4329     0.17389E+00 
  33681.6950     0.17512E+00 
  33713.9572     0.17636E+00 
  33746.2194     0.17761E+00 
  33778.4815     0.17886E+00 
  33810.7437     0.18011E+00 
  33843.0058     0.18137E+00 
  33875.2680     0.18263E+00 
  33907.5302     0.18390E+00 
  33939.7923     0.18517E+00 
  33972.0545     0.18645E+00 
  34004.3166     0.18773E+00 
  34036.5788     0.18902E+00 
  34068.8410     0.19031E+00 
  34101.1031     0.19161E+00 
  34133.3653     0.19291E+00 
  34165.6274     0.19421E+00 
  34197.8896     0.19552E+00 
  34230.1518     0.19683E+00 
  34262.4139     0.19815E+00 
  34294.6761     0.19947E+00 
  34326.9382     0.20079E+00 
  34359.2004     0.20212E+00 
  34391.4626     0.20346E+00 
  34423.7247     0.20480E+00 
  34455.9869     0.20614E+00 
  34488.2490     0.20749E+00 
  34520.5112     0.20884E+00 
  34552.7734     0.21019E+00 
  34585.0355     0.21155E+00 
  34617.2977     0.21291E+00 
  34649.5598     0.21428E+00 
  34681.8220     0.21565E+00 
  34714.0842     0.21703E+00 
  34746.3463     0.21840E+00 
  34778.6085     0.21979E+00 
  34810.8706     0.22117E+00 
  34843.1328     0.22256E+00 
  34875.3950     0.22396E+00 
  34907.6571     0.22536E+00 
  34939.9193     0.22676E+00 
  34972.1814     0.22816E+00 
  35004.4436     0.22957E+00 
  35036.7058     0.23098E+00 
  35068.9679     0.23240E+00 
  35101.2301     0.23382E+00 
  35133.4922     0.23524E+00 
  35165.7544     0.23667E+00 
  35198.0166     0.23810E+00 
  35230.2787     0.23953E+00 
  35262.5409     0.24097E+00 
  35294.8030     0.24241E+00 
  35327.0652     0.24386E+00 
  35359.3274     0.24530E+00 
  35391.5895     0.24675E+00 
  35423.8517     0.24821E+00 
  35456.1138     0.24966E+00 
  35488.3760     0.25112E+00 
  35520.6382     0.25259E+00 
  35552.9003     0.25405E+00 
  35585.1625     0.25552E+00 
  35617.4246     0.25699E+00 
  35649.6868     0.25847E+00 
  35681.9490     0.25994E+00 
  35714.2111     0.26143E+00 
  35746.4733     0.26291E+00 
  35778.7354     0.26439E+00 
  35810.9976     0.26588E+00 
  35843.2598     0.26738E+00 
  35875.5219     0.26887E+00 
  35907.7841     0.27037E+00 
  35940.0462     0.27187E+00 
  35972.3084     0.27337E+00 
  36004.5706     0.27487E+00 
  36036.8327     0.27638E+00 
  36069.0949     0.27789E+00 
  36101.3570     0.27940E+00 
  36133.6192     0.28091E+00 
  36165.8814     0.28243E+00 
  36198.1435     0.28395E+00 
  36230.4057     0.28547E+00 
  36262.6678     0.28699E+00 
  36294.9300     0.28852E+00 
  36327.1922     0.29004E+00 
  36359.4543     0.29157E+00 
  36391.7165     0.29310E+00 
  36423.9786     0.29463E+00 
  36456.2408     0.29617E+00 
  36488.5030     0.29770E+00 
  36520.7651     0.29924E+00 
  36553.0273     0.30078E+00 
  36585.2894     0.30232E+00 
  36617.5516     0.30387E+00 
  36649.8138     0.30541E+00 
  36682.0759     0.30696E+00 
  36714.3381     0.30850E+00 
  36746.6002     0.31005E+00 
  36778.8624     0.31160E+00 
  36811.1246     0.31315E+00 
  36843.3867     0.31471E+00 
  36875.6489     0.31626E+00 
  36907.9110     0.31782E+00 
  36940.1732     0.31937E+00 
  36972.4354     0.32093E+00 
  37004.6975     0.32249E+00 
  37036.9597     0.32405E+00 
  37069.2218     0.32561E+00 
  37101.4840     0.32717E+00 
  37133.7462     0.32873E+00 
  37166.0083     0.33029E+00 
  37198.2705     0.33185E+00 
  37230.5326     0.33342E+00 
  37262.7948     0.33498E+00 
  37295.0570     0.33655E+00 
  37327.3191     0.33811E+00 
  37359.5813     0.33968E+00 
  37391.8434     0.34124E+00 
  37424.1056     0.34281E+00 
  37456.3678     0.34438E+00 
  37488.6299     0.34594E+00 
  37520.8921     0.34751E+00 
  37553.1542     0.34908E+00 
  37585.4164     0.35064E+00 
  37617.6786     0.35221E+00 
  37649.9407     0.35378E+00 
  37682.2029     0.35535E+00 
  37714.4650     0.35691E+00 
  37746.7272     0.35848E+00 
  37778.9894     0.36004E+00 
  37811.2515     0.36161E+00 
  37843.5137     0.36318E+00 
  37875.7758     0.36474E+00 
  37908.0380     0.36630E+00 
  37940.3002     0.36787E+00 
  37972.5623     0.36943E+00 
  38004.8245     0.37099E+00 
  38037.0866     0.37255E+00 
  38069.3488     0.37412E+00 
  38101.6110     0.37568E+00 
  38133.8731     0.37723E+00 
  38166.1353     0.37879E+00 
  38198.3974     0.38035E+00 
  38230.6596     0.38190E+00 
  38262.9218     0.38346E+00 
  38295.1839     0.38501E+00 
  38327.4461     0.38656E+00 
  38359.7082     0.38811E+00 
  38391.9704     0.38966E+00 
  38424.2326     0.39121E+00 
  38456.4947     0.39276E+00 
  38488.7569     0.39430E+00 
  38521.0190     0.39585E+00 
  38553.2812     0.39739E+00 
  38585.5434     0.39893E+00 
  38617.8055     0.40047E+00 
  38650.0677     0.40200E+00 
  38682.3298     0.40354E+00 
  38714.5920     0.40507E+00 
  38746.8542     0.40660E+00 
  38779.1163     0.40812E+00 
  38811.3785     0.40965E+00 
  38843.6406     0.41117E+00 
  38875.9028     0.41270E+00 
  38908.1650     0.41421E+00 
  38940.4271     0.41573E+00 
  38972.6893     0.41724E+00 
  39004.9514     0.41876E+00 
  39037.2136     0.42026E+00 
  39069.4758     0.42177E+00 
  39101.7379     0.42327E+00 
  39134.0001     0.42477E+00 
  39166.2622     0.42627E+00 
  39198.5244     0.42777E+00 
  39230.7866     0.42926E+00 
  39263.0487     0.43075E+00 
  39295.3109     0.43223E+00 
  39327.5730     0.43372E+00 
  39359.8352     0.43520E+00 
  39392.0974     0.43667E+00 
  39424.3595     0.43815E+00 
  39456.6217     0.43962E+00 
  39488.8838     0.44108E+00 
  39521.1460     0.44255E+00 
  39553.4082     0.44401E+00 
  39585.6703     0.44546E+00 
  39617.9325     0.44691E+00 
  39650.1946     0.44836E+00 
  39682.4568     0.44981E+00 
  39714.7190     0.45125E+00 
  39746.9811     0.45268E+00 
  39779.2433     0.45412E+00 
  39811.5054     0.45555E+00 
  39843.7676     0.45697E+00 
  39876.0298     0.45839E+00 
  39908.2919     0.45981E+00 
  39940.5541     0.46122E+00 
  39972.8162     0.46263E+00 
  40005.0784     0.46403E+00 
  40037.3406     0.46543E+00 
  40069.6027     0.46682E+00 
  40101.8649     0.46821E+00 
  40134.1270     0.46960E+00 
  40166.3892     0.47098E+00 
  40198.6514     0.47236E+00 
  40230.9135     0.47373E+00 
  40263.1757     0.47510E+00 
  40295.4378     0.47646E+00 
  40327.7000     0.47781E+00 
  40359.9622     0.47917E+00 
  40392.2243     0.48051E+00 
  40424.4865     0.48185E+00 
  40456.7486     0.48319E+00 
  40489.0108     0.48452E+00 
  40521.2730     0.48585E+00 
  40553.5351     0.48717E+00 
  40585.7973     0.48848E+00 
  40618.0594     0.48979E+00 
  40650.3216     0.49110E+00 
  40682.5838     0.49240E+00 
  40714.8459     0.49369E+00 
  40747.1081     0.49498E+00 
  40779.3702     0.49626E+00 
  40811.6324     0.49754E+00 
  40843.8946     0.49881E+00 
  40876.1567     0.50007E+00 
  40908.4189     0.50133E+00 
  40940.6810     0.50258E+00 
  40972.9432     0.50383E+00 
  41005.2054     0.50507E+00 
  41037.4675     0.50630E+00 
  41069.7297     0.50753E+00 
  41101.9918     0.50875E+00 
  41134.2540     0.50997E+00 
  41166.5162     0.51118E+00 
  41198.7783     0.51238E+00 
  41231.0405     0.51358E+00 
  41263.3026     0.51477E+00 
  41295.5648     0.51595E+00 
  41327.8270     0.51713E+00 
  41360.0891     0.51830E+00 
  41392.3513     0.51946E+00 
  41424.6134     0.52062E+00 
  41456.8756     0.52177E+00 
  41489.1378     0.52291E+00 
  41521.3999     0.52405E+00 
  41553.6621     0.52518E+00 
  41585.9242     0.52630E+00 
  41618.1864     0.52741E+00 
  41650.4486     0.52852E+00 
  41682.7107     0.52962E+00 
  41714.9729     0.53072E+00 
  41747.2350     0.53180E+00 
  41779.4972     0.53288E+00 
  41811.7594     0.53395E+00 
  41844.0215     0.53502E+00 
  41876.2837     0.53608E+00 
  41908.5458     0.53713E+00 
  41940.8080     0.53817E+00 
  41973.0702     0.53920E+00 
  42005.3323     0.54023E+00 
  42037.5945     0.54125E+00 
  42069.8566     0.54226E+00 
  42102.1188     0.54327E+00 
  42134.3810     0.54426E+00 
  42166.6431     0.54525E+00 
  42198.9053     0.54623E+00 
  42231.1674     0.54720E+00 
  42263.4296     0.54817E+00 
  42295.6918     0.54913E+00 
  42327.9539     0.55008E+00 
  42360.2161     0.55102E+00 
  42392.4782     0.55195E+00 
  42424.7404     0.55287E+00 
  42457.0026     0.55379E+00 
  42489.2647     0.55470E+00 
  42521.5269     0.55560E+00 
  42553.7890     0.55649E+00 
  42586.0512     0.55737E+00 
  42618.3134     0.55825E+00 
  42650.5755     0.55912E+00 
  42682.8377     0.55998E+00 
  42715.0998     0.56083E+00 
  42747.3620     0.56167E+00 
  42779.6242     0.56250E+00 
  42811.8863     0.56332E+00 
  42844.1485     0.56414E+00 
  42876.4106     0.56495E+00 
  42908.6728     0.56575E+00 
  42940.9350     0.56654E+00 
  42973.1971     0.56732E+00 
  43005.4593     0.56809E+00 
  43037.7214     0.56885E+00 
  43069.9836     0.56961E+00 
  43102.2458     0.57035E+00 
  43134.5079     0.57109E+00 
  43166.7701     0.57182E+00 
  43199.0322     0.57254E+00 
  43231.2944     0.57325E+00 
  43263.5566     0.57395E+00 
  43295.8187     0.57464E+00 
  43328.0809     0.57532E+00 
  43360.3430     0.57600E+00 
  43392.6052     0.57666E+00 
  43424.8674     0.57732E+00 
  43457.1295     0.57796E+00 
  43489.3917     0.57860E+00 
  43521.6538     0.57923E+00 
  43553.9160     0.57985E+00 
  43586.1782     0.58046E+00 
  43618.4403     0.58106E+00 
  43650.7025     0.58165E+00 
  43682.9646     0.58223E+00 
  43715.2268     0.58280E+00 
  43747.4890     0.58336E+00 
  43779.7511     0.58392E+00 
  43812.0133     0.58446E+00 
  43844.2754     0.58500E+00 
  43876.5376     0.58552E+00 
  43908.7998     0.58604E+00 
  43941.0619     0.58654E+00 
  43973.3241     0.58704E+00 
  44005.5862     0.58752E+00 
  44037.8484     0.58800E+00 
  44070.1106     0.58847E+00 
  44102.3727     0.58893E+00 
  44134.6349     0.58938E+00 
  44166.8970     0.58981E+00 
  44199.1592     0.59024E+00 
  44231.4214     0.59066E+00 
  44263.6835     0.59107E+00 
  44295.9457     0.59147E+00 
  44328.2078     0.59186E+00 
  44360.4700     0.59224E+00 
  44392.7322     0.59261E+00 
  44424.9943     0.59298E+00 
  44457.2565     0.59333E+00 
  44489.5186     0.59367E+00 
  44521.7808     0.59400E+00 
  44554.0430     0.59432E+00 
  44586.3051     0.59463E+00 
  44618.5673     0.59494E+00 
  44650.8294     0.59523E+00 
  44683.0916     0.59551E+00 
  44715.3538     0.59578E+00 
  44747.6159     0.59605E+00 
  44779.8781     0.59630E+00 
  44812.1402     0.59654E+00 
  44844.4024     0.59677E+00 
  44876.6646     0.59700E+00 
  44908.9267     0.59721E+00 
  44941.1889     0.59741E+00 
  44973.4510     0.59761E+00 
  45005.7132     0.59779E+00 
  45037.9754     0.59796E+00 
  45070.2375     0.59813E+00 
  45102.4997     0.59828E+00 
  45134.7618     0.59843E+00 
  45167.0240     0.59856E+00 
  45199.2862     0.59868E+00 
  45231.5483     0.59880E+00 
  45263.8105     0.59890E+00 
  45296.0726     0.59899E+00 
  45328.3348     0.59908E+00 
  45360.5970     0.59915E+00 
  45392.8591     0.59922E+00 
  45425.1213     0.59927E+00 
  45457.3834     0.59931E+00 
  45489.6456     0.59935E+00 
  45521.9078     0.59937E+00 
  45554.1699     0.59939E+00 
  45586.4321     0.59939E+00 
  45618.6942     0.59939E+00 
  45650.9564     0.59937E+00 
  45683.2186     0.59935E+00 
  45715.4807     0.59931E+00 
  45747.7429     0.59926E+00 
  45780.0050     0.59921E+00 
  45812.2672     0.59914E+00 
  45844.5294     0.59907E+00 
  45876.7915     0.59898E+00 
  45909.0537     0.59889E+00 
  45941.3158     0.59879E+00 
  45973.5780     0.59867E+00 
  46005.8402     0.59855E+00 
  46038.1023     0.59841E+00 
  46070.3645     0.59827E+00 
  46102.6266     0.59811E+00 
  46134.8888     0.59795E+00 
  46167.1510     0.59778E+00 
  46199.4131     0.59759E+00 
  46231.6753     0.59740E+00 
  46263.9374     0.59720E+00 
  46296.1996     0.59698E+00 
  46328.4618     0.59676E+00 
  46360.7239     0.59653E+00 
  46392.9861     0.59629E+00 
  46425.2482     0.59604E+00 
  46457.5104     0.59578E+00 
  46489.7726     0.59550E+00 
  46522.0347     0.59522E+00 
  46554.2969     0.59493E+00 
  46586.5590     0.59463E+00 
  46618.8212     0.59432E+00 
  46651.0834     0.59400E+00 
  46683.3455     0.59368E+00 
  46715.6077     0.59334E+00 
  46747.8698     0.59299E+00 
  46780.1320     0.59263E+00 
  46812.3942     0.59226E+00 
  46844.6563     0.59189E+00 
  46876.9185     0.59150E+00 
  46909.1806     0.59111E+00 
  46941.4428     0.59070E+00 
  46973.7050     0.59029E+00 
  47005.9671     0.58986E+00 
  47038.2293     0.58943E+00 
  47070.4914     0.58899E+00 
  47102.7536     0.58854E+00 
  47135.0158     0.58808E+00 
  47167.2779     0.58761E+00 
  47199.5401     0.58713E+00 
  47231.8022     0.58664E+00 
  47264.0644     0.58614E+00 
  47296.3266     0.58563E+00 
  47328.5887     0.58512E+00 
  47360.8509     0.58459E+00 
  47393.1130     0.58406E+00 
  47425.3752     0.58351E+00 
  47457.6374     0.58296E+00 
  47489.8995     0.58240E+00 
  47522.1617     0.58183E+00 
  47554.4238     0.58125E+00 
  47586.6860     0.58066E+00 
  47618.9482     0.58006E+00 
  47651.2103     0.57946E+00 
  47683.4725     0.57884E+00 
  47715.7346     0.57822E+00 
  47747.9968     0.57758E+00 
  47780.2590     0.57694E+00 
  47812.5211     0.57629E+00 
  47844.7833     0.57563E+00 
  47877.0454     0.57496E+00 
  47909.3076     0.57429E+00 
  47941.5698     0.57360E+00 
  47973.8319     0.57291E+00 
  48006.0941     0.57221E+00 
  48038.3562     0.57150E+00 
  48070.6184     0.57078E+00 
  48102.8806     0.57005E+00 
  48135.1427     0.56931E+00 
  48167.4049     0.56857E+00 
  48199.6670     0.56782E+00 
  48231.9292     0.56705E+00 
  48264.1914     0.56628E+00 
  48296.4535     0.56551E+00 
  48328.7157     0.56472E+00 
  48360.9778     0.56393E+00 
  48393.2400     0.56312E+00 
  48425.5022     0.56231E+00 
  48457.7643     0.56149E+00 
  48490.0265     0.56067E+00 
  48522.2886     0.55983E+00 
  48554.5508     0.55899E+00 
  48586.8130     0.55814E+00 
  48619.0751     0.55728E+00 
  48651.3373     0.55641E+00 
  48683.5994     0.55554E+00 
  48715.8616     0.55466E+00 
  48748.1238     0.55377E+00 
  48780.3859     0.55287E+00 
  48812.6481     0.55197E+00 
  48844.9102     0.55105E+00 
  48877.1724     0.55013E+00 
  48909.4346     0.54920E+00 
  48941.6967     0.54827E+00 
  48973.9589     0.54733E+00 
  49006.2210     0.54638E+00 
  49038.4832     0.54542E+00 
  49070.7454     0.54445E+00 
  49103.0075     0.54348E+00 
  49135.2697     0.54250E+00 
  49167.5318     0.54151E+00 
  49199.7940     0.54052E+00 
  49232.0562     0.53952E+00 
  49264.3183     0.53851E+00 
  49296.5805     0.53749E+00 
  49328.8426     0.53647E+00 
  49361.1048     0.53544E+00 
  49393.3670     0.53440E+00 
  49425.6291     0.53336E+00 
  49457.8913     0.53231E+00 
  49490.1534     0.53125E+00 
  49522.4156     0.53019E+00 
  49554.6778     0.52912E+00 
  49586.9399     0.52804E+00 
  49619.2021     0.52696E+00 
  49651.4642     0.52587E+00 
  49683.7264     0.52477E+00 
  49715.9886     0.52366E+00 
  49748.2507     0.52255E+00 
  49780.5129     0.52144E+00 
  49812.7750     0.52031E+00 
  49845.0372     0.51919E+00 
  49877.2994     0.51805E+00 
  49909.5615     0.51691E+00 
  49941.8237     0.51576E+00 
  49974.0858     0.51461E+00 
  50006.3480     0.51344E+00 
  50038.6102     0.51228E+00 
  50070.8723     0.51111E+00 
  50103.1345     0.50993E+00 
  50135.3966     0.50874E+00 
  50167.6588     0.50755E+00 
  50199.9210     0.50636E+00 
  50232.1831     0.50515E+00 
  50264.4453     0.50395E+00 
  50296.7074     0.50273E+00 
  50328.9696     0.50151E+00 
  50361.2318     0.50029E+00 
  50393.4939     0.49906E+00 
  50425.7561     0.49782E+00 
  50458.0182     0.49658E+00 
  50490.2804     0.49534E+00 
  50522.5426     0.49408E+00 
  50554.8047     0.49283E+00 
  50587.0669     0.49156E+00 
  50619.3290     0.49030E+00 
  50651.5912     0.48902E+00 
  50683.8534     0.48774E+00 
  50716.1155     0.48646E+00 
  50748.3777     0.48517E+00 
  50780.6398     0.48388E+00 
  50812.9020     0.48258E+00 
  50845.1642     0.48128E+00 
  50877.4263     0.47997E+00 
  50909.6885     0.47866E+00 
  50941.9506     0.47734E+00 
  50974.2128     0.47602E+00 
  51006.4750     0.47469E+00 
  51038.7371     0.47336E+00 
  51070.9993     0.47202E+00 
  51103.2614     0.47068E+00 
  51135.5236     0.46934E+00 
  51167.7858     0.46799E+00 
  51200.0479     0.46663E+00 
  51232.3101     0.46527E+00 
  51264.5722     0.46391E+00 
  51296.8344     0.46254E+00 
  51329.0966     0.46117E+00 
  51361.3587     0.45980E+00 
  51393.6209     0.45842E+00 
  51425.8830     0.45704E+00 
  51458.1452     0.45565E+00 
  51490.4074     0.45426E+00 
  51522.6695     0.45286E+00 
  51554.9317     0.45146E+00 
  51587.1938     0.45006E+00 
  51619.4560     0.44865E+00 
  51651.7182     0.44724E+00 
  51683.9803     0.44583E+00 
  51716.2425     0.44441E+00 
  51748.5046     0.44299E+00 
  51780.7668     0.44157E+00 
  51813.0290     0.44014E+00 
  51845.2911     0.43871E+00 
  51877.5533     0.43727E+00 
  51909.8154     0.43584E+00 
  51942.0776     0.43440E+00 
  51974.3398     0.43295E+00 
  52006.6019     0.43150E+00 
  52038.8641     0.43005E+00 
  52071.1262     0.42860E+00 
  52103.3884     0.42714E+00 
  52135.6506     0.42568E+00 
  52167.9127     0.42422E+00 
  52200.1749     0.42276E+00 
  52232.4370     0.42129E+00 
  52264.6992     0.41982E+00 
  52296.9614     0.41834E+00 
  52329.2235     0.41687E+00 
  52361.4857     0.41539E+00 
  52393.7478     0.41391E+00 
  52426.0100     0.41242E+00 
  52458.2722     0.41094E+00 
  52490.5343     0.40945E+00 
  52522.7965     0.40796E+00 
  52555.0586     0.40646E+00 
  52587.3208     0.40497E+00 
  52619.5830     0.40347E+00 
  52651.8451     0.40197E+00 
  52684.1073     0.40047E+00 
  52716.3694     0.39896E+00 
  52748.6316     0.39746E+00 
  52780.8938     0.39595E+00 
  52813.1559     0.39444E+00 
  52845.4181     0.39293E+00 
  52877.6802     0.39141E+00 
  52909.9424     0.38990E+00 
  52942.2046     0.38838E+00 
  52974.4667     0.38686E+00 
  53006.7289     0.38534E+00 
  53038.9910     0.38382E+00 
  53071.2532     0.38230E+00 
  53103.5154     0.38077E+00 
  53135.7775     0.37924E+00 
  53168.0397     0.37772E+00 
  53200.3018     0.37619E+00 
  53232.5640     0.37466E+00 
  53264.8262     0.37312E+00 
  53297.0883     0.37159E+00 
  53329.3505     0.37006E+00 
  53361.6126     0.36852E+00 
  53393.8748     0.36698E+00 
  53426.1370     0.36545E+00 
  53458.3991     0.36391E+00 
  53490.6613     0.36237E+00 
  53522.9234     0.36083E+00 
  53555.1856     0.35929E+00 
  53587.4478     0.35775E+00 
  53619.7099     0.35621E+00 
  53651.9721     0.35466E+00 
  53684.2342     0.35312E+00 
  53716.4964     0.35157E+00 
  53748.7586     0.35003E+00 
  53781.0207     0.34848E+00 
  53813.2829     0.34694E+00 
  53845.5450     0.34539E+00 
  53877.8072     0.34385E+00 
  53910.0694     0.34230E+00 
  53942.3315     0.34075E+00 
  53974.5937     0.33921E+00 
  54006.8558     0.33766E+00 
  54039.1180     0.33611E+00 
  54071.3802     0.33457E+00 
  54103.6423     0.33302E+00 
  54135.9045     0.33147E+00 
  54168.1666     0.32993E+00 
  54200.4288     0.32838E+00 
  54232.6910     0.32683E+00 
  54264.9531     0.32529E+00 
  54297.2153     0.32374E+00 
  54329.4774     0.32219E+00 
  54361.7396     0.32065E+00 
  54394.0018     0.31910E+00 
  54426.2639     0.31756E+00 
  54458.5261     0.31602E+00 
  54490.7882     0.31447E+00 
  54523.0504     0.31293E+00 
  54555.3126     0.31139E+00 
  54587.5747     0.30985E+00 
  54619.8369     0.30831E+00 
  54652.0990     0.30677E+00 
  54684.3612     0.30523E+00 
  54716.6234     0.30369E+00 
  54748.8855     0.30216E+00 
  54781.1477     0.30062E+00 
  54813.4098     0.29909E+00 
  54845.6720     0.29755E+00 
  54877.9342     0.29602E+00 
  54910.1963     0.29449E+00 
  54942.4585     0.29296E+00 
  54974.7206     0.29143E+00 
  55006.9828     0.28990E+00 
  55039.2450     0.28838E+00 
  55071.5071     0.28686E+00 
  55103.7693     0.28533E+00 
  55136.0314     0.28381E+00 
  55168.2936     0.28229E+00 
  55200.5558     0.28077E+00 
  55232.8179     0.27926E+00 
  55265.0801     0.27774E+00 
  55297.3422     0.27623E+00 
  55329.6044     0.27472E+00 
  55361.8666     0.27321E+00 
  55394.1287     0.27170E+00 
  55426.3909     0.27020E+00 
  55458.6530     0.26870E+00 
  55490.9152     0.26720E+00 
  55523.1774     0.26570E+00 
  55555.4395     0.26420E+00 
  55587.7017     0.26271E+00 
  55619.9638     0.26122E+00 
  55652.2260     0.25973E+00 
  55684.4882     0.25824E+00 
  55716.7503     0.25675E+00 
  55749.0125     0.25527E+00 
  55781.2746     0.25379E+00 
  55813.5368     0.25232E+00 
  55845.7990     0.25084E+00 
  55878.0611     0.24937E+00 
  55910.3233     0.24790E+00 
  55942.5854     0.24643E+00 
  55974.8476     0.24497E+00 
  56007.1098     0.24351E+00 
  56039.3719     0.24205E+00 
  56071.6341     0.24060E+00 
  56103.8962     0.23915E+00 
  56136.1584     0.23770E+00 
  56168.4206     0.23625E+00 
  56200.6827     0.23481E+00 
  56232.9449     0.23337E+00 
  56265.2070     0.23194E+00 
  56297.4692     0.23050E+00 
  56329.7314     0.22907E+00 
  56361.9935     0.22765E+00 
  56394.2557     0.22623E+00 
  56426.5178     0.22481E+00 
  56458.7800     0.22339E+00 
  56491.0422     0.22198E+00 
  56523.3043     0.22058E+00 
  56555.5665     0.21917E+00 
  56587.8286     0.21777E+00 
  56620.0908     0.21638E+00 
  56652.3530     0.21499E+00 
  56684.6151     0.21360E+00 
  56716.8773     0.21221E+00 
  56749.1394     0.21083E+00 
  56781.4016     0.20946E+00 
  56813.6638     0.20809E+00 
  56845.9259     0.20672E+00 
  56878.1881     0.20536E+00 
  56910.4502     0.20400E+00 
  56942.7124     0.20264E+00 
  56974.9746     0.20129E+00 
  57007.2367     0.19995E+00 
  57039.4989     0.19861E+00 
  57071.7610     0.19727E+00 
  57104.0232     0.19594E+00 
  57136.2854     0.19461E+00 
  57168.5475     0.19329E+00 
  57200.8097     0.19198E+00 
  57233.0718     0.19066E+00 
  57265.3340     0.18936E+00 
  57297.5962     0.18805E+00 
  57329.8583     0.18676E+00 
  57362.1205     0.18547E+00 
  57394.3826     0.18418E+00 
  57426.6448     0.18290E+00 
  57458.9070     0.18162E+00 
  57491.1691     0.18035E+00 
  57523.4313     0.17909E+00 
  57555.6934     0.17783E+00 
  57587.9556     0.17657E+00 
  57620.2178     0.17533E+00 
  57652.4799     0.17408E+00 
  57684.7421     0.17285E+00 
  57717.0042     0.17162E+00 
  57749.2664     0.17039E+00 
  57781.5286     0.16917E+00 
  57813.7907     0.16796E+00 
  57846.0529     0.16675E+00 
  57878.3150     0.16555E+00 
  57910.5772     0.16436E+00 
  57942.8394     0.16317E+00 
  57975.1015     0.16199E+00 
  58007.3637     0.16081E+00 
  58039.6258     0.15964E+00 
  58071.8880     0.15848E+00 
  58104.1502     0.15732E+00 
  58136.4123     0.15617E+00 
  58168.6745     0.15503E+00 
  58200.9366     0.15390E+00 
  58233.1988     0.15277E+00 
  58265.4610     0.15164E+00 
  58297.7231     0.15053E+00 
  58329.9853     0.14942E+00 
  58362.2474     0.14832E+00 
  58394.5096     0.14723E+00 
  58426.7718     0.14614E+00 
  58459.0339     0.14506E+00 
  58491.2961     0.14399E+00 
  58523.5582     0.14293E+00 
  58555.8204     0.14187E+00 
  58588.0826     0.14082E+00 
  58620.3447     0.13978E+00 
  58652.6069     0.13875E+00 
  58684.8690     0.13773E+00 
  58717.1312     0.13671E+00 
  58749.3934     0.13570E+00 
  58781.6555     0.13470E+00 
  58813.9177     0.13371E+00 
  58846.1798     0.13272E+00 
  58878.4420     0.13175E+00 
  58910.7042     0.13078E+00 
  58942.9663     0.12982E+00 
  58975.2285     0.12887E+00 
  59007.4906     0.12793E+00 
  59039.7528     0.12699E+00 
  59072.0150     0.12607E+00 
  59104.2771     0.12516E+00 
  59136.5393     0.12425E+00 
  59168.8014     0.12335E+00 
  59201.0636     0.12246E+00 
  59233.3258     0.12159E+00 
  59265.5879     0.12072E+00 
  59297.8501     0.11986E+00 
  59330.1122     0.11901E+00 
  59362.3744     0.11817E+00 
  59394.6366     0.11734E+00 
  59426.8987     0.11652E+00 
  59459.1609     0.11570E+00 
  59491.4230     0.11490E+00 
  59523.6852     0.11411E+00 
  59555.9474     0.11333E+00 
  59588.2095     0.11256E+00 
  59620.4717     0.11180E+00 
  59652.7338     0.11105E+00 
  59684.9960     0.11031E+00 
  59717.2582     0.10958E+00 
  59749.5203     0.10886E+00 
  59781.7825     0.10816E+00 
  59814.0446     0.10746E+00 
  59846.3068     0.10678E+00 
  59878.5690     0.10610E+00 
  59910.8311     0.10544E+00 
  59943.0933     0.10479E+00 
  59975.3554     0.10415E+00 
  60007.6176     0.10352E+00 
  60039.8798     0.10290E+00 
  60072.1419     0.10230E+00 
  60104.4041     0.10171E+00 
  60136.6662     0.10113E+00 
  60168.9284     0.10056E+00 
  60201.1906     0.99999E-01 
  60233.4527     0.99455E-01 
  60265.7149     0.98923E-01 
  60297.9770     0.98403E-01 
  60330.2392     0.97896E-01 
  60362.5014     0.97402E-01 
  60394.7635     0.96920E-01 
  60427.0257     0.96452E-01 
  60459.2878     0.95997E-01 
  60491.5500     0.95555E-01 
  60523.8122     0.95126E-01 
  60556.0743     0.94710E-01 
  60588.3365     0.94308E-01 
  60620.5986     0.93920E-01 
  60652.8608     0.93546E-01 
  60685.1230     0.93185E-01 
  60717.3851     0.92839E-01 
  60749.6473     0.92506E-01 
  60781.9094     0.92188E-01 
  60814.1716     0.91884E-01 
  60846.4338     0.91595E-01 
  60878.6959     0.91321E-01 
  60910.9581     0.91061E-01 
  60943.2202     0.90816E-01 
  60975.4824     0.90586E-01 
  61007.7446     0.90372E-01 
  61040.0067     0.90172E-01 
  61072.2689     0.89989E-01 
  61104.5310     0.89820E-01 
  61136.7932     0.89668E-01 
  61169.0554     0.89531E-01 
  61201.3175     0.89410E-01 
  61233.5797     0.89305E-01 
  61265.8418     0.89217E-01 
  61298.1040     0.89144E-01 
  61330.3662     0.89089E-01 
  61362.6283     0.89050E-01 
  61394.8905     0.89028E-01 
  61427.1526     0.89023E-01 
  61459.4148     0.89035E-01 
  61491.6770     0.89064E-01 
  61523.9391     0.89110E-01 
  61556.2013     0.89174E-01 
  61588.4634     0.89256E-01 
  61620.7256     0.89356E-01 
  61652.9878     0.89473E-01 
  61685.2499     0.89609E-01 
  61717.5121     0.89763E-01 
  61749.7742     0.89935E-01 
  61782.0364     0.90126E-01 
  61814.2986     0.90336E-01 
  61846.5607     0.90564E-01 
  61878.8229     0.90812E-01 
  61911.0850     0.91079E-01 
  61943.3472     0.91365E-01 
  61975.6094     0.91671E-01 
  62007.8715     0.91996E-01 
  62040.1337     0.92342E-01 
  62072.3958     0.92707E-01 
  62104.6580     0.93093E-01 
  62136.9202     0.93499E-01 
  62169.1823     0.93925E-01 
  62201.4445     0.94372E-01 
  62233.7066     0.94840E-01 
  62265.9688     0.95329E-01 
  62298.2310     0.95840E-01 
  62330.4931     0.96371E-01 
  62362.7553     0.96924E-01 
  62395.0174     0.97499E-01 
  62427.2796     0.98096E-01 
  62459.5418     0.98715E-01 
  62491.8039     0.99356E-01 
  62524.0661     0.10002E+00 
  62556.3282     0.10071E+00 
  62588.5904     0.10141E+00 
  62620.8526     0.10215E+00 
  62653.1147     0.10290E+00 
  62685.3769     0.10368E+00 
  62717.6390     0.10448E+00 
  62749.9012     0.10531E+00 
  62782.1634     0.10616E+00 
  62814.4255     0.10703E+00 
  62846.6877     0.10793E+00 
  62878.9498     0.10885E+00 
  62911.2120     0.10980E+00 
  62943.4742     0.11077E+00 
  62975.7363     0.11177E+00 
  63007.9985     0.11279E+00 
  63040.2606     0.11384E+00 
  63072.5228     0.11491E+00 
  63104.7850     0.11601E+00 
  63137.0471     0.11714E+00 
  63169.3093     0.11829E+00 
  63201.5714     0.11947E+00 
  63233.8336     0.12067E+00 
  63266.0958     0.12190E+00 
  63298.3579     0.12316E+00 
  63330.6201     0.12445E+00 
  63362.8822     0.12576E+00 
  63395.1444     0.12710E+00 
  63427.4066     0.12847E+00 
  63459.6687     0.12986E+00 
  63491.9309     0.13129E+00 
  63524.1930     0.13274E+00 
  63556.4552     0.13423E+00 
  63588.7174     0.13574E+00 
  63620.9795     0.13728E+00 
  63653.2417     0.13885E+00 
  63685.5038     0.14045E+00 
  63717.7660     0.14208E+00 
  63750.0282     0.14374E+00 
  63782.2903     0.14542E+00 
  63814.5525     0.14714E+00 
  63846.8146     0.14890E+00 
  63879.0768     0.15068E+00 
  63911.3390     0.15249E+00 
  63943.6011     0.15433E+00 
  63975.8633     0.15621E+00 
  64008.1254     0.15812E+00 
  64040.3876     0.16006E+00 
  64072.6498     0.16203E+00 
  64104.9119     0.16403E+00 
  64137.1741     0.16607E+00 
  64169.4362     0.16814E+00 
  64201.6984     0.17024E+00 
  64233.9606     0.17238E+00 
  64266.2227     0.17455E+00 
  64298.4849     0.17675E+00 
  64330.7470     0.17899E+00 
  64363.0092     0.18126E+00 
  64395.2714     0.18357E+00 
  64427.5335     0.18591E+00 
  64459.7957     0.18829E+00 
  64492.0578     0.19070E+00 
  64524.3200     0.19315E+00 
  64556.5822     0.19563E+00 
  64588.8443     0.19815E+00 
  64621.1065     0.20071E+00 
  64653.3686     0.20330E+00 
  64685.6308     0.20593E+00 
  64717.8930     0.20860E+00 
  64750.1551     0.21130E+00 
  64782.4173     0.21404E+00 
  64814.6794     0.21682E+00 
  64846.9416     0.21964E+00 
  64879.2038     0.22249E+00 
  64911.4659     0.22538E+00 
  64943.7281     0.22832E+00 
  64975.9902     0.23129E+00 
  65008.2524     0.23430E+00 
  65040.5146     0.23735E+00 
  65072.7767     0.24044E+00 
  65105.0389     0.24357E+00 
  65137.3010     0.24674E+00 
  65169.5632     0.24995E+00 
  65201.8254     0.25320E+00 
  65234.0875     0.25649E+00 
  65266.3497     0.25983E+00 
  65298.6118     0.26320E+00 
  65330.8740     0.26662E+00 
  65363.1362     0.27008E+00 
  65395.3983     0.27358E+00 
  65427.6605     0.27712E+00 
  65459.9226     0.28071E+00 
  65492.1848     0.28434E+00 
  65524.4470     0.28801E+00 
  65556.7091     0.29173E+00 
  65588.9713     0.29549E+00 
  65621.2334     0.29929E+00 
  65653.4956     0.30314E+00 
  65685.7578     0.30704E+00 
  65718.0199     0.31098E+00 
  65750.2821     0.31496E+00 
  65782.5442     0.31899E+00 
  65814.8064     0.32306E+00 
  65847.0686     0.32718E+00 
  65879.3307     0.33135E+00 
  65911.5929     0.33556E+00 
  65943.8550     0.33982E+00 
  65976.1172     0.34413E+00 
  66008.3794     0.34849E+00 
  66040.6415     0.35289E+00 
  66072.9037     0.35734E+00 
  66105.1658     0.36184E+00 
  66137.4280     0.36638E+00 
  66169.6902     0.37098E+00 
  66201.9523     0.37562E+00 
  66234.2145     0.38031E+00 
  66266.4766     0.38505E+00 
  66298.7388     0.38985E+00 
  66331.0010     0.39469E+00 
  66363.2631     0.39958E+00 
  66395.5253     0.40452E+00 
  66427.7874     0.40951E+00 
  66460.0496     0.41456E+00 
  66492.3118     0.41965E+00 
  66524.5739     0.42480E+00 
  66556.8361     0.43000E+00 
  66589.0982     0.43525E+00 
  66621.3604     0.44055E+00 
  66653.6226     0.44591E+00 
  66685.8847     0.45131E+00 
  66718.1469     0.45677E+00 
  66750.4090     0.46229E+00 
  66782.6712     0.46786E+00 
  66814.9334     0.47348E+00 
  66847.1955     0.47915E+00 
  66879.4577     0.48488E+00 
  66911.7198     0.49067E+00 
  66943.9820     0.49651E+00 
  66976.2442     0.50240E+00 
  67008.5063     0.50835E+00 
  67040.7685     0.51436E+00 
  67073.0306     0.52042E+00 
  67105.2928     0.52654E+00 
  67137.5550     0.53271E+00 
  67169.8171     0.53894E+00 
  67202.0793     0.54523E+00 
  67234.3414     0.55157E+00 
  67266.6036     0.55797E+00 
  67298.8658     0.56443E+00 
  67331.1279     0.57095E+00 
  67363.3901     0.57753E+00 
  67395.6522     0.58416E+00 
  67427.9144     0.59085E+00 
  67460.1766     0.59760E+00 
  67492.4387     0.60441E+00 
  67524.7009     0.61128E+00 
  67556.9630     0.61821E+00 
  67589.2252     0.62520E+00 
  67621.4874     0.63225E+00 
  67653.7495     0.63936E+00 
  67686.0117     0.64653E+00 
  67718.2738     0.65377E+00 
  67750.5360     0.66106E+00 
  67782.7982     0.66841E+00 
  67815.0603     0.67583E+00 
  67847.3225     0.68330E+00 
  67879.5846     0.69084E+00 
  67911.8468     0.69844E+00 
  67944.1090     0.70611E+00 
  67976.3711     0.71383E+00 
  68008.6333     0.72162E+00 
  68040.8954     0.72948E+00 
  68073.1576     0.73739E+00 
  68105.4198     0.74537E+00 
  68137.6819     0.75341E+00 
  68169.9441     0.76152E+00 
  68202.2062     0.76969E+00 
  68234.4684     0.77793E+00 
  68266.7306     0.78623E+00 
  68298.9927     0.79459E+00 
  68331.2549     0.80302E+00 
  68363.5170     0.81152E+00 
  68395.7792     0.82008E+00 
  68428.0414     0.82871E+00 
  68460.3035     0.83740E+00 
  68492.5657     0.84616E+00 
  68524.8278     0.85498E+00 
  68557.0900     0.86388E+00 
  68589.3522     0.87283E+00 
  68621.6143     0.88186E+00 
  68653.8765     0.89095E+00 
  68686.1386     0.90011E+00 
  68718.4008     0.90934E+00 
  68750.6630     0.91863E+00 
  68782.9251     0.92800E+00 
  68815.1873     0.93743E+00 
  68847.4494     0.94693E+00 
  68879.7116     0.95649E+00 
  68911.9738     0.96613E+00 
  68944.2359     0.97583E+00 
  68976.4981     0.98561E+00 
  69008.7602     0.99545E+00 
  69041.0224     0.10054E+01 
  69073.2846     0.10153E+01 
  69105.5467     0.10254E+01 
  69137.8089     0.10355E+01 
  69170.0710     0.10457E+01 
  69202.3332     0.10560E+01 
  69234.5954     0.10663E+01 
  69266.8575     0.10767E+01 
  69299.1197     0.10872E+01 
  69331.3818     0.10977E+01 
  69363.6440     0.11083E+01 
  69395.9062     0.11190E+01 
  69428.1683     0.11298E+01 
  69460.4305     0.11406E+01 
  69492.6926     0.11515E+01 
  69524.9548     0.11625E+01 
  69557.2170     0.11735E+01 
  69589.4791     0.11846E+01 
  69621.7413     0.11958E+01 
  69654.0034     0.12070E+01 
  69686.2656     0.12184E+01 
  69718.5278     0.12298E+01 
  69750.7899     0.12412E+01 
  69783.0521     0.12528E+01 
  69815.3142     0.12644E+01 
  69847.5764     0.12761E+01 
  69879.8386     0.12879E+01 
  69912.1007     0.12997E+01 
  69944.3629     0.13116E+01 
  69976.6250     0.13236E+01 
  70008.8872     0.13356E+01 
  70041.1494     0.13478E+01 
  70073.4115     0.13600E+01 
  70105.6737     0.13722E+01 
  70137.9358     0.13846E+01 
  70170.1980     0.13970E+01 
  70202.4602     0.14095E+01 
  70234.7223     0.14220E+01 
  70266.9845     0.14347E+01 
  70299.2466     0.14474E+01 
  70331.5088     0.14602E+01 
  70363.7710     0.14730E+01 
  70396.0331     0.14860E+01 
  70428.2953     0.14990E+01 
  70460.5574     0.15121E+01 
  70492.8196     0.15252E+01 
  70525.0818     0.15385E+01 
  70557.3439     0.15518E+01 
  70589.6061     0.15651E+01 
  70621.8682     0.15786E+01 
  70654.1304     0.15921E+01 
  70686.3926     0.16057E+01 
  70718.6547     0.16194E+01 
  70750.9169     0.16331E+01 
  70783.1790     0.16469E+01 
  70815.4412     0.16608E+01 
  70847.7034     0.16748E+01 
  70879.9655     0.16888E+01 
  70912.2277     0.17030E+01 
  70944.4898     0.17172E+01 
  70976.7520     0.17314E+01 
  71009.0142     0.17458E+01 
  71041.2763     0.17602E+01 
  71073.5385     0.17746E+01 
  71105.8006     0.17892E+01 
  71138.0628     0.18038E+01 
  71170.3250     0.18185E+01 
  71202.5871     0.18333E+01 
  71234.8493     0.18482E+01 
  71267.1114     0.18631E+01 
  71299.3736     0.18781E+01 
  71331.6358     0.18932E+01 
  71363.8979     0.19083E+01 
  71396.1601     0.19235E+01 
  71428.4222     0.19388E+01 
  71460.6844     0.19542E+01 
  71492.9466     0.19696E+01 
  71525.2087     0.19851E+01 
  71557.4709     0.20007E+01 
  71589.7330     0.20164E+01 
  71621.9952     0.20321E+01 
  71654.2574     0.20479E+01 
  71686.5195     0.20638E+01 
  71718.7817     0.20797E+01 
  71751.0438     0.20957E+01 
  71783.3060     0.21118E+01 
  71815.5682     0.21280E+01 
  71847.8303     0.21442E+01 
  71880.0925     0.21605E+01 
  71912.3546     0.21769E+01 
  71944.6168     0.21933E+01 
  71976.8790     0.22098E+01 
  72009.1411     0.22264E+01 
  72041.4033     0.22431E+01 
  72073.6654     0.22598E+01 
  72105.9276     0.22766E+01 
  72138.1898     0.22934E+01 
  72170.4519     0.23104E+01 
  72202.7141     0.23274E+01 
  72234.9762     0.23445E+01 
  72267.2384     0.23616E+01 
  72299.5006     0.23788E+01 
  72331.7627     0.23961E+01 
  72364.0249     0.24134E+01 
  72396.2870     0.24309E+01 
  72428.5492     0.24483E+01 
  72460.8114     0.24659E+01 
  72493.0735     0.24835E+01 
  72525.3357     0.25012E+01 
  72557.5978     0.25190E+01 
  72589.8600     0.25368E+01 
