  32262.1600     0.15110E+00 
  32294.4222     0.15170E+00 
  32326.6843     0.15231E+00 
  32358.9465     0.15291E+00 
  32391.2086     0.15352E+00 
  32423.4708     0.15413E+00 
  32455.7330     0.15474E+00 
  32487.9951     0.15535E+00 
  32520.2573     0.15596E+00 
  32552.5194     0.15658E+00 
  32584.7816     0.15719E+00 
  32617.0438     0.15781E+00 
  32649.3059     0.15843E+00 
  32681.5681     0.15906E+00 
  32713.8302     0.15968E+00 
  32746.0924     0.16031E+00 
  32778.3546     0.16093E+00 
  32810.6167     0.16156E+00 
  32842.8789     0.16219E+00 
  32875.1410     0.16282E+00 
  32907.4032     0.16346E+00 
  32939.6654     0.16409E+00 
  32971.9275     0.16473E+00 
  33004.1897     0.16537E+00 
  33036.4518     0.16601E+00 
  33068.7140     0.16666E+00 
  33100.9762     0.16730E+00 
  33133.2383     0.16795E+00 
  33165.5005     0.16860E+00 
  33197.7626     0.16925E+00 
  33230.0248     0.16990E+00 
  33262.2870     0.17055E+00 
  33294.5491     0.17121E+00 
  33326.8113     0.17186E+00 
  33359.0734     0.17252E+00 
  33391.3356     0.17318E+00 
  33423.5978     0.17384E+00 
  33455.8599     0.17451E+00 
  33488.1221     0.17517E+00 
  33520.3842     0.17584E+00 
  33552.6464     0.17651E+00 
  33584.9086     0.17718E+00 
  33617.1707     0.17786E+00 
  33649.4329     0.17853E+00 
  33681.6950     0.17921E+00 
  33713.9572     0.17989E+00 
  33746.2194     0.18057E+00 
  33778.4815     0.18125E+00 
  33810.7437     0.18193E+00 
  33843.0058     0.18262E+00 
  33875.2680     0.18331E+00 
  33907.5302     0.18400E+00 
  33939.7923     0.18469E+00 
  33972.0545     0.18538E+00 
  34004.3166     0.18608E+00 
  34036.5788     0.18677E+00 
  34068.8410     0.18747E+00 
  34101.1031     0.18817E+00 
  34133.3653     0.18887E+00 
  34165.6274     0.18958E+00 
  34197.8896     0.19028E+00 
  34230.1518     0.19099E+00 
  34262.4139     0.19170E+00 
  34294.6761     0.19241E+00 
  34326.9382     0.19313E+00 
  34359.2004     0.19384E+00 
  34391.4626     0.19456E+00 
  34423.7247     0.19528E+00 
  34455.9869     0.19600E+00 
  34488.2490     0.19672E+00 
  34520.5112     0.19745E+00 
  34552.7734     0.19817E+00 
  34585.0355     0.19890E+00 
  34617.2977     0.19963E+00 
  34649.5598     0.20036E+00 
  34681.8220     0.20110E+00 
  34714.0842     0.20183E+00 
  34746.3463     0.20257E+00 
  34778.6085     0.20331E+00 
  34810.8706     0.20405E+00 
  34843.1328     0.20480E+00 
  34875.3950     0.20554E+00 
  34907.6571     0.20629E+00 
  34939.9193     0.20704E+00 
  34972.1814     0.20779E+00 
  35004.4436     0.20854E+00 
  35036.7058     0.20930E+00 
  35068.9679     0.21006E+00 
  35101.2301     0.21081E+00 
  35133.4922     0.21158E+00 
  35165.7544     0.21234E+00 
  35198.0166     0.21310E+00 
  35230.2787     0.21387E+00 
  35262.5409     0.21464E+00 
  35294.8030     0.21541E+00 
  35327.0652     0.21618E+00 
  35359.3274     0.21696E+00 
  35391.5895     0.21773E+00 
  35423.8517     0.21851E+00 
  35456.1138     0.21929E+00 
  35488.3760     0.22007E+00 
  35520.6382     0.22086E+00 
  35552.9003     0.22164E+00 
  35585.1625     0.22243E+00 
  35617.4246     0.22322E+00 
  35649.6868     0.22402E+00 
  35681.9490     0.22481E+00 
  35714.2111     0.22561E+00 
  35746.4733     0.22640E+00 
  35778.7354     0.22720E+00 
  35810.9976     0.22801E+00 
  35843.2598     0.22881E+00 
  35875.5219     0.22962E+00 
  35907.7841     0.23042E+00 
  35940.0462     0.23123E+00 
  35972.3084     0.23205E+00 
  36004.5706     0.23286E+00 
  36036.8327     0.23368E+00 
  36069.0949     0.23450E+00 
  36101.3570     0.23532E+00 
  36133.6192     0.23614E+00 
  36165.8814     0.23696E+00 
  36198.1435     0.23779E+00 
  36230.4057     0.23862E+00 
  36262.6678     0.23945E+00 
  36294.9300     0.24028E+00 
  36327.1922     0.24111E+00 
  36359.4543     0.24195E+00 
  36391.7165     0.24279E+00 
  36423.9786     0.24363E+00 
  36456.2408     0.24447E+00 
  36488.5030     0.24532E+00 
  36520.7651     0.24616E+00 
  36553.0273     0.24701E+00 
  36585.2894     0.24786E+00 
  36617.5516     0.24872E+00 
  36649.8138     0.24957E+00 
  36682.0759     0.25043E+00 
  36714.3381     0.25129E+00 
  36746.6002     0.25215E+00 
  36778.8624     0.25301E+00 
  36811.1246     0.25388E+00 
  36843.3867     0.25475E+00 
  36875.6489     0.25562E+00 
  36907.9110     0.25649E+00 
  36940.1732     0.25736E+00 
  36972.4354     0.25824E+00 
  37004.6975     0.25912E+00 
  37036.9597     0.26000E+00 
  37069.2218     0.26088E+00 
  37101.4840     0.26176E+00 
  37133.7462     0.26265E+00 
  37166.0083     0.26354E+00 
  37198.2705     0.26443E+00 
  37230.5326     0.26532E+00 
  37262.7948     0.26622E+00 
  37295.0570     0.26712E+00 
  37327.3191     0.26802E+00 
  37359.5813     0.26892E+00 
  37391.8434     0.26982E+00 
  37424.1056     0.27073E+00 
  37456.3678     0.27164E+00 
  37488.6299     0.27255E+00 
  37520.8921     0.27346E+00 
  37553.1542     0.27437E+00 
  37585.4164     0.27529E+00 
  37617.6786     0.27621E+00 
  37649.9407     0.27713E+00 
  37682.2029     0.27805E+00 
  37714.4650     0.27898E+00 
  37746.7272     0.27991E+00 
  37778.9894     0.28084E+00 
  37811.2515     0.28177E+00 
  37843.5137     0.28270E+00 
  37875.7758     0.28364E+00 
  37908.0380     0.28458E+00 
  37940.3002     0.28552E+00 
  37972.5623     0.28646E+00 
  38004.8245     0.28741E+00 
  38037.0866     0.28836E+00 
  38069.3488     0.28931E+00 
  38101.6110     0.29026E+00 
  38133.8731     0.29121E+00 
  38166.1353     0.29217E+00 
  38198.3974     0.29313E+00 
  38230.6596     0.29409E+00 
  38262.9218     0.29505E+00 
  38295.1839     0.29602E+00 
  38327.4461     0.29699E+00 
  38359.7082     0.29796E+00 
  38391.9704     0.29893E+00 
  38424.2326     0.29990E+00 
  38456.4947     0.30088E+00 
  38488.7569     0.30186E+00 
  38521.0190     0.30284E+00 
  38553.2812     0.30383E+00 
  38585.5434     0.30481E+00 
  38617.8055     0.30580E+00 
  38650.0677     0.30679E+00 
  38682.3298     0.30778E+00 
  38714.5920     0.30878E+00 
  38746.8542     0.30978E+00 
  38779.1163     0.31078E+00 
  38811.3785     0.31178E+00 
  38843.6406     0.31278E+00 
  38875.9028     0.31379E+00 
  38908.1650     0.31480E+00 
  38940.4271     0.31581E+00 
  38972.6893     0.31683E+00 
  39004.9514     0.31784E+00 
  39037.2136     0.31886E+00 
  39069.4758     0.31988E+00 
  39101.7379     0.32091E+00 
  39134.0001     0.32193E+00 
  39166.2622     0.32296E+00 
  39198.5244     0.32399E+00 
  39230.7866     0.32502E+00 
  39263.0487     0.32606E+00 
  39295.3109     0.32710E+00 
  39327.5730     0.32814E+00 
  39359.8352     0.32918E+00 
  39392.0974     0.33022E+00 
  39424.3595     0.33127E+00 
  39456.6217     0.33232E+00 
  39488.8838     0.33337E+00 
  39521.1460     0.33443E+00 
  39553.4082     0.33549E+00 
  39585.6703     0.33654E+00 
  39617.9325     0.33761E+00 
  39650.1946     0.33867E+00 
  39682.4568     0.33974E+00 
  39714.7190     0.34081E+00 
  39746.9811     0.34188E+00 
  39779.2433     0.34295E+00 
  39811.5054     0.34403E+00 
  39843.7676     0.34511E+00 
  39876.0298     0.34619E+00 
  39908.2919     0.34727E+00 
  39940.5541     0.34836E+00 
  39972.8162     0.34945E+00 
  40005.0784     0.35054E+00 
  40037.3406     0.35163E+00 
  40069.6027     0.35273E+00 
  40101.8649     0.35383E+00 
  40134.1270     0.35493E+00 
  40166.3892     0.35603E+00 
  40198.6514     0.35714E+00 
  40230.9135     0.35825E+00 
  40263.1757     0.35936E+00 
  40295.4378     0.36047E+00 
  40327.7000     0.36159E+00 
  40359.9622     0.36271E+00 
  40392.2243     0.36383E+00 
  40424.4865     0.36495E+00 
  40456.7486     0.36608E+00 
  40489.0108     0.36721E+00 
  40521.2730     0.36834E+00 
  40553.5351     0.36947E+00 
  40585.7973     0.37061E+00 
  40618.0594     0.37175E+00 
  40650.3216     0.37289E+00 
  40682.5838     0.37404E+00 
  40714.8459     0.37518E+00 
  40747.1081     0.37633E+00 
  40779.3702     0.37749E+00 
  40811.6324     0.37864E+00 
  40843.8946     0.37980E+00 
  40876.1567     0.38096E+00 
  40908.4189     0.38212E+00 
  40940.6810     0.38329E+00 
  40972.9432     0.38445E+00 
  41005.2054     0.38562E+00 
  41037.4675     0.38680E+00 
  41069.7297     0.38797E+00 
  41101.9918     0.38915E+00 
  41134.2540     0.39033E+00 
  41166.5162     0.39152E+00 
  41198.7783     0.39270E+00 
  41231.0405     0.39389E+00 
  41263.3026     0.39508E+00 
  41295.5648     0.39628E+00 
  41327.8270     0.39747E+00 
  41360.0891     0.39867E+00 
  41392.3513     0.39988E+00 
  41424.6134     0.40108E+00 
  41456.8756     0.40229E+00 
  41489.1378     0.40350E+00 
  41521.3999     0.40471E+00 
  41553.6621     0.40593E+00 
  41585.9242     0.40715E+00 
  41618.1864     0.40837E+00 
  41650.4486     0.40959E+00 
  41682.7107     0.41082E+00 
  41714.9729     0.41205E+00 
  41747.2350     0.41328E+00 
  41779.4972     0.41452E+00 
  41811.7594     0.41576E+00 
  41844.0215     0.41700E+00 
  41876.2837     0.41824E+00 
  41908.5458     0.41949E+00 
  41940.8080     0.42074E+00 
  41973.0702     0.42199E+00 
  42005.3323     0.42324E+00 
  42037.5945     0.42450E+00 
  42069.8566     0.42576E+00 
  42102.1188     0.42702E+00 
  42134.3810     0.42829E+00 
  42166.6431     0.42956E+00 
  42198.9053     0.43083E+00 
  42231.1674     0.43210E+00 
  42263.4296     0.43338E+00 
  42295.6918     0.43466E+00 
  42327.9539     0.43594E+00 
  42360.2161     0.43723E+00 
  42392.4782     0.43852E+00 
  42424.7404     0.43981E+00 
  42457.0026     0.44110E+00 
  42489.2647     0.44240E+00 
  42521.5269     0.44370E+00 
  42553.7890     0.44500E+00 
  42586.0512     0.44631E+00 
  42618.3134     0.44762E+00 
  42650.5755     0.44893E+00 
  42682.8377     0.45025E+00 
  42715.0998     0.45156E+00 
  42747.3620     0.45288E+00 
  42779.6242     0.45421E+00 
  42811.8863     0.45553E+00 
  42844.1485     0.45686E+00 
  42876.4106     0.45819E+00 
  42908.6728     0.45953E+00 
  42940.9350     0.46087E+00 
  42973.1971     0.46221E+00 
  43005.4593     0.46355E+00 
  43037.7214     0.46490E+00 
  43069.9836     0.46625E+00 
  43102.2458     0.46760E+00 
  43134.5079     0.46896E+00 
  43166.7701     0.47032E+00 
  43199.0322     0.47168E+00 
  43231.2944     0.47305E+00 
  43263.5566     0.47441E+00 
  43295.8187     0.47579E+00 
  43328.0809     0.47716E+00 
  43360.3430     0.47854E+00 
  43392.6052     0.47992E+00 
  43424.8674     0.48130E+00 
  43457.1295     0.48269E+00 
  43489.3917     0.48408E+00 
  43521.6538     0.48547E+00 
  43553.9160     0.48687E+00 
  43586.1782     0.48826E+00 
  43618.4403     0.48967E+00 
  43650.7025     0.49107E+00 
  43682.9646     0.49248E+00 
  43715.2268     0.49389E+00 
  43747.4890     0.49531E+00 
  43779.7511     0.49672E+00 
  43812.0133     0.49814E+00 
  43844.2754     0.49957E+00 
  43876.5376     0.50099E+00 
  43908.7998     0.50242E+00 
  43941.0619     0.50386E+00 
  43973.3241     0.50529E+00 
  44005.5862     0.50673E+00 
  44037.8484     0.50818E+00 
  44070.1106     0.50962E+00 
  44102.3727     0.51107E+00 
  44134.6349     0.51252E+00 
  44166.8970     0.51398E+00 
  44199.1592     0.51544E+00 
  44231.4214     0.51690E+00 
  44263.6835     0.51837E+00 
  44295.9457     0.51984E+00 
  44328.2078     0.52131E+00 
  44360.4700     0.52278E+00 
  44392.7322     0.52426E+00 
  44424.9943     0.52574E+00 
  44457.2565     0.52723E+00 
  44489.5186     0.52871E+00 
  44521.7808     0.53021E+00 
  44554.0430     0.53170E+00 
  44586.3051     0.53320E+00 
  44618.5673     0.53470E+00 
  44650.8294     0.53621E+00 
  44683.0916     0.53771E+00 
  44715.3538     0.53922E+00 
  44747.6159     0.54074E+00 
  44779.8781     0.54226E+00 
  44812.1402     0.54378E+00 
  44844.4024     0.54530E+00 
  44876.6646     0.54683E+00 
  44908.9267     0.54836E+00 
  44941.1889     0.54990E+00 
  44973.4510     0.55144E+00 
  45005.7132     0.55298E+00 
  45037.9754     0.55452E+00 
  45070.2375     0.55607E+00 
  45102.4997     0.55762E+00 
  45134.7618     0.55918E+00 
  45167.0240     0.56074E+00 
  45199.2862     0.56230E+00 
  45231.5483     0.56386E+00 
  45263.8105     0.56543E+00 
  45296.0726     0.56701E+00 
  45328.3348     0.56858E+00 
  45360.5970     0.57016E+00 
  45392.8591     0.57174E+00 
  45425.1213     0.57333E+00 
  45457.3834     0.57492E+00 
  45489.6456     0.57651E+00 
  45521.9078     0.57811E+00 
  45554.1699     0.57971E+00 
  45586.4321     0.58132E+00 
  45618.6942     0.58292E+00 
  45650.9564     0.58454E+00 
  45683.2186     0.58615E+00 
  45715.4807     0.58777E+00 
  45747.7429     0.58939E+00 
  45780.0050     0.59102E+00 
  45812.2672     0.59264E+00 
  45844.5294     0.59428E+00 
  45876.7915     0.59591E+00 
  45909.0537     0.59755E+00 
  45941.3158     0.59920E+00 
  45973.5780     0.60084E+00 
  46005.8402     0.60249E+00 
  46038.1023     0.60415E+00 
  46070.3645     0.60581E+00 
  46102.6266     0.60747E+00 
  46134.8888     0.60913E+00 
  46167.1510     0.61080E+00 
  46199.4131     0.61248E+00 
  46231.6753     0.61415E+00 
  46263.9374     0.61583E+00 
  46296.1996     0.61752E+00 
  46328.4618     0.61920E+00 
  46360.7239     0.62089E+00 
  46392.9861     0.62259E+00 
  46425.2482     0.62429E+00 
  46457.5104     0.62599E+00 
  46489.7726     0.62770E+00 
  46522.0347     0.62941E+00 
  46554.2969     0.63112E+00 
  46586.5590     0.63284E+00 
  46618.8212     0.63456E+00 
  46651.0834     0.63628E+00 
  46683.3455     0.63801E+00 
  46715.6077     0.63975E+00 
  46747.8698     0.64148E+00 
  46780.1320     0.64322E+00 
  46812.3942     0.64497E+00 
  46844.6563     0.64672E+00 
  46876.9185     0.64847E+00 
  46909.1806     0.65022E+00 
  46941.4428     0.65198E+00 
  46973.7050     0.65375E+00 
  47005.9671     0.65551E+00 
  47038.2293     0.65729E+00 
  47070.4914     0.65906E+00 
  47102.7536     0.66084E+00 
  47135.0158     0.66262E+00 
  47167.2779     0.66441E+00 
  47199.5401     0.66620E+00 
  47231.8022     0.66800E+00 
  47264.0644     0.66979E+00 
  47296.3266     0.67160E+00 
  47328.5887     0.67340E+00 
  47360.8509     0.67521E+00 
  47393.1130     0.67703E+00 
  47425.3752     0.67885E+00 
  47457.6374     0.68067E+00 
  47489.8995     0.68250E+00 
  47522.1617     0.68433E+00 
  47554.4238     0.68616E+00 
  47586.6860     0.68800E+00 
  47618.9482     0.68985E+00 
  47651.2103     0.69169E+00 
  47683.4725     0.69354E+00 
  47715.7346     0.69540E+00 
  47747.9968     0.69726E+00 
  47780.2590     0.69912E+00 
  47812.5211     0.70099E+00 
  47844.7833     0.70286E+00 
  47877.0454     0.70474E+00 
  47909.3076     0.70662E+00 
  47941.5698     0.70850E+00 
  47973.8319     0.71039E+00 
  48006.0941     0.71228E+00 
  48038.3562     0.71418E+00 
  48070.6184     0.71608E+00 
  48102.8806     0.71798E+00 
  48135.1427     0.71989E+00 
  48167.4049     0.72181E+00 
  48199.6670     0.72372E+00 
  48231.9292     0.72564E+00 
  48264.1914     0.72757E+00 
  48296.4535     0.72950E+00 
  48328.7157     0.73144E+00 
  48360.9778     0.73337E+00 
  48393.2400     0.73532E+00 
  48425.5022     0.73726E+00 
  48457.7643     0.73922E+00 
  48490.0265     0.74117E+00 
  48522.2886     0.74313E+00 
  48554.5508     0.74510E+00 
  48586.8130     0.74707E+00 
  48619.0751     0.74904E+00 
  48651.3373     0.75102E+00 
  48683.5994     0.75300E+00 
  48715.8616     0.75498E+00 
  48748.1238     0.75697E+00 
  48780.3859     0.75897E+00 
  48812.6481     0.76097E+00 
  48844.9102     0.76297E+00 
  48877.1724     0.76498E+00 
  48909.4346     0.76699E+00 
  48941.6967     0.76901E+00 
  48973.9589     0.77103E+00 
  49006.2210     0.77306E+00 
  49038.4832     0.77509E+00 
  49070.7454     0.77712E+00 
  49103.0075     0.77916E+00 
  49135.2697     0.78121E+00 
  49167.5318     0.78325E+00 
  49199.7940     0.78531E+00 
  49232.0562     0.78736E+00 
  49264.3183     0.78943E+00 
  49296.5805     0.79149E+00 
  49328.8426     0.79356E+00 
  49361.1048     0.79564E+00 
  49393.3670     0.79772E+00 
  49425.6291     0.79980E+00 
  49457.8913     0.80189E+00 
  49490.1534     0.80399E+00 
  49522.4156     0.80608E+00 
  49554.6778     0.80819E+00 
  49586.9399     0.81029E+00 
  49619.2021     0.81241E+00 
  49651.4642     0.81452E+00 
  49683.7264     0.81664E+00 
  49715.9886     0.81877E+00 
  49748.2507     0.82090E+00 
  49780.5129     0.82304E+00 
  49812.7750     0.82518E+00 
  49845.0372     0.82732E+00 
  49877.2994     0.82947E+00 
  49909.5615     0.83163E+00 
  49941.8237     0.83378E+00 
  49974.0858     0.83595E+00 
  50006.3480     0.83812E+00 
  50038.6102     0.84029E+00 
  50070.8723     0.84247E+00 
  50103.1345     0.84465E+00 
  50135.3966     0.84684E+00 
  50167.6588     0.84903E+00 
  50199.9210     0.85123E+00 
  50232.1831     0.85343E+00 
  50264.4453     0.85564E+00 
  50296.7074     0.85785E+00 
  50328.9696     0.86006E+00 
  50361.2318     0.86229E+00 
  50393.4939     0.86451E+00 
  50425.7561     0.86674E+00 
  50458.0182     0.86898E+00 
  50490.2804     0.87122E+00 
  50522.5426     0.87346E+00 
  50554.8047     0.87571E+00 
  50587.0669     0.87797E+00 
  50619.3290     0.88023E+00 
  50651.5912     0.88250E+00 
  50683.8534     0.88477E+00 
  50716.1155     0.88704E+00 
  50748.3777     0.88932E+00 
  50780.6398     0.89161E+00 
  50812.9020     0.89390E+00 
  50845.1642     0.89619E+00 
  50877.4263     0.89849E+00 
  50909.6885     0.90080E+00 
  50941.9506     0.90311E+00 
  50974.2128     0.90542E+00 
  51006.4750     0.90774E+00 
  51038.7371     0.91007E+00 
  51070.9993     0.91240E+00 
  51103.2614     0.91473E+00 
  51135.5236     0.91708E+00 
  51167.7858     0.91942E+00 
  51200.0479     0.92177E+00 
  51232.3101     0.92413E+00 
  51264.5722     0.92649E+00 
  51296.8344     0.92885E+00 
  51329.0966     0.93123E+00 
  51361.3587     0.93360E+00 
  51393.6209     0.93598E+00 
  51425.8830     0.93837E+00 
  51458.1452     0.94076E+00 
  51490.4074     0.94316E+00 
  51522.6695     0.94556E+00 
  51554.9317     0.94797E+00 
  51587.1938     0.95038E+00 
  51619.4560     0.95280E+00 
  51651.7182     0.95522E+00 
  51683.9803     0.95765E+00 
  51716.2425     0.96009E+00 
  51748.5046     0.96253E+00 
  51780.7668     0.96497E+00 
  51813.0290     0.96742E+00 
  51845.2911     0.96987E+00 
  51877.5533     0.97233E+00 
  51909.8154     0.97480E+00 
  51942.0776     0.97727E+00 
  51974.3398     0.97975E+00 
  52006.6019     0.98223E+00 
  52038.8641     0.98472E+00 
  52071.1262     0.98721E+00 
  52103.3884     0.98971E+00 
  52135.6506     0.99221E+00 
  52167.9127     0.99472E+00 
  52200.1749     0.99723E+00 
  52232.4370     0.99975E+00 
  52264.6992     0.10023E+01 
  52296.9614     0.10048E+01 
  52329.2235     0.10073E+01 
  52361.4857     0.10099E+01 
  52393.7478     0.10124E+01 
  52426.0100     0.10150E+01 
  52458.2722     0.10175E+01 
  52490.5343     0.10201E+01 
  52522.7965     0.10227E+01 
  52555.0586     0.10252E+01 
  52587.3208     0.10278E+01 
  52619.5830     0.10304E+01 
  52651.8451     0.10330E+01 
  52684.1073     0.10356E+01 
  52716.3694     0.10382E+01 
  52748.6316     0.10408E+01 
  52780.8938     0.10434E+01 
  52813.1559     0.10460E+01 
  52845.4181     0.10487E+01 
  52877.6802     0.10513E+01 
  52909.9424     0.10539E+01 
  52942.2046     0.10566E+01 
  52974.4667     0.10592E+01 
  53006.7289     0.10619E+01 
  53038.9910     0.10645E+01 
  53071.2532     0.10672E+01 
  53103.5154     0.10699E+01 
  53135.7775     0.10725E+01 
  53168.0397     0.10752E+01 
  53200.3018     0.10779E+01 
  53232.5640     0.10806E+01 
  53264.8262     0.10833E+01 
  53297.0883     0.10860E+01 
  53329.3505     0.10887E+01 
  53361.6126     0.10914E+01 
  53393.8748     0.10941E+01 
  53426.1370     0.10969E+01 
  53458.3991     0.10996E+01 
  53490.6613     0.11023E+01 
  53522.9234     0.11051E+01 
  53555.1856     0.11078E+01 
  53587.4478     0.11106E+01 
  53619.7099     0.11134E+01 
  53651.9721     0.11161E+01 
  53684.2342     0.11189E+01 
  53716.4964     0.11217E+01 
  53748.7586     0.11245E+01 
  53781.0207     0.11273E+01 
  53813.2829     0.11301E+01 
  53845.5450     0.11329E+01 
  53877.8072     0.11357E+01 
  53910.0694     0.11385E+01 
  53942.3315     0.11413E+01 
  53974.5937     0.11441E+01 
  54006.8558     0.11470E+01 
  54039.1180     0.11498E+01 
  54071.3802     0.11526E+01 
  54103.6423     0.11555E+01 
  54135.9045     0.11584E+01 
  54168.1666     0.11612E+01 
  54200.4288     0.11641E+01 
  54232.6910     0.11670E+01 
  54264.9531     0.11698E+01 
  54297.2153     0.11727E+01 
  54329.4774     0.11756E+01 
  54361.7396     0.11785E+01 
  54394.0018     0.11814E+01 
  54426.2639     0.11843E+01 
  54458.5261     0.11873E+01 
  54490.7882     0.11902E+01 
  54523.0504     0.11931E+01 
  54555.3126     0.11960E+01 
  54587.5747     0.11990E+01 
  54619.8369     0.12019E+01 
  54652.0990     0.12049E+01 
  54684.3612     0.12078E+01 
  54716.6234     0.12108E+01 
  54748.8855     0.12138E+01 
  54781.1477     0.12168E+01 
  54813.4098     0.12197E+01 
  54845.6720     0.12227E+01 
  54877.9342     0.12257E+01 
  54910.1963     0.12287E+01 
  54942.4585     0.12317E+01 
  54974.7206     0.12348E+01 
  55006.9828     0.12378E+01 
  55039.2450     0.12408E+01 
  55071.5071     0.12439E+01 
  55103.7693     0.12469E+01 
  55136.0314     0.12499E+01 
  55168.2936     0.12530E+01 
  55200.5558     0.12561E+01 
  55232.8179     0.12591E+01 
  55265.0801     0.12622E+01 
  55297.3422     0.12653E+01 
  55329.6044     0.12684E+01 
  55361.8666     0.12714E+01 
  55394.1287     0.12745E+01 
  55426.3909     0.12777E+01 
  55458.6530     0.12808E+01 
  55490.9152     0.12839E+01 
  55523.1774     0.12870E+01 
  55555.4395     0.12901E+01 
  55587.7017     0.12933E+01 
  55619.9638     0.12964E+01 
  55652.2260     0.12996E+01 
  55684.4882     0.13027E+01 
  55716.7503     0.13059E+01 
  55749.0125     0.13090E+01 
  55781.2746     0.13122E+01 
  55813.5368     0.13154E+01 
  55845.7990     0.13186E+01 
  55878.0611     0.13218E+01 
  55910.3233     0.13250E+01 
  55942.5854     0.13282E+01 
  55974.8476     0.13314E+01 
  56007.1098     0.13346E+01 
  56039.3719     0.13379E+01 
  56071.6341     0.13411E+01 
  56103.8962     0.13443E+01 
  56136.1584     0.13476E+01 
  56168.4206     0.13508E+01 
  56200.6827     0.13541E+01 
  56232.9449     0.13574E+01 
  56265.2070     0.13606E+01 
  56297.4692     0.13639E+01 
  56329.7314     0.13672E+01 
  56361.9935     0.13705E+01 
  56394.2557     0.13738E+01 
  56426.5178     0.13771E+01 
  56458.7800     0.13804E+01 
  56491.0422     0.13837E+01 
  56523.3043     0.13871E+01 
  56555.5665     0.13904E+01 
  56587.8286     0.13937E+01 
  56620.0908     0.13971E+01 
  56652.3530     0.14004E+01 
  56684.6151     0.14038E+01 
  56716.8773     0.14072E+01 
  56749.1394     0.14105E+01 
  56781.4016     0.14139E+01 
  56813.6638     0.14173E+01 
  56845.9259     0.14207E+01 
  56878.1881     0.14241E+01 
  56910.4502     0.14275E+01 
  56942.7124     0.14309E+01 
  56974.9746     0.14343E+01 
  57007.2367     0.14378E+01 
  57039.4989     0.14412E+01 
  57071.7610     0.14446E+01 
  57104.0232     0.14481E+01 
  57136.2854     0.14515E+01 
  57168.5475     0.14550E+01 
  57200.8097     0.14585E+01 
  57233.0718     0.14619E+01 
  57265.3340     0.14654E+01 
  57297.5962     0.14689E+01 
  57329.8583     0.14724E+01 
  57362.1205     0.14759E+01 
  57394.3826     0.14794E+01 
  57426.6448     0.14829E+01 
  57458.9070     0.14865E+01 
  57491.1691     0.14900E+01 
  57523.4313     0.14935E+01 
  57555.6934     0.14971E+01 
  57587.9556     0.15006E+01 
  57620.2178     0.15042E+01 
  57652.4799     0.15077E+01 
  57684.7421     0.15113E+01 
  57717.0042     0.15149E+01 
  57749.2664     0.15185E+01 
  57781.5286     0.15221E+01 
  57813.7907     0.15257E+01 
  57846.0529     0.15293E+01 
  57878.3150     0.15329E+01 
  57910.5772     0.15365E+01 
  57942.8394     0.15401E+01 
  57975.1015     0.15438E+01 
  58007.3637     0.15474E+01 
  58039.6258     0.15510E+01 
  58071.8880     0.15547E+01 
  58104.1502     0.15584E+01 
  58136.4123     0.15620E+01 
  58168.6745     0.15657E+01 
  58200.9366     0.15694E+01 
  58233.1988     0.15731E+01 
  58265.4610     0.15768E+01 
  58297.7231     0.15805E+01 
  58329.9853     0.15842E+01 
  58362.2474     0.15879E+01 
  58394.5096     0.15916E+01 
  58426.7718     0.15954E+01 
  58459.0339     0.15991E+01 
  58491.2961     0.16029E+01 
  58523.5582     0.16066E+01 
  58555.8204     0.16104E+01 
  58588.0826     0.16141E+01 
  58620.3447     0.16179E+01 
  58652.6069     0.16217E+01 
  58684.8690     0.16255E+01 
  58717.1312     0.16293E+01 
  58749.3934     0.16331E+01 
  58781.6555     0.16369E+01 
  58813.9177     0.16407E+01 
  58846.1798     0.16445E+01 
  58878.4420     0.16484E+01 
  58910.7042     0.16522E+01 
  58942.9663     0.16561E+01 
  58975.2285     0.16599E+01 
  59007.4906     0.16638E+01 
  59039.7528     0.16677E+01 
  59072.0150     0.16715E+01 
  59104.2771     0.16754E+01 
  59136.5393     0.16793E+01 
  59168.8014     0.16832E+01 
  59201.0636     0.16871E+01 
  59233.3258     0.16910E+01 
  59265.5879     0.16949E+01 
  59297.8501     0.16989E+01 
  59330.1122     0.17028E+01 
  59362.3744     0.17067E+01 
  59394.6366     0.17107E+01 
  59426.8987     0.17146E+01 
  59459.1609     0.17186E+01 
  59491.4230     0.17226E+01 
  59523.6852     0.17265E+01 
  59555.9474     0.17305E+01 
  59588.2095     0.17345E+01 
  59620.4717     0.17385E+01 
  59652.7338     0.17425E+01 
  59684.9960     0.17465E+01 
  59717.2582     0.17506E+01 
  59749.5203     0.17546E+01 
  59781.7825     0.17586E+01 
  59814.0446     0.17627E+01 
  59846.3068     0.17667E+01 
  59878.5690     0.17708E+01 
  59910.8311     0.17748E+01 
  59943.0933     0.17789E+01 
  59975.3554     0.17830E+01 
  60007.6176     0.17871E+01 
  60039.8798     0.17912E+01 
  60072.1419     0.17953E+01 
  60104.4041     0.17994E+01 
  60136.6662     0.18035E+01 
  60168.9284     0.18076E+01 
  60201.1906     0.18118E+01 
  60233.4527     0.18159E+01 
  60265.7149     0.18201E+01 
  60297.9770     0.18242E+01 
  60330.2392     0.18284E+01 
  60362.5014     0.18325E+01 
  60394.7635     0.18367E+01 
  60427.0257     0.18409E+01 
  60459.2878     0.18451E+01 
  60491.5500     0.18493E+01 
  60523.8122     0.18535E+01 
  60556.0743     0.18577E+01 
  60588.3365     0.18619E+01 
  60620.5986     0.18662E+01 
  60652.8608     0.18704E+01 
  60685.1230     0.18746E+01 
  60717.3851     0.18789E+01 
  60749.6473     0.18831E+01 
  60781.9094     0.18874E+01 
  60814.1716     0.18917E+01 
  60846.4338     0.18960E+01 
  60878.6959     0.19003E+01 
  60910.9581     0.19045E+01 
  60943.2202     0.19088E+01 
  60975.4824     0.19132E+01 
  61007.7446     0.19175E+01 
  61040.0067     0.19218E+01 
  61072.2689     0.19261E+01 
  61104.5310     0.19305E+01 
  61136.7932     0.19348E+01 
  61169.0554     0.19392E+01 
  61201.3175     0.19435E+01 
  61233.5797     0.19479E+01 
  61265.8418     0.19523E+01 
  61298.1040     0.19567E+01 
  61330.3662     0.19611E+01 
  61362.6283     0.19655E+01 
  61394.8905     0.19699E+01 
  61427.1526     0.19743E+01 
  61459.4148     0.19787E+01 
  61491.6770     0.19831E+01 
  61523.9391     0.19876E+01 
  61556.2013     0.19920E+01 
  61588.4634     0.19965E+01 
  61620.7256     0.20009E+01 
  61652.9878     0.20054E+01 
  61685.2499     0.20099E+01 
  61717.5121     0.20144E+01 
  61749.7742     0.20189E+01 
  61782.0364     0.20234E+01 
  61814.2986     0.20279E+01 
  61846.5607     0.20324E+01 
  61878.8229     0.20369E+01 
  61911.0850     0.20414E+01 
  61943.3472     0.20460E+01 
  61975.6094     0.20505E+01 
  62007.8715     0.20551E+01 
  62040.1337     0.20596E+01 
  62072.3958     0.20642E+01 
  62104.6580     0.20688E+01 
  62136.9202     0.20733E+01 
  62169.1823     0.20779E+01 
  62201.4445     0.20825E+01 
  62233.7066     0.20871E+01 
  62265.9688     0.20917E+01 
  62298.2310     0.20964E+01 
  62330.4931     0.21010E+01 
  62362.7553     0.21056E+01 
  62395.0174     0.21103E+01 
  62427.2796     0.21149E+01 
  62459.5418     0.21196E+01 
  62491.8039     0.21242E+01 
  62524.0661     0.21289E+01 
  62556.3282     0.21336E+01 
  62588.5904     0.21383E+01 
  62620.8526     0.21430E+01 
  62653.1147     0.21477E+01 
  62685.3769     0.21524E+01 
  62717.6390     0.21571E+01 
  62749.9012     0.21618E+01 
  62782.1634     0.21666E+01 
  62814.4255     0.21713E+01 
  62846.6877     0.21761E+01 
  62878.9498     0.21808E+01 
  62911.2120     0.21856E+01 
  62943.4742     0.21904E+01 
  62975.7363     0.21951E+01 
  63007.9985     0.21999E+01 
  63040.2606     0.22047E+01 
  63072.5228     0.22095E+01 
  63104.7850     0.22143E+01 
  63137.0471     0.22191E+01 
  63169.3093     0.22240E+01 
  63201.5714     0.22288E+01 
  63233.8336     0.22336E+01 
  63266.0958     0.22385E+01 
  63298.3579     0.22433E+01 
  63330.6201     0.22482E+01 
  63362.8822     0.22531E+01 
  63395.1444     0.22580E+01 
  63427.4066     0.22628E+01 
  63459.6687     0.22677E+01 
  63491.9309     0.22726E+01 
  63524.1930     0.22775E+01 
  63556.4552     0.22825E+01 
  63588.7174     0.22874E+01 
  63620.9795     0.22923E+01 
  63653.2417     0.22973E+01 
  63685.5038     0.23022E+01 
  63717.7660     0.23072E+01 
  63750.0282     0.23121E+01 
  63782.2903     0.23171E+01 
  63814.5525     0.23221E+01 
  63846.8146     0.23271E+01 
  63879.0768     0.23320E+01 
  63911.3390     0.23370E+01 
  63943.6011     0.23421E+01 
  63975.8633     0.23471E+01 
  64008.1254     0.23521E+01 
  64040.3876     0.23571E+01 
  64072.6498     0.23622E+01 
  64104.9119     0.23672E+01 
  64137.1741     0.23723E+01 
  64169.4362     0.23773E+01 
  64201.6984     0.23824E+01 
  64233.9606     0.23875E+01 
  64266.2227     0.23926E+01 
  64298.4849     0.23976E+01 
  64330.7470     0.24027E+01 
  64363.0092     0.24079E+01 
  64395.2714     0.24130E+01 
  64427.5335     0.24181E+01 
  64459.7957     0.24232E+01 
  64492.0578     0.24284E+01 
  64524.3200     0.24335E+01 
  64556.5822     0.24387E+01 
  64588.8443     0.24438E+01 
  64621.1065     0.24490E+01 
  64653.3686     0.24542E+01 
  64685.6308     0.24593E+01 
  64717.8930     0.24645E+01 
  64750.1551     0.24697E+01 
  64782.4173     0.24749E+01 
  64814.6794     0.24802E+01 
  64846.9416     0.24854E+01 
  64879.2038     0.24906E+01 
  64911.4659     0.24958E+01 
  64943.7281     0.25011E+01 
  64975.9902     0.25063E+01 
  65008.2524     0.25116E+01 
  65040.5146     0.25169E+01 
  65072.7767     0.25221E+01 
  65105.0389     0.25274E+01 
  65137.3010     0.25327E+01 
  65169.5632     0.25380E+01 
  65201.8254     0.25433E+01 
  65234.0875     0.25486E+01 
  65266.3497     0.25539E+01 
  65298.6118     0.25593E+01 
  65330.8740     0.25646E+01 
  65363.1362     0.25699E+01 
  65395.3983     0.25753E+01 
  65427.6605     0.25806E+01 
  65459.9226     0.25860E+01 
  65492.1848     0.25914E+01 
  65524.4470     0.25968E+01 
  65556.7091     0.26022E+01 
  65588.9713     0.26075E+01 
  65621.2334     0.26130E+01 
  65653.4956     0.26184E+01 
  65685.7578     0.26238E+01 
  65718.0199     0.26292E+01 
  65750.2821     0.26346E+01 
  65782.5442     0.26401E+01 
  65814.8064     0.26455E+01 
  65847.0686     0.26510E+01 
  65879.3307     0.26564E+01 
  65911.5929     0.26619E+01 
  65943.8550     0.26674E+01 
  65976.1172     0.26729E+01 
  66008.3794     0.26784E+01 
  66040.6415     0.26839E+01 
  66072.9037     0.26894E+01 
  66105.1658     0.26949E+01 
  66137.4280     0.27004E+01 
  66169.6902     0.27060E+01 
  66201.9523     0.27115E+01 
  66234.2145     0.27170E+01 
  66266.4766     0.27226E+01 
  66298.7388     0.27281E+01 
  66331.0010     0.27337E+01 
  66363.2631     0.27393E+01 
  66395.5253     0.27449E+01 
  66427.7874     0.27505E+01 
  66460.0496     0.27561E+01 
  66492.3118     0.27617E+01 
  66524.5739     0.27673E+01 
  66556.8361     0.27729E+01 
  66589.0982     0.27785E+01 
  66621.3604     0.27842E+01 
  66653.6226     0.27898E+01 
  66685.8847     0.27955E+01 
  66718.1469     0.28011E+01 
  66750.4090     0.28068E+01 
  66782.6712     0.28125E+01 
  66814.9334     0.28181E+01 
  66847.1955     0.28238E+01 
  66879.4577     0.28295E+01 
  66911.7198     0.28352E+01 
  66943.9820     0.28409E+01 
  66976.2442     0.28466E+01 
  67008.5063     0.28524E+01 
  67040.7685     0.28581E+01 
  67073.0306     0.28638E+01 
  67105.2928     0.28696E+01 
  67137.5550     0.28753E+01 
  67169.8171     0.28811E+01 
  67202.0793     0.28869E+01 
  67234.3414     0.28927E+01 
  67266.6036     0.28984E+01 
  67298.8658     0.29042E+01 
  67331.1279     0.29100E+01 
  67363.3901     0.29158E+01 
  67395.6522     0.29216E+01 
  67427.9144     0.29275E+01 
  67460.1766     0.29333E+01 
  67492.4387     0.29391E+01 
  67524.7009     0.29450E+01 
  67556.9630     0.29508E+01 
  67589.2252     0.29567E+01 
  67621.4874     0.29625E+01 
  67653.7495     0.29684E+01 
  67686.0117     0.29743E+01 
  67718.2738     0.29802E+01 
  67750.5360     0.29861E+01 
  67782.7982     0.29920E+01 
  67815.0603     0.29979E+01 
  67847.3225     0.30038E+01 
  67879.5846     0.30097E+01 
  67911.8468     0.30157E+01 
  67944.1090     0.30216E+01 
  67976.3711     0.30275E+01 
  68008.6333     0.30335E+01 
  68040.8954     0.30395E+01 
  68073.1576     0.30454E+01 
  68105.4198     0.30514E+01 
  68137.6819     0.30574E+01 
  68169.9441     0.30634E+01 
  68202.2062     0.30694E+01 
  68234.4684     0.30754E+01 
  68266.7306     0.30814E+01 
  68298.9927     0.30874E+01 
  68331.2549     0.30934E+01 
  68363.5170     0.30995E+01 
  68395.7792     0.31055E+01 
  68428.0414     0.31115E+01 
  68460.3035     0.31176E+01 
  68492.5657     0.31237E+01 
  68524.8278     0.31297E+01 
  68557.0900     0.31358E+01 
  68589.3522     0.31419E+01 
  68621.6143     0.31480E+01 
  68653.8765     0.31541E+01 
  68686.1386     0.31602E+01 
  68718.4008     0.31663E+01 
  68750.6630     0.31724E+01 
  68782.9251     0.31785E+01 
  68815.1873     0.31847E+01 
  68847.4494     0.31908E+01 
  68879.7116     0.31970E+01 
  68911.9738     0.32031E+01 
  68944.2359     0.32093E+01 
  68976.4981     0.32155E+01 
  69008.7602     0.32216E+01 
  69041.0224     0.32278E+01 
  69073.2846     0.32340E+01 
  69105.5467     0.32402E+01 
  69137.8089     0.32464E+01 
  69170.0710     0.32526E+01 
  69202.3332     0.32588E+01 
  69234.5954     0.32651E+01 
  69266.8575     0.32713E+01 
  69299.1197     0.32775E+01 
  69331.3818     0.32838E+01 
  69363.6440     0.32900E+01 
  69395.9062     0.32963E+01 
  69428.1683     0.33026E+01 
  69460.4305     0.33089E+01 
  69492.6926     0.33151E+01 
  69524.9548     0.33214E+01 
  69557.2170     0.33277E+01 
  69589.4791     0.33340E+01 
  69621.7413     0.33403E+01 
  69654.0034     0.33467E+01 
  69686.2656     0.33530E+01 
  69718.5278     0.33593E+01 
  69750.7899     0.33657E+01 
  69783.0521     0.33720E+01 
  69815.3142     0.33784E+01 
  69847.5764     0.33847E+01 
  69879.8386     0.33911E+01 
  69912.1007     0.33975E+01 
  69944.3629     0.34039E+01 
  69976.6250     0.34102E+01 
  70008.8872     0.34166E+01 
  70041.1494     0.34230E+01 
  70073.4115     0.34295E+01 
  70105.6737     0.34359E+01 
  70137.9358     0.34423E+01 
  70170.1980     0.34487E+01 
  70202.4602     0.34552E+01 
  70234.7223     0.34616E+01 
  70266.9845     0.34681E+01 
  70299.2466     0.34745E+01 
  70331.5088     0.34810E+01 
  70363.7710     0.34875E+01 
  70396.0331     0.34939E+01 
  70428.2953     0.35004E+01 
  70460.5574     0.35069E+01 
  70492.8196     0.35134E+01 
  70525.0818     0.35199E+01 
  70557.3439     0.35264E+01 
  70589.6061     0.35330E+01 
  70621.8682     0.35395E+01 
  70654.1304     0.35460E+01 
  70686.3926     0.35526E+01 
  70718.6547     0.35591E+01 
  70750.9169     0.35657E+01 
  70783.1790     0.35722E+01 
  70815.4412     0.35788E+01 
  70847.7034     0.35854E+01 
  70879.9655     0.35920E+01 
  70912.2277     0.35986E+01 
  70944.4898     0.36052E+01 
  70976.7520     0.36118E+01 
  71009.0142     0.36184E+01 
  71041.2763     0.36250E+01 
  71073.5385     0.36316E+01 
  71105.8006     0.36383E+01 
  71138.0628     0.36449E+01 
  71170.3250     0.36516E+01 
  71202.5871     0.36582E+01 
  71234.8493     0.36649E+01 
  71267.1114     0.36715E+01 
  71299.3736     0.36782E+01 
  71331.6358     0.36849E+01 
  71363.8979     0.36916E+01 
  71396.1601     0.36983E+01 
  71428.4222     0.37050E+01 
  71460.6844     0.37117E+01 
  71492.9466     0.37184E+01 
  71525.2087     0.37251E+01 
  71557.4709     0.37318E+01 
  71589.7330     0.37386E+01 
  71621.9952     0.37453E+01 
  71654.2574     0.37521E+01 
  71686.5195     0.37588E+01 
  71718.7817     0.37656E+01 
  71751.0438     0.37724E+01 
  71783.3060     0.37791E+01 
  71815.5682     0.37859E+01 
  71847.8303     0.37927E+01 
  71880.0925     0.37995E+01 
  71912.3546     0.38063E+01 
  71944.6168     0.38131E+01 
  71976.8790     0.38199E+01 
  72009.1411     0.38268E+01 
  72041.4033     0.38336E+01 
  72073.6654     0.38404E+01 
  72105.9276     0.38473E+01 
  72138.1898     0.38541E+01 
  72170.4519     0.38610E+01 
  72202.7141     0.38678E+01 
  72234.9762     0.38747E+01 
  72267.2384     0.38816E+01 
  72299.5006     0.38885E+01 
  72331.7627     0.38954E+01 
  72364.0249     0.39023E+01 
  72396.2870     0.39092E+01 
  72428.5492     0.39161E+01 
  72460.8114     0.39230E+01 
  72493.0735     0.39299E+01 
  72525.3357     0.39369E+01 
  72557.5978     0.39438E+01 
  72589.8600     0.39507E+01 
