  32262.1600     0.14413E-05 
  32294.4222     0.14526E-05 
  32326.6843     0.14639E-05 
  32358.9465     0.14752E-05 
  32391.2086     0.14867E-05 
  32423.4708     0.14981E-05 
  32455.7330     0.15096E-05 
  32487.9951     0.15212E-05 
  32520.2573     0.15328E-05 
  32552.5194     0.15445E-05 
  32584.7816     0.15562E-05 
  32617.0438     0.15679E-05 
  32649.3059     0.15798E-05 
  32681.5681     0.15916E-05 
  32713.8302     0.16035E-05 
  32746.0924     0.16155E-05 
  32778.3546     0.16275E-05 
  32810.6167     0.16395E-05 
  32842.8789     0.16516E-05 
  32875.1410     0.16638E-05 
  32907.4032     0.16760E-05 
  32939.6654     0.16882E-05 
  32971.9275     0.17005E-05 
  33004.1897     0.17129E-05 
  33036.4518     0.17253E-05 
  33068.7140     0.17377E-05 
  33100.9762     0.17502E-05 
  33133.2383     0.17627E-05 
  33165.5005     0.17753E-05 
  33197.7626     0.17879E-05 
  33230.0248     0.18006E-05 
  33262.2870     0.18133E-05 
  33294.5491     0.18260E-05 
  33326.8113     0.18388E-05 
  33359.0734     0.18517E-05 
  33391.3356     0.18646E-05 
  33423.5978     0.18775E-05 
  33455.8599     0.18905E-05 
  33488.1221     0.19035E-05 
  33520.3842     0.19166E-05 
  33552.6464     0.19297E-05 
  33584.9086     0.19428E-05 
  33617.1707     0.19560E-05 
  33649.4329     0.19692E-05 
  33681.6950     0.19825E-05 
  33713.9572     0.19959E-05 
  33746.2194     0.20092E-05 
  33778.4815     0.20226E-05 
  33810.7437     0.20361E-05 
  33843.0058     0.20496E-05 
  33875.2680     0.20631E-05 
  33907.5302     0.20767E-05 
  33939.7923     0.20903E-05 
  33972.0545     0.21039E-05 
  34004.3166     0.21176E-05 
  34036.5788     0.21313E-05 
  34068.8410     0.21451E-05 
  34101.1031     0.21589E-05 
  34133.3653     0.21727E-05 
  34165.6274     0.21866E-05 
  34197.8896     0.22005E-05 
  34230.1518     0.22145E-05 
  34262.4139     0.22285E-05 
  34294.6761     0.22425E-05 
  34326.9382     0.22566E-05 
  34359.2004     0.22707E-05 
  34391.4626     0.22848E-05 
  34423.7247     0.22990E-05 
  34455.9869     0.23132E-05 
  34488.2490     0.23274E-05 
  34520.5112     0.23417E-05 
  34552.7734     0.23560E-05 
  34585.0355     0.23704E-05 
  34617.2977     0.23847E-05 
  34649.5598     0.23991E-05 
  34681.8220     0.24136E-05 
  34714.0842     0.24281E-05 
  34746.3463     0.24426E-05 
  34778.6085     0.24571E-05 
  34810.8706     0.24717E-05 
  34843.1328     0.24862E-05 
  34875.3950     0.25009E-05 
  34907.6571     0.25155E-05 
  34939.9193     0.25302E-05 
  34972.1814     0.25449E-05 
  35004.4436     0.25597E-05 
  35036.7058     0.25744E-05 
  35068.9679     0.25892E-05 
  35101.2301     0.26041E-05 
  35133.4922     0.26189E-05 
  35165.7544     0.26338E-05 
  35198.0166     0.26487E-05 
  35230.2787     0.26636E-05 
  35262.5409     0.26786E-05 
  35294.8030     0.26935E-05 
  35327.0652     0.27085E-05 
  35359.3274     0.27236E-05 
  35391.5895     0.27386E-05 
  35423.8517     0.27537E-05 
  35456.1138     0.27688E-05 
  35488.3760     0.27839E-05 
  35520.6382     0.27990E-05 
  35552.9003     0.28142E-05 
  35585.1625     0.28294E-05 
  35617.4246     0.28446E-05 
  35649.6868     0.28598E-05 
  35681.9490     0.28750E-05 
  35714.2111     0.28903E-05 
  35746.4733     0.29055E-05 
  35778.7354     0.29208E-05 
  35810.9976     0.29361E-05 
  35843.2598     0.29515E-05 
  35875.5219     0.29668E-05 
  35907.7841     0.29822E-05 
  35940.0462     0.29975E-05 
  35972.3084     0.30129E-05 
  36004.5706     0.30283E-05 
  36036.8327     0.30437E-05 
  36069.0949     0.30592E-05 
  36101.3570     0.30746E-05 
  36133.6192     0.30901E-05 
  36165.8814     0.31055E-05 
  36198.1435     0.31210E-05 
  36230.4057     0.31365E-05 
  36262.6678     0.31520E-05 
  36294.9300     0.31675E-05 
  36327.1922     0.31830E-05 
  36359.4543     0.31986E-05 
  36391.7165     0.32141E-05 
  36423.9786     0.32296E-05 
  36456.2408     0.32452E-05 
  36488.5030     0.32607E-05 
  36520.7651     0.32763E-05 
  36553.0273     0.32919E-05 
  36585.2894     0.33074E-05 
  36617.5516     0.33230E-05 
  36649.8138     0.33386E-05 
  36682.0759     0.33542E-05 
  36714.3381     0.33698E-05 
  36746.6002     0.33854E-05 
  36778.8624     0.34010E-05 
  36811.1246     0.34166E-05 
  36843.3867     0.34321E-05 
  36875.6489     0.34477E-05 
  36907.9110     0.34633E-05 
  36940.1732     0.34789E-05 
  36972.4354     0.34945E-05 
  37004.6975     0.35101E-05 
  37036.9597     0.35257E-05 
  37069.2218     0.35413E-05 
  37101.4840     0.35569E-05 
  37133.7462     0.35724E-05 
  37166.0083     0.35880E-05 
  37198.2705     0.36036E-05 
  37230.5326     0.36192E-05 
  37262.7948     0.36347E-05 
  37295.0570     0.36503E-05 
  37327.3191     0.36658E-05 
  37359.5813     0.36813E-05 
  37391.8434     0.36969E-05 
  37424.1056     0.37124E-05 
  37456.3678     0.37279E-05 
  37488.6299     0.37434E-05 
  37520.8921     0.37589E-05 
  37553.1542     0.37743E-05 
  37585.4164     0.37898E-05 
  37617.6786     0.38052E-05 
  37649.9407     0.38207E-05 
  37682.2029     0.38361E-05 
  37714.4650     0.38515E-05 
  37746.7272     0.38669E-05 
  37778.9894     0.38823E-05 
  37811.2515     0.38977E-05 
  37843.5137     0.39130E-05 
  37875.7758     0.39283E-05 
  37908.0380     0.39436E-05 
  37940.3002     0.39589E-05 
  37972.5623     0.39742E-05 
  38004.8245     0.39895E-05 
  38037.0866     0.40047E-05 
  38069.3488     0.40199E-05 
  38101.6110     0.40351E-05 
  38133.8731     0.40503E-05 
  38166.1353     0.40654E-05 
  38198.3974     0.40806E-05 
  38230.6596     0.40957E-05 
  38262.9218     0.41107E-05 
  38295.1839     0.41258E-05 
  38327.4461     0.41408E-05 
  38359.7082     0.41558E-05 
  38391.9704     0.41708E-05 
  38424.2326     0.41858E-05 
  38456.4947     0.42007E-05 
  38488.7569     0.42156E-05 
  38521.0190     0.42305E-05 
  38553.2812     0.42453E-05 
  38585.5434     0.42601E-05 
  38617.8055     0.42749E-05 
  38650.0677     0.42896E-05 
  38682.3298     0.43044E-05 
  38714.5920     0.43190E-05 
  38746.8542     0.43337E-05 
  38779.1163     0.43483E-05 
  38811.3785     0.43629E-05 
  38843.6406     0.43775E-05 
  38875.9028     0.43920E-05 
  38908.1650     0.44065E-05 
  38940.4271     0.44209E-05 
  38972.6893     0.44353E-05 
  39004.9514     0.44497E-05 
  39037.2136     0.44640E-05 
  39069.4758     0.44783E-05 
  39101.7379     0.44926E-05 
  39134.0001     0.45068E-05 
  39166.2622     0.45210E-05 
  39198.5244     0.45351E-05 
  39230.7866     0.45492E-05 
  39263.0487     0.45633E-05 
  39295.3109     0.45773E-05 
  39327.5730     0.45913E-05 
  39359.8352     0.46052E-05 
  39392.0974     0.46191E-05 
  39424.3595     0.46329E-05 
  39456.6217     0.46467E-05 
  39488.8838     0.46605E-05 
  39521.1460     0.46742E-05 
  39553.4082     0.46878E-05 
  39585.6703     0.47015E-05 
  39617.9325     0.47150E-05 
  39650.1946     0.47285E-05 
  39682.4568     0.47420E-05 
  39714.7190     0.47554E-05 
  39746.9811     0.47688E-05 
  39779.2433     0.47821E-05 
  39811.5054     0.47954E-05 
  39843.7676     0.48086E-05 
  39876.0298     0.48218E-05 
  39908.2919     0.48349E-05 
  39940.5541     0.48480E-05 
  39972.8162     0.48610E-05 
  40005.0784     0.48739E-05 
  40037.3406     0.48868E-05 
  40069.6027     0.48997E-05 
  40101.8649     0.49125E-05 
  40134.1270     0.49252E-05 
  40166.3892     0.49379E-05 
  40198.6514     0.49505E-05 
  40230.9135     0.49631E-05 
  40263.1757     0.49756E-05 
  40295.4378     0.49881E-05 
  40327.7000     0.50005E-05 
  40359.9622     0.50128E-05 
  40392.2243     0.50251E-05 
  40424.4865     0.50373E-05 
  40456.7486     0.50494E-05 
  40489.0108     0.50615E-05 
  40521.2730     0.50736E-05 
  40553.5351     0.50855E-05 
  40585.7973     0.50974E-05 
  40618.0594     0.51093E-05 
  40650.3216     0.51211E-05 
  40682.5838     0.51328E-05 
  40714.8459     0.51444E-05 
  40747.1081     0.51560E-05 
  40779.3702     0.51675E-05 
  40811.6324     0.51790E-05 
  40843.8946     0.51904E-05 
  40876.1567     0.52017E-05 
  40908.4189     0.52130E-05 
  40940.6810     0.52241E-05 
  40972.9432     0.52353E-05 
  41005.2054     0.52463E-05 
  41037.4675     0.52573E-05 
  41069.7297     0.52682E-05 
  41101.9918     0.52791E-05 
  41134.2540     0.52898E-05 
  41166.5162     0.53005E-05 
  41198.7783     0.53112E-05 
  41231.0405     0.53217E-05 
  41263.3026     0.53322E-05 
  41295.5648     0.53426E-05 
  41327.8270     0.53530E-05 
  41360.0891     0.53633E-05 
  41392.3513     0.53735E-05 
  41424.6134     0.53836E-05 
  41456.8756     0.53936E-05 
  41489.1378     0.54036E-05 
  41521.3999     0.54135E-05 
  41553.6621     0.54233E-05 
  41585.9242     0.54331E-05 
  41618.1864     0.54428E-05 
  41650.4486     0.54524E-05 
  41682.7107     0.54619E-05 
  41714.9729     0.54713E-05 
  41747.2350     0.54807E-05 
  41779.4972     0.54900E-05 
  41811.7594     0.54992E-05 
  41844.0215     0.55083E-05 
  41876.2837     0.55174E-05 
  41908.5458     0.55263E-05 
  41940.8080     0.55352E-05 
  41973.0702     0.55440E-05 
  42005.3323     0.55528E-05 
  42037.5945     0.55614E-05 
  42069.8566     0.55700E-05 
  42102.1188     0.55785E-05 
  42134.3810     0.55869E-05 
  42166.6431     0.55952E-05 
  42198.9053     0.56035E-05 
  42231.1674     0.56116E-05 
  42263.4296     0.56197E-05 
  42295.6918     0.56277E-05 
  42327.9539     0.56356E-05 
  42360.2161     0.56435E-05 
  42392.4782     0.56512E-05 
  42424.7404     0.56589E-05 
  42457.0026     0.56664E-05 
  42489.2647     0.56739E-05 
  42521.5269     0.56813E-05 
  42553.7890     0.56887E-05 
  42586.0512     0.56959E-05 
  42618.3134     0.57030E-05 
  42650.5755     0.57101E-05 
  42682.8377     0.57171E-05 
  42715.0998     0.57240E-05 
  42747.3620     0.57308E-05 
  42779.6242     0.57375E-05 
  42811.8863     0.57441E-05 
  42844.1485     0.57507E-05 
  42876.4106     0.57571E-05 
  42908.6728     0.57635E-05 
  42940.9350     0.57698E-05 
  42973.1971     0.57760E-05 
  43005.4593     0.57821E-05 
  43037.7214     0.57881E-05 
  43069.9836     0.57940E-05 
  43102.2458     0.57998E-05 
  43134.5079     0.58056E-05 
  43166.7701     0.58112E-05 
  43199.0322     0.58168E-05 
  43231.2944     0.58223E-05 
  43263.5566     0.58276E-05 
  43295.8187     0.58329E-05 
  43328.0809     0.58381E-05 
  43360.3430     0.58432E-05 
  43392.6052     0.58483E-05 
  43424.8674     0.58532E-05 
  43457.1295     0.58580E-05 
  43489.3917     0.58628E-05 
  43521.6538     0.58674E-05 
  43553.9160     0.58720E-05 
  43586.1782     0.58765E-05 
  43618.4403     0.58808E-05 
  43650.7025     0.58851E-05 
  43682.9646     0.58893E-05 
  43715.2268     0.58934E-05 
  43747.4890     0.58974E-05 
  43779.7511     0.59014E-05 
  43812.0133     0.59052E-05 
  43844.2754     0.59089E-05 
  43876.5376     0.59125E-05 
  43908.7998     0.59161E-05 
  43941.0619     0.59195E-05 
  43973.3241     0.59229E-05 
  44005.5862     0.59262E-05 
  44037.8484     0.59293E-05 
  44070.1106     0.59324E-05 
  44102.3727     0.59354E-05 
  44134.6349     0.59383E-05 
  44166.8970     0.59411E-05 
  44199.1592     0.59438E-05 
  44231.4214     0.59464E-05 
  44263.6835     0.59489E-05 
  44295.9457     0.59514E-05 
  44328.2078     0.59537E-05 
  44360.4700     0.59559E-05 
  44392.7322     0.59581E-05 
  44424.9943     0.59601E-05 
  44457.2565     0.59621E-05 
  44489.5186     0.59639E-05 
  44521.7808     0.59657E-05 
  44554.0430     0.59673E-05 
  44586.3051     0.59689E-05 
  44618.5673     0.59704E-05 
  44650.8294     0.59718E-05 
  44683.0916     0.59731E-05 
  44715.3538     0.59743E-05 
  44747.6159     0.59754E-05 
  44779.8781     0.59764E-05 
  44812.1402     0.59773E-05 
  44844.4024     0.59781E-05 
  44876.6646     0.59789E-05 
  44908.9267     0.59795E-05 
  44941.1889     0.59800E-05 
  44973.4510     0.59805E-05 
  45005.7132     0.59808E-05 
  45037.9754     0.59811E-05 
  45070.2375     0.59813E-05 
  45102.4997     0.59813E-05 
  45134.7618     0.59813E-05 
  45167.0240     0.59812E-05 
  45199.2862     0.59810E-05 
  45231.5483     0.59807E-05 
  45263.8105     0.59803E-05 
  45296.0726     0.59798E-05 
  45328.3348     0.59792E-05 
  45360.5970     0.59785E-05 
  45392.8591     0.59777E-05 
  45425.1213     0.59769E-05 
  45457.3834     0.59759E-05 
  45489.6456     0.59749E-05 
  45521.9078     0.59737E-05 
  45554.1699     0.59725E-05 
  45586.4321     0.59711E-05 
  45618.6942     0.59697E-05 
  45650.9564     0.59682E-05 
  45683.2186     0.59666E-05 
  45715.4807     0.59649E-05 
  45747.7429     0.59631E-05 
  45780.0050     0.59612E-05 
  45812.2672     0.59593E-05 
  45844.5294     0.59572E-05 
  45876.7915     0.59550E-05 
  45909.0537     0.59528E-05 
  45941.3158     0.59504E-05 
  45973.5780     0.59480E-05 
  46005.8402     0.59455E-05 
  46038.1023     0.59429E-05 
  46070.3645     0.59402E-05 
  46102.6266     0.59374E-05 
  46134.8888     0.59345E-05 
  46167.1510     0.59315E-05 
  46199.4131     0.59284E-05 
  46231.6753     0.59253E-05 
  46263.9374     0.59220E-05 
  46296.1996     0.59187E-05 
  46328.4618     0.59153E-05 
  46360.7239     0.59118E-05 
  46392.9861     0.59082E-05 
  46425.2482     0.59045E-05 
  46457.5104     0.59007E-05 
  46489.7726     0.58968E-05 
  46522.0347     0.58929E-05 
  46554.2969     0.58888E-05 
  46586.5590     0.58847E-05 
  46618.8212     0.58805E-05 
  46651.0834     0.58762E-05 
  46683.3455     0.58718E-05 
  46715.6077     0.58673E-05 
  46747.8698     0.58627E-05 
  46780.1320     0.58581E-05 
  46812.3942     0.58533E-05 
  46844.6563     0.58485E-05 
  46876.9185     0.58436E-05 
  46909.1806     0.58386E-05 
  46941.4428     0.58335E-05 
  46973.7050     0.58283E-05 
  47005.9671     0.58231E-05 
  47038.2293     0.58178E-05 
  47070.4914     0.58123E-05 
  47102.7536     0.58068E-05 
  47135.0158     0.58013E-05 
  47167.2779     0.57956E-05 
  47199.5401     0.57898E-05 
  47231.8022     0.57840E-05 
  47264.0644     0.57781E-05 
  47296.3266     0.57721E-05 
  47328.5887     0.57660E-05 
  47360.8509     0.57598E-05 
  47393.1130     0.57536E-05 
  47425.3752     0.57473E-05 
  47457.6374     0.57408E-05 
  47489.8995     0.57344E-05 
  47522.1617     0.57278E-05 
  47554.4238     0.57211E-05 
  47586.6860     0.57144E-05 
  47618.9482     0.57076E-05 
  47651.2103     0.57007E-05 
  47683.4725     0.56937E-05 
  47715.7346     0.56867E-05 
  47747.9968     0.56796E-05 
  47780.2590     0.56724E-05 
  47812.5211     0.56651E-05 
  47844.7833     0.56577E-05 
  47877.0454     0.56503E-05 
  47909.3076     0.56428E-05 
  47941.5698     0.56352E-05 
  47973.8319     0.56276E-05 
  48006.0941     0.56198E-05 
  48038.3562     0.56120E-05 
  48070.6184     0.56041E-05 
  48102.8806     0.55962E-05 
  48135.1427     0.55881E-05 
  48167.4049     0.55800E-05 
  48199.6670     0.55718E-05 
  48231.9292     0.55636E-05 
  48264.1914     0.55552E-05 
  48296.4535     0.55468E-05 
  48328.7157     0.55384E-05 
  48360.9778     0.55298E-05 
  48393.2400     0.55212E-05 
  48425.5022     0.55125E-05 
  48457.7643     0.55038E-05 
  48490.0265     0.54949E-05 
  48522.2886     0.54860E-05 
  48554.5508     0.54771E-05 
  48586.8130     0.54680E-05 
  48619.0751     0.54589E-05 
  48651.3373     0.54497E-05 
  48683.5994     0.54405E-05 
  48715.8616     0.54312E-05 
  48748.1238     0.54218E-05 
  48780.3859     0.54123E-05 
  48812.6481     0.54028E-05 
  48844.9102     0.53932E-05 
  48877.1724     0.53836E-05 
  48909.4346     0.53739E-05 
  48941.6967     0.53641E-05 
  48973.9589     0.53543E-05 
  49006.2210     0.53444E-05 
  49038.4832     0.53344E-05 
  49070.7454     0.53244E-05 
  49103.0075     0.53143E-05 
  49135.2697     0.53041E-05 
  49167.5318     0.52939E-05 
  49199.7940     0.52836E-05 
  49232.0562     0.52732E-05 
  49264.3183     0.52628E-05 
  49296.5805     0.52523E-05 
  49328.8426     0.52418E-05 
  49361.1048     0.52312E-05 
  49393.3670     0.52206E-05 
  49425.6291     0.52099E-05 
  49457.8913     0.51991E-05 
  49490.1534     0.51883E-05 
  49522.4156     0.51774E-05 
  49554.6778     0.51664E-05 
  49586.9399     0.51554E-05 
  49619.2021     0.51444E-05 
  49651.4642     0.51332E-05 
  49683.7264     0.51221E-05 
  49715.9886     0.51108E-05 
  49748.2507     0.50996E-05 
  49780.5129     0.50882E-05 
  49812.7750     0.50768E-05 
  49845.0372     0.50654E-05 
  49877.2994     0.50539E-05 
  49909.5615     0.50423E-05 
  49941.8237     0.50307E-05 
  49974.0858     0.50191E-05 
  50006.3480     0.50073E-05 
  50038.6102     0.49956E-05 
  50070.8723     0.49838E-05 
  50103.1345     0.49719E-05 
  50135.3966     0.49600E-05 
  50167.6588     0.49480E-05 
  50199.9210     0.49360E-05 
  50232.1831     0.49239E-05 
  50264.4453     0.49118E-05 
  50296.7074     0.48997E-05 
  50328.9696     0.48874E-05 
  50361.2318     0.48752E-05 
  50393.4939     0.48629E-05 
  50425.7561     0.48505E-05 
  50458.0182     0.48381E-05 
  50490.2804     0.48257E-05 
  50522.5426     0.48132E-05 
  50554.8047     0.48007E-05 
  50587.0669     0.47881E-05 
  50619.3290     0.47755E-05 
  50651.5912     0.47628E-05 
  50683.8534     0.47501E-05 
  50716.1155     0.47373E-05 
  50748.3777     0.47245E-05 
  50780.6398     0.47117E-05 
  50812.9020     0.46988E-05 
  50845.1642     0.46859E-05 
  50877.4263     0.46729E-05 
  50909.6885     0.46599E-05 
  50941.9506     0.46469E-05 
  50974.2128     0.46338E-05 
  51006.4750     0.46207E-05 
  51038.7371     0.46075E-05 
  51070.9993     0.45943E-05 
  51103.2614     0.45811E-05 
  51135.5236     0.45678E-05 
  51167.7858     0.45545E-05 
  51200.0479     0.45411E-05 
  51232.3101     0.45278E-05 
  51264.5722     0.45143E-05 
  51296.8344     0.45009E-05 
  51329.0966     0.44874E-05 
  51361.3587     0.44739E-05 
  51393.6209     0.44603E-05 
  51425.8830     0.44467E-05 
  51458.1452     0.44331E-05 
  51490.4074     0.44194E-05 
  51522.6695     0.44058E-05 
  51554.9317     0.43920E-05 
  51587.1938     0.43783E-05 
  51619.4560     0.43645E-05 
  51651.7182     0.43507E-05 
  51683.9803     0.43368E-05 
  51716.2425     0.43230E-05 
  51748.5046     0.43091E-05 
  51780.7668     0.42951E-05 
  51813.0290     0.42812E-05 
  51845.2911     0.42672E-05 
  51877.5533     0.42532E-05 
  51909.8154     0.42391E-05 
  51942.0776     0.42251E-05 
  51974.3398     0.42110E-05 
  52006.6019     0.41968E-05 
  52038.8641     0.41827E-05 
  52071.1262     0.41685E-05 
  52103.3884     0.41543E-05 
  52135.6506     0.41401E-05 
  52167.9127     0.41259E-05 
  52200.1749     0.41116E-05 
  52232.4370     0.40973E-05 
  52264.6992     0.40830E-05 
  52296.9614     0.40687E-05 
  52329.2235     0.40543E-05 
  52361.4857     0.40399E-05 
  52393.7478     0.40255E-05 
  52426.0100     0.40111E-05 
  52458.2722     0.39967E-05 
  52490.5343     0.39822E-05 
  52522.7965     0.39677E-05 
  52555.0586     0.39532E-05 
  52587.3208     0.39387E-05 
  52619.5830     0.39242E-05 
  52651.8451     0.39096E-05 
  52684.1073     0.38951E-05 
  52716.3694     0.38805E-05 
  52748.6316     0.38659E-05 
  52780.8938     0.38513E-05 
  52813.1559     0.38366E-05 
  52845.4181     0.38220E-05 
  52877.6802     0.38073E-05 
  52909.9424     0.37927E-05 
  52942.2046     0.37780E-05 
  52974.4667     0.37633E-05 
  53006.7289     0.37485E-05 
  53038.9910     0.37338E-05 
  53071.2532     0.37191E-05 
  53103.5154     0.37043E-05 
  53135.7775     0.36896E-05 
  53168.0397     0.36748E-05 
  53200.3018     0.36600E-05 
  53232.5640     0.36452E-05 
  53264.8262     0.36304E-05 
  53297.0883     0.36156E-05 
  53329.3505     0.36008E-05 
  53361.6126     0.35860E-05 
  53393.8748     0.35711E-05 
  53426.1370     0.35563E-05 
  53458.3991     0.35414E-05 
  53490.6613     0.35266E-05 
  53522.9234     0.35117E-05 
  53555.1856     0.34968E-05 
  53587.4478     0.34820E-05 
  53619.7099     0.34671E-05 
  53651.9721     0.34522E-05 
  53684.2342     0.34373E-05 
  53716.4964     0.34224E-05 
  53748.7586     0.34075E-05 
  53781.0207     0.33926E-05 
  53813.2829     0.33777E-05 
  53845.5450     0.33628E-05 
  53877.8072     0.33479E-05 
  53910.0694     0.33330E-05 
  53942.3315     0.33181E-05 
  53974.5937     0.33032E-05 
  54006.8558     0.32883E-05 
  54039.1180     0.32734E-05 
  54071.3802     0.32585E-05 
  54103.6423     0.32436E-05 
  54135.9045     0.32287E-05 
  54168.1666     0.32138E-05 
  54200.4288     0.31989E-05 
  54232.6910     0.31840E-05 
  54264.9531     0.31691E-05 
  54297.2153     0.31542E-05 
  54329.4774     0.31393E-05 
  54361.7396     0.31244E-05 
  54394.0018     0.31096E-05 
  54426.2639     0.30947E-05 
  54458.5261     0.30798E-05 
  54490.7882     0.30650E-05 
  54523.0504     0.30501E-05 
  54555.3126     0.30353E-05 
  54587.5747     0.30204E-05 
  54619.8369     0.30056E-05 
  54652.0990     0.29908E-05 
  54684.3612     0.29760E-05 
  54716.6234     0.29612E-05 
  54748.8855     0.29464E-05 
  54781.1477     0.29316E-05 
  54813.4098     0.29168E-05 
  54845.6720     0.29021E-05 
  54877.9342     0.28873E-05 
  54910.1963     0.28726E-05 
  54942.4585     0.28578E-05 
  54974.7206     0.28431E-05 
  55006.9828     0.28284E-05 
  55039.2450     0.28137E-05 
  55071.5071     0.27991E-05 
  55103.7693     0.27844E-05 
  55136.0314     0.27698E-05 
  55168.2936     0.27551E-05 
  55200.5558     0.27405E-05 
  55232.8179     0.27259E-05 
  55265.0801     0.27113E-05 
  55297.3422     0.26968E-05 
  55329.6044     0.26822E-05 
  55361.8666     0.26677E-05 
  55394.1287     0.26532E-05 
  55426.3909     0.26387E-05 
  55458.6530     0.26242E-05 
  55490.9152     0.26098E-05 
  55523.1774     0.25953E-05 
  55555.4395     0.25809E-05 
  55587.7017     0.25665E-05 
  55619.9638     0.25522E-05 
  55652.2260     0.25378E-05 
  55684.4882     0.25235E-05 
  55716.7503     0.25092E-05 
  55749.0125     0.24949E-05 
  55781.2746     0.24806E-05 
  55813.5368     0.24664E-05 
  55845.7990     0.24522E-05 
  55878.0611     0.24380E-05 
  55910.3233     0.24238E-05 
  55942.5854     0.24097E-05 
  55974.8476     0.23956E-05 
  56007.1098     0.23815E-05 
  56039.3719     0.23675E-05 
  56071.6341     0.23534E-05 
  56103.8962     0.23394E-05 
  56136.1584     0.23255E-05 
  56168.4206     0.23115E-05 
  56200.6827     0.22976E-05 
  56232.9449     0.22837E-05 
  56265.2070     0.22699E-05 
  56297.4692     0.22561E-05 
  56329.7314     0.22423E-05 
  56361.9935     0.22285E-05 
  56394.2557     0.22148E-05 
  56426.5178     0.22011E-05 
  56458.7800     0.21875E-05 
  56491.0422     0.21739E-05 
  56523.3043     0.21603E-05 
  56555.5665     0.21467E-05 
  56587.8286     0.21332E-05 
  56620.0908     0.21197E-05 
  56652.3530     0.21063E-05 
  56684.6151     0.20929E-05 
  56716.8773     0.20795E-05 
  56749.1394     0.20662E-05 
  56781.4016     0.20529E-05 
  56813.6638     0.20397E-05 
  56845.9259     0.20265E-05 
  56878.1881     0.20133E-05 
  56910.4502     0.20002E-05 
  56942.7124     0.19871E-05 
  56974.9746     0.19740E-05 
  57007.2367     0.19610E-05 
  57039.4989     0.19481E-05 
  57071.7610     0.19352E-05 
  57104.0232     0.19223E-05 
  57136.2854     0.19095E-05 
  57168.5475     0.18967E-05 
  57200.8097     0.18840E-05 
  57233.0718     0.18713E-05 
  57265.3340     0.18586E-05 
  57297.5962     0.18461E-05 
  57329.8583     0.18335E-05 
  57362.1205     0.18210E-05 
  57394.3826     0.18086E-05 
  57426.6448     0.17962E-05 
  57458.9070     0.17839E-05 
  57491.1691     0.17716E-05 
  57523.4313     0.17593E-05 
  57555.6934     0.17472E-05 
  57587.9556     0.17350E-05 
  57620.2178     0.17230E-05 
  57652.4799     0.17109E-05 
  57684.7421     0.16990E-05 
  57717.0042     0.16871E-05 
  57749.2664     0.16752E-05 
  57781.5286     0.16634E-05 
  57813.7907     0.16517E-05 
  57846.0529     0.16400E-05 
  57878.3150     0.16284E-05 
  57910.5772     0.16169E-05 
  57942.8394     0.16054E-05 
  57975.1015     0.15940E-05 
  58007.3637     0.15826E-05 
  58039.6258     0.15713E-05 
  58071.8880     0.15600E-05 
  58104.1502     0.15489E-05 
  58136.4123     0.15378E-05 
  58168.6745     0.15267E-05 
  58200.9366     0.15157E-05 
  58233.1988     0.15048E-05 
  58265.4610     0.14940E-05 
  58297.7231     0.14832E-05 
  58329.9853     0.14725E-05 
  58362.2474     0.14619E-05 
  58394.5096     0.14514E-05 
  58426.7718     0.14409E-05 
  58459.0339     0.14305E-05 
  58491.2961     0.14201E-05 
  58523.5582     0.14099E-05 
  58555.8204     0.13997E-05 
  58588.0826     0.13896E-05 
  58620.3447     0.13796E-05 
  58652.6069     0.13696E-05 
  58684.8690     0.13597E-05 
  58717.1312     0.13499E-05 
  58749.3934     0.13402E-05 
  58781.6555     0.13306E-05 
  58813.9177     0.13211E-05 
  58846.1798     0.13116E-05 
  58878.4420     0.13022E-05 
  58910.7042     0.12929E-05 
  58942.9663     0.12837E-05 
  58975.2285     0.12746E-05 
  59007.4906     0.12656E-05 
  59039.7528     0.12567E-05 
  59072.0150     0.12478E-05 
  59104.2771     0.12391E-05 
  59136.5393     0.12304E-05 
  59168.8014     0.12218E-05 
  59201.0636     0.12134E-05 
  59233.3258     0.12050E-05 
  59265.5879     0.11967E-05 
  59297.8501     0.11885E-05 
  59330.1122     0.11804E-05 
  59362.3744     0.11724E-05 
  59394.6366     0.11646E-05 
  59426.8987     0.11568E-05 
  59459.1609     0.11491E-05 
  59491.4230     0.11415E-05 
  59523.6852     0.11340E-05 
  59555.9474     0.11267E-05 
  59588.2095     0.11194E-05 
  59620.4717     0.11123E-05 
  59652.7338     0.11052E-05 
  59684.9960     0.10983E-05 
  59717.2582     0.10915E-05 
  59749.5203     0.10848E-05 
  59781.7825     0.10782E-05 
  59814.0446     0.10717E-05 
  59846.3068     0.10654E-05 
  59878.5690     0.10591E-05 
  59910.8311     0.10530E-05 
  59943.0933     0.10470E-05 
  59975.3554     0.10411E-05 
  60007.6176     0.10354E-05 
  60039.8798     0.10297E-05 
  60072.1419     0.10242E-05 
  60104.4041     0.10188E-05 
  60136.6662     0.10136E-05 
  60168.9284     0.10085E-05 
  60201.1906     0.10035E-05 
  60233.4527     0.99860E-06 
  60265.7149     0.99387E-06 
  60297.9770     0.98927E-06 
  60330.2392     0.98482E-06 
  60362.5014     0.98050E-06 
  60394.7635     0.97631E-06 
  60427.0257     0.97227E-06 
  60459.2878     0.96837E-06 
  60491.5500     0.96462E-06 
  60523.8122     0.96100E-06 
  60556.0743     0.95754E-06 
  60588.3365     0.95422E-06 
  60620.5986     0.95105E-06 
  60652.8608     0.94803E-06 
  60685.1230     0.94516E-06 
  60717.3851     0.94244E-06 
  60749.6473     0.93988E-06 
  60781.9094     0.93748E-06 
  60814.1716     0.93523E-06 
  60846.4338     0.93315E-06 
  60878.6959     0.93122E-06 
  60910.9581     0.92946E-06 
  60943.2202     0.92786E-06 
  60975.4824     0.92643E-06 
  61007.7446     0.92516E-06 
  61040.0067     0.92407E-06 
  61072.2689     0.92314E-06 
  61104.5310     0.92239E-06 
  61136.7932     0.92181E-06 
  61169.0554     0.92141E-06 
  61201.3175     0.92119E-06 
  61233.5797     0.92114E-06 
  61265.8418     0.92128E-06 
  61298.1040     0.92160E-06 
  61330.3662     0.92210E-06 
  61362.6283     0.92279E-06 
  61394.8905     0.92367E-06 
  61427.1526     0.92473E-06 
  61459.4148     0.92599E-06 
  61491.6770     0.92745E-06 
  61523.9391     0.92909E-06 
  61556.2013     0.93094E-06 
  61588.4634     0.93298E-06 
  61620.7256     0.93523E-06 
  61652.9878     0.93768E-06 
  61685.2499     0.94033E-06 
  61717.5121     0.94319E-06 
  61749.7742     0.94626E-06 
  61782.0364     0.94954E-06 
  61814.2986     0.95303E-06 
  61846.5607     0.95674E-06 
  61878.8229     0.96066E-06 
  61911.0850     0.96480E-06 
  61943.3472     0.96916E-06 
  61975.6094     0.97375E-06 
  62007.8715     0.97855E-06 
  62040.1337     0.98359E-06 
  62072.3958     0.98885E-06 
  62104.6580     0.99435E-06 
  62136.9202     0.10001E-05 
  62169.1823     0.10060E-05 
  62201.4445     0.10122E-05 
  62233.7066     0.10187E-05 
  62265.9688     0.10254E-05 
  62298.2310     0.10323E-05 
  62330.4931     0.10395E-05 
  62362.7553     0.10469E-05 
  62395.0174     0.10545E-05 
  62427.2796     0.10625E-05 
  62459.5418     0.10706E-05 
  62491.8039     0.10791E-05 
  62524.0661     0.10878E-05 
  62556.3282     0.10967E-05 
  62588.5904     0.11059E-05 
  62620.8526     0.11154E-05 
  62653.1147     0.11252E-05 
  62685.3769     0.11352E-05 
  62717.6390     0.11455E-05 
  62749.9012     0.11560E-05 
  62782.1634     0.11669E-05 
  62814.4255     0.11780E-05 
  62846.6877     0.11894E-05 
  62878.9498     0.12011E-05 
  62911.2120     0.12131E-05 
  62943.4742     0.12254E-05 
  62975.7363     0.12379E-05 
  63007.9985     0.12508E-05 
  63040.2606     0.12640E-05 
  63072.5228     0.12774E-05 
  63104.7850     0.12912E-05 
  63137.0471     0.13052E-05 
  63169.3093     0.13196E-05 
  63201.5714     0.13343E-05 
  63233.8336     0.13493E-05 
  63266.0958     0.13646E-05 
  63298.3579     0.13802E-05 
  63330.6201     0.13961E-05 
  63362.8822     0.14124E-05 
  63395.1444     0.14290E-05 
  63427.4066     0.14459E-05 
  63459.6687     0.14631E-05 
  63491.9309     0.14807E-05 
  63524.1930     0.14986E-05 
  63556.4552     0.15169E-05 
  63588.7174     0.15355E-05 
  63620.9795     0.15544E-05 
  63653.2417     0.15737E-05 
  63685.5038     0.15933E-05 
  63717.7660     0.16133E-05 
  63750.0282     0.16337E-05 
  63782.2903     0.16544E-05 
  63814.5525     0.16754E-05 
  63846.8146     0.16968E-05 
  63879.0768     0.17186E-05 
  63911.3390     0.17408E-05 
  63943.6011     0.17633E-05 
  63975.8633     0.17862E-05 
  64008.1254     0.18095E-05 
  64040.3876     0.18331E-05 
  64072.6498     0.18571E-05 
  64104.9119     0.18816E-05 
  64137.1741     0.19064E-05 
  64169.4362     0.19316E-05 
  64201.6984     0.19571E-05 
  64233.9606     0.19831E-05 
  64266.2227     0.20095E-05 
  64298.4849     0.20363E-05 
  64330.7470     0.20635E-05 
  64363.0092     0.20911E-05 
  64395.2714     0.21191E-05 
  64427.5335     0.21475E-05 
  64459.7957     0.21764E-05 
  64492.0578     0.22056E-05 
  64524.3200     0.22353E-05 
  64556.5822     0.22654E-05 
  64588.8443     0.22960E-05 
  64621.1065     0.23269E-05 
  64653.3686     0.23583E-05 
  64685.6308     0.23902E-05 
  64717.8930     0.24225E-05 
  64750.1551     0.24552E-05 
  64782.4173     0.24884E-05 
  64814.6794     0.25220E-05 
  64846.9416     0.25561E-05 
  64879.2038     0.25906E-05 
  64911.4659     0.26256E-05 
  64943.7281     0.26610E-05 
  64975.9902     0.26969E-05 
  65008.2524     0.27333E-05 
  65040.5146     0.27702E-05 
  65072.7767     0.28075E-05 
  65105.0389     0.28453E-05 
  65137.3010     0.28835E-05 
  65169.5632     0.29223E-05 
  65201.8254     0.29616E-05 
  65234.0875     0.30013E-05 
  65266.3497     0.30415E-05 
  65298.6118     0.30822E-05 
  65330.8740     0.31234E-05 
  65363.1362     0.31652E-05 
  65395.3983     0.32074E-05 
  65427.6605     0.32501E-05 
  65459.9226     0.32934E-05 
  65492.1848     0.33371E-05 
  65524.4470     0.33814E-05 
  65556.7091     0.34262E-05 
  65588.9713     0.34715E-05 
  65621.2334     0.35173E-05 
  65653.4956     0.35637E-05 
  65685.7578     0.36106E-05 
  65718.0199     0.36580E-05 
  65750.2821     0.37059E-05 
  65782.5442     0.37544E-05 
  65814.8064     0.38035E-05 
  65847.0686     0.38531E-05 
  65879.3307     0.39032E-05 
  65911.5929     0.39539E-05 
  65943.8550     0.40052E-05 
  65976.1172     0.40570E-05 
  66008.3794     0.41094E-05 
  66040.6415     0.41623E-05 
  66072.9037     0.42158E-05 
  66105.1658     0.42699E-05 
  66137.4280     0.43245E-05 
  66169.6902     0.43797E-05 
  66201.9523     0.44355E-05 
  66234.2145     0.44919E-05 
  66266.4766     0.45489E-05 
  66298.7388     0.46064E-05 
  66331.0010     0.46646E-05 
  66363.2631     0.47233E-05 
  66395.5253     0.47827E-05 
  66427.7874     0.48426E-05 
  66460.0496     0.49032E-05 
  66492.3118     0.49643E-05 
  66524.5739     0.50261E-05 
  66556.8361     0.50885E-05 
  66589.0982     0.51514E-05 
  66621.3604     0.52151E-05 
  66653.6226     0.52793E-05 
  66685.8847     0.53441E-05 
  66718.1469     0.54096E-05 
  66750.4090     0.54757E-05 
  66782.6712     0.55424E-05 
  66814.9334     0.56098E-05 
  66847.1955     0.56778E-05 
  66879.4577     0.57465E-05 
  66911.7198     0.58158E-05 
  66943.9820     0.58857E-05 
  66976.2442     0.59563E-05 
  67008.5063     0.60275E-05 
  67040.7685     0.60994E-05 
  67073.0306     0.61720E-05 
  67105.2928     0.62452E-05 
  67137.5550     0.63191E-05 
  67169.8171     0.63936E-05 
  67202.0793     0.64688E-05 
  67234.3414     0.65447E-05 
  67266.6036     0.66212E-05 
  67298.8658     0.66985E-05 
  67331.1279     0.67764E-05 
  67363.3901     0.68550E-05 
  67395.6522     0.69342E-05 
  67427.9144     0.70142E-05 
  67460.1766     0.70948E-05 
  67492.4387     0.71761E-05 
  67524.7009     0.72582E-05 
  67556.9630     0.73409E-05 
  67589.2252     0.74243E-05 
  67621.4874     0.75084E-05 
  67653.7495     0.75933E-05 
  67686.0117     0.76788E-05 
  67718.2738     0.77650E-05 
  67750.5360     0.78520E-05 
  67782.7982     0.79396E-05 
  67815.0603     0.80280E-05 
  67847.3225     0.81171E-05 
  67879.5846     0.82069E-05 
  67911.8468     0.82974E-05 
  67944.1090     0.83887E-05 
  67976.3711     0.84807E-05 
  68008.6333     0.85734E-05 
  68040.8954     0.86668E-05 
  68073.1576     0.87610E-05 
  68105.4198     0.88559E-05 
  68137.6819     0.89515E-05 
  68169.9441     0.90479E-05 
  68202.2062     0.91450E-05 
  68234.4684     0.92429E-05 
  68266.7306     0.93415E-05 
  68298.9927     0.94409E-05 
  68331.2549     0.95410E-05 
  68363.5170     0.96418E-05 
  68395.7792     0.97434E-05 
  68428.0414     0.98458E-05 
  68460.3035     0.99489E-05 
  68492.5657     0.10053E-04 
  68524.8278     0.10157E-04 
  68557.0900     0.10263E-04 
  68589.3522     0.10369E-04 
  68621.6143     0.10476E-04 
  68653.8765     0.10584E-04 
  68686.1386     0.10692E-04 
  68718.4008     0.10801E-04 
  68750.6630     0.10911E-04 
  68782.9251     0.11022E-04 
  68815.1873     0.11133E-04 
  68847.4494     0.11246E-04 
  68879.7116     0.11359E-04 
  68911.9738     0.11473E-04 
  68944.2359     0.11587E-04 
  68976.4981     0.11703E-04 
  69008.7602     0.11819E-04 
  69041.0224     0.11936E-04 
  69073.2846     0.12054E-04 
  69105.5467     0.12172E-04 
  69137.8089     0.12291E-04 
  69170.0710     0.12412E-04 
  69202.3332     0.12532E-04 
  69234.5954     0.12654E-04 
  69266.8575     0.12777E-04 
  69299.1197     0.12900E-04 
  69331.3818     0.13024E-04 
  69363.6440     0.13149E-04 
  69395.9062     0.13274E-04 
  69428.1683     0.13401E-04 
  69460.4305     0.13528E-04 
  69492.6926     0.13656E-04 
  69524.9548     0.13785E-04 
  69557.2170     0.13915E-04 
  69589.4791     0.14045E-04 
  69621.7413     0.14176E-04 
  69654.0034     0.14308E-04 
  69686.2656     0.14441E-04 
  69718.5278     0.14574E-04 
  69750.7899     0.14709E-04 
  69783.0521     0.14844E-04 
  69815.3142     0.14980E-04 
  69847.5764     0.15117E-04 
  69879.8386     0.15254E-04 
  69912.1007     0.15393E-04 
  69944.3629     0.15532E-04 
  69976.6250     0.15672E-04 
  70008.8872     0.15813E-04 
  70041.1494     0.15954E-04 
  70073.4115     0.16097E-04 
  70105.6737     0.16240E-04 
  70137.9358     0.16384E-04 
  70170.1980     0.16529E-04 
  70202.4602     0.16674E-04 
  70234.7223     0.16820E-04 
  70266.9845     0.16968E-04 
  70299.2466     0.17116E-04 
  70331.5088     0.17264E-04 
  70363.7710     0.17414E-04 
  70396.0331     0.17564E-04 
  70428.2953     0.17715E-04 
  70460.5574     0.17867E-04 
  70492.8196     0.18020E-04 
  70525.0818     0.18173E-04 
  70557.3439     0.18328E-04 
  70589.6061     0.18483E-04 
  70621.8682     0.18639E-04 
  70654.1304     0.18795E-04 
  70686.3926     0.18953E-04 
  70718.6547     0.19111E-04 
  70750.9169     0.19270E-04 
  70783.1790     0.19430E-04 
  70815.4412     0.19590E-04 
  70847.7034     0.19752E-04 
  70879.9655     0.19914E-04 
  70912.2277     0.20077E-04 
  70944.4898     0.20241E-04 
  70976.7520     0.20405E-04 
  71009.0142     0.20570E-04 
  71041.2763     0.20736E-04 
  71073.5385     0.20903E-04 
  71105.8006     0.21071E-04 
  71138.0628     0.21239E-04 
  71170.3250     0.21408E-04 
  71202.5871     0.21578E-04 
  71234.8493     0.21749E-04 
  71267.1114     0.21920E-04 
  71299.3736     0.22092E-04 
  71331.6358     0.22265E-04 
  71363.8979     0.22439E-04 
  71396.1601     0.22613E-04 
  71428.4222     0.22788E-04 
  71460.6844     0.22964E-04 
  71492.9466     0.23141E-04 
  71525.2087     0.23318E-04 
  71557.4709     0.23496E-04 
  71589.7330     0.23675E-04 
  71621.9952     0.23855E-04 
  71654.2574     0.24035E-04 
  71686.5195     0.24216E-04 
  71718.7817     0.24398E-04 
  71751.0438     0.24580E-04 
  71783.3060     0.24763E-04 
  71815.5682     0.24947E-04 
  71847.8303     0.25132E-04 
  71880.0925     0.25317E-04 
  71912.3546     0.25503E-04 
  71944.6168     0.25690E-04 
  71976.8790     0.25878E-04 
  72009.1411     0.26066E-04 
  72041.4033     0.26255E-04 
  72073.6654     0.26444E-04 
  72105.9276     0.26635E-04 
  72138.1898     0.26825E-04 
  72170.4519     0.27017E-04 
  72202.7141     0.27209E-04 
  72234.9762     0.27402E-04 
  72267.2384     0.27596E-04 
  72299.5006     0.27790E-04 
  72331.7627     0.27985E-04 
  72364.0249     0.28181E-04 
  72396.2870     0.28377E-04 
  72428.5492     0.28574E-04 
  72460.8114     0.28772E-04 
  72493.0735     0.28970E-04 
  72525.3357     0.29169E-04 
  72557.5978     0.29369E-04 
  72589.8600     0.29569E-04 
