  32262.1600     0.58597E-02 
  32294.4222     0.59133E-02 
  32326.6843     0.59671E-02 
  32358.9465     0.60213E-02 
  32391.2086     0.60757E-02 
  32423.4708     0.61305E-02 
  32455.7330     0.61856E-02 
  32487.9951     0.62410E-02 
  32520.2573     0.62967E-02 
  32552.5194     0.63527E-02 
  32584.7816     0.64090E-02 
  32617.0438     0.64656E-02 
  32649.3059     0.65226E-02 
  32681.5681     0.65798E-02 
  32713.8302     0.66373E-02 
  32746.0924     0.66952E-02 
  32778.3546     0.67533E-02 
  32810.6167     0.68118E-02 
  32842.8789     0.68705E-02 
  32875.1410     0.69296E-02 
  32907.4032     0.69889E-02 
  32939.6654     0.70486E-02 
  32971.9275     0.71086E-02 
  33004.1897     0.71688E-02 
  33036.4518     0.72294E-02 
  33068.7140     0.72902E-02 
  33100.9762     0.73514E-02 
  33133.2383     0.74128E-02 
  33165.5005     0.74746E-02 
  33197.7626     0.75366E-02 
  33230.0248     0.75990E-02 
  33262.2870     0.76616E-02 
  33294.5491     0.77245E-02 
  33326.8113     0.77877E-02 
  33359.0734     0.78512E-02 
  33391.3356     0.79150E-02 
  33423.5978     0.79791E-02 
  33455.8599     0.80435E-02 
  33488.1221     0.81082E-02 
  33520.3842     0.81731E-02 
  33552.6464     0.82384E-02 
  33584.9086     0.83039E-02 
  33617.1707     0.83697E-02 
  33649.4329     0.84358E-02 
  33681.6950     0.85021E-02 
  33713.9572     0.85688E-02 
  33746.2194     0.86357E-02 
  33778.4815     0.87029E-02 
  33810.7437     0.87704E-02 
  33843.0058     0.88381E-02 
  33875.2680     0.89061E-02 
  33907.5302     0.89744E-02 
  33939.7923     0.90430E-02 
  33972.0545     0.91118E-02 
  34004.3166     0.91809E-02 
  34036.5788     0.92502E-02 
  34068.8410     0.93199E-02 
  34101.1031     0.93898E-02 
  34133.3653     0.94599E-02 
  34165.6274     0.95303E-02 
  34197.8896     0.96010E-02 
  34230.1518     0.96719E-02 
  34262.4139     0.97431E-02 
  34294.6761     0.98145E-02 
  34326.9382     0.98862E-02 
  34359.2004     0.99581E-02 
  34391.4626     0.10030E-01 
  34423.7247     0.10103E-01 
  34455.9869     0.10175E-01 
  34488.2490     0.10248E-01 
  34520.5112     0.10321E-01 
  34552.7734     0.10395E-01 
  34585.0355     0.10468E-01 
  34617.2977     0.10542E-01 
  34649.5598     0.10616E-01 
  34681.8220     0.10691E-01 
  34714.0842     0.10765E-01 
  34746.3463     0.10840E-01 
  34778.6085     0.10915E-01 
  34810.8706     0.10990E-01 
  34843.1328     0.11066E-01 
  34875.3950     0.11141E-01 
  34907.6571     0.11217E-01 
  34939.9193     0.11293E-01 
  34972.1814     0.11369E-01 
  35004.4436     0.11446E-01 
  35036.7058     0.11523E-01 
  35068.9679     0.11600E-01 
  35101.2301     0.11677E-01 
  35133.4922     0.11754E-01 
  35165.7544     0.11831E-01 
  35198.0166     0.11909E-01 
  35230.2787     0.11987E-01 
  35262.5409     0.12065E-01 
  35294.8030     0.12143E-01 
  35327.0652     0.12222E-01 
  35359.3274     0.12300E-01 
  35391.5895     0.12379E-01 
  35423.8517     0.12458E-01 
  35456.1138     0.12537E-01 
  35488.3760     0.12617E-01 
  35520.6382     0.12696E-01 
  35552.9003     0.12776E-01 
  35585.1625     0.12856E-01 
  35617.4246     0.12936E-01 
  35649.6868     0.13016E-01 
  35681.9490     0.13096E-01 
  35714.2111     0.13177E-01 
  35746.4733     0.13257E-01 
  35778.7354     0.13338E-01 
  35810.9976     0.13419E-01 
  35843.2598     0.13500E-01 
  35875.5219     0.13581E-01 
  35907.7841     0.13662E-01 
  35940.0462     0.13744E-01 
  35972.3084     0.13825E-01 
  36004.5706     0.13907E-01 
  36036.8327     0.13989E-01 
  36069.0949     0.14071E-01 
  36101.3570     0.14153E-01 
  36133.6192     0.14235E-01 
  36165.8814     0.14317E-01 
  36198.1435     0.14399E-01 
  36230.4057     0.14482E-01 
  36262.6678     0.14565E-01 
  36294.9300     0.14647E-01 
  36327.1922     0.14730E-01 
  36359.4543     0.14813E-01 
  36391.7165     0.14896E-01 
  36423.9786     0.14979E-01 
  36456.2408     0.15062E-01 
  36488.5030     0.15145E-01 
  36520.7651     0.15228E-01 
  36553.0273     0.15312E-01 
  36585.2894     0.15395E-01 
  36617.5516     0.15479E-01 
  36649.8138     0.15562E-01 
  36682.0759     0.15646E-01 
  36714.3381     0.15729E-01 
  36746.6002     0.15813E-01 
  36778.8624     0.15897E-01 
  36811.1246     0.15981E-01 
  36843.3867     0.16064E-01 
  36875.6489     0.16148E-01 
  36907.9110     0.16232E-01 
  36940.1732     0.16316E-01 
  36972.4354     0.16400E-01 
  37004.6975     0.16484E-01 
  37036.9597     0.16568E-01 
  37069.2218     0.16652E-01 
  37101.4840     0.16736E-01 
  37133.7462     0.16820E-01 
  37166.0083     0.16904E-01 
  37198.2705     0.16988E-01 
  37230.5326     0.17072E-01 
  37262.7948     0.17156E-01 
  37295.0570     0.17240E-01 
  37327.3191     0.17324E-01 
  37359.5813     0.17408E-01 
  37391.8434     0.17492E-01 
  37424.1056     0.17576E-01 
  37456.3678     0.17660E-01 
  37488.6299     0.17744E-01 
  37520.8921     0.17828E-01 
  37553.1542     0.17911E-01 
  37585.4164     0.17995E-01 
  37617.6786     0.18079E-01 
  37649.9407     0.18163E-01 
  37682.2029     0.18246E-01 
  37714.4650     0.18330E-01 
  37746.7272     0.18413E-01 
  37778.9894     0.18497E-01 
  37811.2515     0.18580E-01 
  37843.5137     0.18663E-01 
  37875.7758     0.18746E-01 
  37908.0380     0.18830E-01 
  37940.3002     0.18913E-01 
  37972.5623     0.18996E-01 
  38004.8245     0.19078E-01 
  38037.0866     0.19161E-01 
  38069.3488     0.19244E-01 
  38101.6110     0.19326E-01 
  38133.8731     0.19409E-01 
  38166.1353     0.19491E-01 
  38198.3974     0.19573E-01 
  38230.6596     0.19656E-01 
  38262.9218     0.19737E-01 
  38295.1839     0.19819E-01 
  38327.4461     0.19901E-01 
  38359.7082     0.19983E-01 
  38391.9704     0.20064E-01 
  38424.2326     0.20145E-01 
  38456.4947     0.20227E-01 
  38488.7569     0.20308E-01 
  38521.0190     0.20388E-01 
  38553.2812     0.20469E-01 
  38585.5434     0.20550E-01 
  38617.8055     0.20630E-01 
  38650.0677     0.20710E-01 
  38682.3298     0.20790E-01 
  38714.5920     0.20870E-01 
  38746.8542     0.20950E-01 
  38779.1163     0.21029E-01 
  38811.3785     0.21108E-01 
  38843.6406     0.21187E-01 
  38875.9028     0.21266E-01 
  38908.1650     0.21345E-01 
  38940.4271     0.21424E-01 
  38972.6893     0.21502E-01 
  39004.9514     0.21580E-01 
  39037.2136     0.21658E-01 
  39069.4758     0.21735E-01 
  39101.7379     0.21813E-01 
  39134.0001     0.21890E-01 
  39166.2622     0.21967E-01 
  39198.5244     0.22044E-01 
  39230.7866     0.22120E-01 
  39263.0487     0.22196E-01 
  39295.3109     0.22272E-01 
  39327.5730     0.22348E-01 
  39359.8352     0.22423E-01 
  39392.0974     0.22499E-01 
  39424.3595     0.22574E-01 
  39456.6217     0.22648E-01 
  39488.8838     0.22723E-01 
  39521.1460     0.22797E-01 
  39553.4082     0.22871E-01 
  39585.6703     0.22944E-01 
  39617.9325     0.23018E-01 
  39650.1946     0.23091E-01 
  39682.4568     0.23163E-01 
  39714.7190     0.23236E-01 
  39746.9811     0.23308E-01 
  39779.2433     0.23380E-01 
  39811.5054     0.23451E-01 
  39843.7676     0.23523E-01 
  39876.0298     0.23594E-01 
  39908.2919     0.23664E-01 
  39940.5541     0.23734E-01 
  39972.8162     0.23804E-01 
  40005.0784     0.23874E-01 
  40037.3406     0.23943E-01 
  40069.6027     0.24012E-01 
  40101.8649     0.24081E-01 
  40134.1270     0.24149E-01 
  40166.3892     0.24217E-01 
  40198.6514     0.24285E-01 
  40230.9135     0.24352E-01 
  40263.1757     0.24419E-01 
  40295.4378     0.24485E-01 
  40327.7000     0.24552E-01 
  40359.9622     0.24617E-01 
  40392.2243     0.24683E-01 
  40424.4865     0.24748E-01 
  40456.7486     0.24813E-01 
  40489.0108     0.24877E-01 
  40521.2730     0.24941E-01 
  40553.5351     0.25004E-01 
  40585.7973     0.25068E-01 
  40618.0594     0.25130E-01 
  40650.3216     0.25193E-01 
  40682.5838     0.25255E-01 
  40714.8459     0.25316E-01 
  40747.1081     0.25378E-01 
  40779.3702     0.25438E-01 
  40811.6324     0.25499E-01 
  40843.8946     0.25559E-01 
  40876.1567     0.25618E-01 
  40908.4189     0.25677E-01 
  40940.6810     0.25736E-01 
  40972.9432     0.25794E-01 
  41005.2054     0.25852E-01 
  41037.4675     0.25910E-01 
  41069.7297     0.25967E-01 
  41101.9918     0.26023E-01 
  41134.2540     0.26079E-01 
  41166.5162     0.26135E-01 
  41198.7783     0.26190E-01 
  41231.0405     0.26245E-01 
  41263.3026     0.26299E-01 
  41295.5648     0.26353E-01 
  41327.8270     0.26407E-01 
  41360.0891     0.26460E-01 
  41392.3513     0.26512E-01 
  41424.6134     0.26564E-01 
  41456.8756     0.26616E-01 
  41489.1378     0.26667E-01 
  41521.3999     0.26718E-01 
  41553.6621     0.26768E-01 
  41585.9242     0.26818E-01 
  41618.1864     0.26867E-01 
  41650.4486     0.26916E-01 
  41682.7107     0.26964E-01 
  41714.9729     0.27012E-01 
  41747.2350     0.27059E-01 
  41779.4972     0.27106E-01 
  41811.7594     0.27152E-01 
  41844.0215     0.27198E-01 
  41876.2837     0.27244E-01 
  41908.5458     0.27288E-01 
  41940.8080     0.27333E-01 
  41973.0702     0.27377E-01 
  42005.3323     0.27420E-01 
  42037.5945     0.27463E-01 
  42069.8566     0.27505E-01 
  42102.1188     0.27547E-01 
  42134.3810     0.27588E-01 
  42166.6431     0.27629E-01 
  42198.9053     0.27669E-01 
  42231.1674     0.27709E-01 
  42263.4296     0.27748E-01 
  42295.6918     0.27787E-01 
  42327.9539     0.27825E-01 
  42360.2161     0.27863E-01 
  42392.4782     0.27900E-01 
  42424.7404     0.27937E-01 
  42457.0026     0.27973E-01 
  42489.2647     0.28008E-01 
  42521.5269     0.28044E-01 
  42553.7890     0.28078E-01 
  42586.0512     0.28112E-01 
  42618.3134     0.28145E-01 
  42650.5755     0.28178E-01 
  42682.8377     0.28211E-01 
  42715.0998     0.28242E-01 
  42747.3620     0.28274E-01 
  42779.6242     0.28304E-01 
  42811.8863     0.28335E-01 
  42844.1485     0.28364E-01 
  42876.4106     0.28393E-01 
  42908.6728     0.28422E-01 
  42940.9350     0.28450E-01 
  42973.1971     0.28477E-01 
  43005.4593     0.28504E-01 
  43037.7214     0.28531E-01 
  43069.9836     0.28556E-01 
  43102.2458     0.28582E-01 
  43134.5079     0.28606E-01 
  43166.7701     0.28630E-01 
  43199.0322     0.28654E-01 
  43231.2944     0.28677E-01 
  43263.5566     0.28699E-01 
  43295.8187     0.28721E-01 
  43328.0809     0.28742E-01 
  43360.3430     0.28763E-01 
  43392.6052     0.28783E-01 
  43424.8674     0.28803E-01 
  43457.1295     0.28822E-01 
  43489.3917     0.28841E-01 
  43521.6538     0.28858E-01 
  43553.9160     0.28876E-01 
  43586.1782     0.28893E-01 
  43618.4403     0.28909E-01 
  43650.7025     0.28924E-01 
  43682.9646     0.28940E-01 
  43715.2268     0.28954E-01 
  43747.4890     0.28968E-01 
  43779.7511     0.28981E-01 
  43812.0133     0.28994E-01 
  43844.2754     0.29006E-01 
  43876.5376     0.29018E-01 
  43908.7998     0.29029E-01 
  43941.0619     0.29040E-01 
  43973.3241     0.29050E-01 
  44005.5862     0.29059E-01 
  44037.8484     0.29068E-01 
  44070.1106     0.29076E-01 
  44102.3727     0.29084E-01 
  44134.6349     0.29091E-01 
  44166.8970     0.29097E-01 
  44199.1592     0.29103E-01 
  44231.4214     0.29109E-01 
  44263.6835     0.29114E-01 
  44295.9457     0.29118E-01 
  44328.2078     0.29121E-01 
  44360.4700     0.29125E-01 
  44392.7322     0.29127E-01 
  44424.9943     0.29129E-01 
  44457.2565     0.29130E-01 
  44489.5186     0.29131E-01 
  44521.7808     0.29132E-01 
  44554.0430     0.29131E-01 
  44586.3051     0.29130E-01 
  44618.5673     0.29129E-01 
  44650.8294     0.29127E-01 
  44683.0916     0.29124E-01 
  44715.3538     0.29121E-01 
  44747.6159     0.29118E-01 
  44779.8781     0.29113E-01 
  44812.1402     0.29108E-01 
  44844.4024     0.29103E-01 
  44876.6646     0.29097E-01 
  44908.9267     0.29091E-01 
  44941.1889     0.29084E-01 
  44973.4510     0.29076E-01 
  45005.7132     0.29068E-01 
  45037.9754     0.29059E-01 
  45070.2375     0.29050E-01 
  45102.4997     0.29040E-01 
  45134.7618     0.29029E-01 
  45167.0240     0.29018E-01 
  45199.2862     0.29007E-01 
  45231.5483     0.28995E-01 
  45263.8105     0.28982E-01 
  45296.0726     0.28969E-01 
  45328.3348     0.28955E-01 
  45360.5970     0.28941E-01 
  45392.8591     0.28926E-01 
  45425.1213     0.28911E-01 
  45457.3834     0.28895E-01 
  45489.6456     0.28878E-01 
  45521.9078     0.28861E-01 
  45554.1699     0.28844E-01 
  45586.4321     0.28826E-01 
  45618.6942     0.28807E-01 
  45650.9564     0.28788E-01 
  45683.2186     0.28768E-01 
  45715.4807     0.28748E-01 
  45747.7429     0.28727E-01 
  45780.0050     0.28706E-01 
  45812.2672     0.28684E-01 
  45844.5294     0.28662E-01 
  45876.7915     0.28639E-01 
  45909.0537     0.28616E-01 
  45941.3158     0.28592E-01 
  45973.5780     0.28568E-01 
  46005.8402     0.28543E-01 
  46038.1023     0.28517E-01 
  46070.3645     0.28491E-01 
  46102.6266     0.28465E-01 
  46134.8888     0.28438E-01 
  46167.1510     0.28410E-01 
  46199.4131     0.28382E-01 
  46231.6753     0.28354E-01 
  46263.9374     0.28325E-01 
  46296.1996     0.28295E-01 
  46328.4618     0.28265E-01 
  46360.7239     0.28235E-01 
  46392.9861     0.28204E-01 
  46425.2482     0.28172E-01 
  46457.5104     0.28140E-01 
  46489.7726     0.28108E-01 
  46522.0347     0.28075E-01 
  46554.2969     0.28041E-01 
  46586.5590     0.28007E-01 
  46618.8212     0.27973E-01 
  46651.0834     0.27938E-01 
  46683.3455     0.27902E-01 
  46715.6077     0.27867E-01 
  46747.8698     0.27830E-01 
  46780.1320     0.27793E-01 
  46812.3942     0.27756E-01 
  46844.6563     0.27718E-01 
  46876.9185     0.27680E-01 
  46909.1806     0.27641E-01 
  46941.4428     0.27602E-01 
  46973.7050     0.27563E-01 
  47005.9671     0.27523E-01 
  47038.2293     0.27482E-01 
  47070.4914     0.27441E-01 
  47102.7536     0.27400E-01 
  47135.0158     0.27358E-01 
  47167.2779     0.27316E-01 
  47199.5401     0.27273E-01 
  47231.8022     0.27230E-01 
  47264.0644     0.27186E-01 
  47296.3266     0.27142E-01 
  47328.5887     0.27098E-01 
  47360.8509     0.27053E-01 
  47393.1130     0.27007E-01 
  47425.3752     0.26962E-01 
  47457.6374     0.26915E-01 
  47489.8995     0.26869E-01 
  47522.1617     0.26822E-01 
  47554.4238     0.26774E-01 
  47586.6860     0.26727E-01 
  47618.9482     0.26678E-01 
  47651.2103     0.26630E-01 
  47683.4725     0.26581E-01 
  47715.7346     0.26531E-01 
  47747.9968     0.26481E-01 
  47780.2590     0.26431E-01 
  47812.5211     0.26380E-01 
  47844.7833     0.26329E-01 
  47877.0454     0.26278E-01 
  47909.3076     0.26226E-01 
  47941.5698     0.26174E-01 
  47973.8319     0.26121E-01 
  48006.0941     0.26068E-01 
  48038.3562     0.26015E-01 
  48070.6184     0.25961E-01 
  48102.8806     0.25907E-01 
  48135.1427     0.25853E-01 
  48167.4049     0.25798E-01 
  48199.6670     0.25743E-01 
  48231.9292     0.25688E-01 
  48264.1914     0.25632E-01 
  48296.4535     0.25576E-01 
  48328.7157     0.25519E-01 
  48360.9778     0.25462E-01 
  48393.2400     0.25405E-01 
  48425.5022     0.25347E-01 
  48457.7643     0.25289E-01 
  48490.0265     0.25231E-01 
  48522.2886     0.25173E-01 
  48554.5508     0.25114E-01 
  48586.8130     0.25055E-01 
  48619.0751     0.24995E-01 
  48651.3373     0.24935E-01 
  48683.5994     0.24875E-01 
  48715.8616     0.24814E-01 
  48748.1238     0.24754E-01 
  48780.3859     0.24693E-01 
  48812.6481     0.24631E-01 
  48844.9102     0.24569E-01 
  48877.1724     0.24507E-01 
  48909.4346     0.24445E-01 
  48941.6967     0.24382E-01 
  48973.9589     0.24320E-01 
  49006.2210     0.24256E-01 
  49038.4832     0.24193E-01 
  49070.7454     0.24129E-01 
  49103.0075     0.24065E-01 
  49135.2697     0.24001E-01 
  49167.5318     0.23936E-01 
  49199.7940     0.23871E-01 
  49232.0562     0.23806E-01 
  49264.3183     0.23741E-01 
  49296.5805     0.23675E-01 
  49328.8426     0.23609E-01 
  49361.1048     0.23543E-01 
  49393.3670     0.23477E-01 
  49425.6291     0.23410E-01 
  49457.8913     0.23343E-01 
  49490.1534     0.23276E-01 
  49522.4156     0.23209E-01 
  49554.6778     0.23141E-01 
  49586.9399     0.23074E-01 
  49619.2021     0.23005E-01 
  49651.4642     0.22937E-01 
  49683.7264     0.22869E-01 
  49715.9886     0.22800E-01 
  49748.2507     0.22731E-01 
  49780.5129     0.22662E-01 
  49812.7750     0.22592E-01 
  49845.0372     0.22523E-01 
  49877.2994     0.22453E-01 
  49909.5615     0.22383E-01 
  49941.8237     0.22313E-01 
  49974.0858     0.22242E-01 
  50006.3480     0.22172E-01 
  50038.6102     0.22101E-01 
  50070.8723     0.22030E-01 
  50103.1345     0.21959E-01 
  50135.3966     0.21888E-01 
  50167.6588     0.21816E-01 
  50199.9210     0.21744E-01 
  50232.1831     0.21672E-01 
  50264.4453     0.21600E-01 
  50296.7074     0.21528E-01 
  50328.9696     0.21456E-01 
  50361.2318     0.21383E-01 
  50393.4939     0.21311E-01 
  50425.7561     0.21238E-01 
  50458.0182     0.21165E-01 
  50490.2804     0.21092E-01 
  50522.5426     0.21018E-01 
  50554.8047     0.20945E-01 
  50587.0669     0.20871E-01 
  50619.3290     0.20798E-01 
  50651.5912     0.20724E-01 
  50683.8534     0.20650E-01 
  50716.1155     0.20576E-01 
  50748.3777     0.20501E-01 
  50780.6398     0.20427E-01 
  50812.9020     0.20352E-01 
  50845.1642     0.20278E-01 
  50877.4263     0.20203E-01 
  50909.6885     0.20128E-01 
  50941.9506     0.20053E-01 
  50974.2128     0.19978E-01 
  51006.4750     0.19903E-01 
  51038.7371     0.19828E-01 
  51070.9993     0.19752E-01 
  51103.2614     0.19677E-01 
  51135.5236     0.19601E-01 
  51167.7858     0.19526E-01 
  51200.0479     0.19450E-01 
  51232.3101     0.19374E-01 
  51264.5722     0.19298E-01 
  51296.8344     0.19222E-01 
  51329.0966     0.19146E-01 
  51361.3587     0.19070E-01 
  51393.6209     0.18994E-01 
  51425.8830     0.18917E-01 
  51458.1452     0.18841E-01 
  51490.4074     0.18765E-01 
  51522.6695     0.18688E-01 
  51554.9317     0.18612E-01 
  51587.1938     0.18535E-01 
  51619.4560     0.18458E-01 
  51651.7182     0.18382E-01 
  51683.9803     0.18305E-01 
  51716.2425     0.18228E-01 
  51748.5046     0.18151E-01 
  51780.7668     0.18074E-01 
  51813.0290     0.17997E-01 
  51845.2911     0.17920E-01 
  51877.5533     0.17843E-01 
  51909.8154     0.17766E-01 
  51942.0776     0.17689E-01 
  51974.3398     0.17612E-01 
  52006.6019     0.17535E-01 
  52038.8641     0.17458E-01 
  52071.1262     0.17381E-01 
  52103.3884     0.17304E-01 
  52135.6506     0.17227E-01 
  52167.9127     0.17149E-01 
  52200.1749     0.17072E-01 
  52232.4370     0.16995E-01 
  52264.6992     0.16918E-01 
  52296.9614     0.16841E-01 
  52329.2235     0.16763E-01 
  52361.4857     0.16686E-01 
  52393.7478     0.16609E-01 
  52426.0100     0.16532E-01 
  52458.2722     0.16455E-01 
  52490.5343     0.16378E-01 
  52522.7965     0.16300E-01 
  52555.0586     0.16223E-01 
  52587.3208     0.16146E-01 
  52619.5830     0.16069E-01 
  52651.8451     0.15992E-01 
  52684.1073     0.15915E-01 
  52716.3694     0.15838E-01 
  52748.6316     0.15761E-01 
  52780.8938     0.15684E-01 
  52813.1559     0.15607E-01 
  52845.4181     0.15530E-01 
  52877.6802     0.15453E-01 
  52909.9424     0.15377E-01 
  52942.2046     0.15300E-01 
  52974.4667     0.15223E-01 
  53006.7289     0.15147E-01 
  53038.9910     0.15070E-01 
  53071.2532     0.14993E-01 
  53103.5154     0.14917E-01 
  53135.7775     0.14840E-01 
  53168.0397     0.14764E-01 
  53200.3018     0.14688E-01 
  53232.5640     0.14611E-01 
  53264.8262     0.14535E-01 
  53297.0883     0.14459E-01 
  53329.3505     0.14383E-01 
  53361.6126     0.14307E-01 
  53393.8748     0.14231E-01 
  53426.1370     0.14155E-01 
  53458.3991     0.14079E-01 
  53490.6613     0.14004E-01 
  53522.9234     0.13928E-01 
  53555.1856     0.13853E-01 
  53587.4478     0.13777E-01 
  53619.7099     0.13702E-01 
  53651.9721     0.13627E-01 
  53684.2342     0.13551E-01 
  53716.4964     0.13476E-01 
  53748.7586     0.13401E-01 
  53781.0207     0.13326E-01 
  53813.2829     0.13252E-01 
  53845.5450     0.13177E-01 
  53877.8072     0.13102E-01 
  53910.0694     0.13028E-01 
  53942.3315     0.12953E-01 
  53974.5937     0.12879E-01 
  54006.8558     0.12805E-01 
  54039.1180     0.12731E-01 
  54071.3802     0.12657E-01 
  54103.6423     0.12583E-01 
  54135.9045     0.12509E-01 
  54168.1666     0.12436E-01 
  54200.4288     0.12362E-01 
  54232.6910     0.12289E-01 
  54264.9531     0.12215E-01 
  54297.2153     0.12142E-01 
  54329.4774     0.12069E-01 
  54361.7396     0.11996E-01 
  54394.0018     0.11923E-01 
  54426.2639     0.11851E-01 
  54458.5261     0.11778E-01 
  54490.7882     0.11706E-01 
  54523.0504     0.11634E-01 
  54555.3126     0.11561E-01 
  54587.5747     0.11489E-01 
  54619.8369     0.11418E-01 
  54652.0990     0.11346E-01 
  54684.3612     0.11274E-01 
  54716.6234     0.11203E-01 
  54748.8855     0.11132E-01 
  54781.1477     0.11060E-01 
  54813.4098     0.10989E-01 
  54845.6720     0.10919E-01 
  54877.9342     0.10848E-01 
  54910.1963     0.10777E-01 
  54942.4585     0.10707E-01 
  54974.7206     0.10637E-01 
  55006.9828     0.10567E-01 
  55039.2450     0.10497E-01 
  55071.5071     0.10427E-01 
  55103.7693     0.10357E-01 
  55136.0314     0.10288E-01 
  55168.2936     0.10219E-01 
  55200.5558     0.10149E-01 
  55232.8179     0.10080E-01 
  55265.0801     0.10012E-01 
  55297.3422     0.99431E-02 
  55329.6044     0.98746E-02 
  55361.8666     0.98063E-02 
  55394.1287     0.97382E-02 
  55426.3909     0.96702E-02 
  55458.6530     0.96024E-02 
  55490.9152     0.95348E-02 
  55523.1774     0.94674E-02 
  55555.4395     0.94001E-02 
  55587.7017     0.93330E-02 
  55619.9638     0.92661E-02 
  55652.2260     0.91994E-02 
  55684.4882     0.91329E-02 
  55716.7503     0.90665E-02 
  55749.0125     0.90003E-02 
  55781.2746     0.89344E-02 
  55813.5368     0.88686E-02 
  55845.7990     0.88029E-02 
  55878.0611     0.87375E-02 
  55910.3233     0.86723E-02 
  55942.5854     0.86072E-02 
  55974.8476     0.85424E-02 
  56007.1098     0.84777E-02 
  56039.3719     0.84133E-02 
  56071.6341     0.83490E-02 
  56103.8962     0.82849E-02 
  56136.1584     0.82211E-02 
  56168.4206     0.81574E-02 
  56200.6827     0.80939E-02 
  56232.9449     0.80306E-02 
  56265.2070     0.79676E-02 
  56297.4692     0.79047E-02 
  56329.7314     0.78420E-02 
  56361.9935     0.77796E-02 
  56394.2557     0.77173E-02 
  56426.5178     0.76553E-02 
  56458.7800     0.75934E-02 
  56491.0422     0.75318E-02 
  56523.3043     0.74704E-02 
  56555.5665     0.74092E-02 
  56587.8286     0.73482E-02 
  56620.0908     0.72874E-02 
  56652.3530     0.72269E-02 
  56684.6151     0.71665E-02 
  56716.8773     0.71064E-02 
  56749.1394     0.70465E-02 
  56781.4016     0.69868E-02 
  56813.6638     0.69274E-02 
  56845.9259     0.68681E-02 
  56878.1881     0.68091E-02 
  56910.4502     0.67503E-02 
  56942.7124     0.66917E-02 
  56974.9746     0.66334E-02 
  57007.2367     0.65753E-02 
  57039.4989     0.65174E-02 
  57071.7610     0.64597E-02 
  57104.0232     0.64023E-02 
  57136.2854     0.63451E-02 
  57168.5475     0.62881E-02 
  57200.8097     0.62314E-02 
  57233.0718     0.61749E-02 
  57265.3340     0.61186E-02 
  57297.5962     0.60626E-02 
  57329.8583     0.60068E-02 
  57362.1205     0.59513E-02 
  57394.3826     0.58960E-02 
  57426.6448     0.58409E-02 
  57458.9070     0.57861E-02 
  57491.1691     0.57315E-02 
  57523.4313     0.56772E-02 
  57555.6934     0.56231E-02 
  57587.9556     0.55693E-02 
  57620.2178     0.55157E-02 
  57652.4799     0.54623E-02 
  57684.7421     0.54093E-02 
  57717.0042     0.53564E-02 
  57749.2664     0.53038E-02 
  57781.5286     0.52515E-02 
  57813.7907     0.51994E-02 
  57846.0529     0.51476E-02 
  57878.3150     0.50961E-02 
  57910.5772     0.50448E-02 
  57942.8394     0.49937E-02 
  57975.1015     0.49430E-02 
  58007.3637     0.48925E-02 
  58039.6258     0.48422E-02 
  58071.8880     0.47923E-02 
  58104.1502     0.47425E-02 
  58136.4123     0.46931E-02 
  58168.6745     0.46439E-02 
  58200.9366     0.45950E-02 
  58233.1988     0.45464E-02 
  58265.4610     0.44981E-02 
  58297.7231     0.44500E-02 
  58329.9853     0.44022E-02 
  58362.2474     0.43547E-02 
  58394.5096     0.43074E-02 
  58426.7718     0.42605E-02 
  58459.0339     0.42138E-02 
  58491.2961     0.41674E-02 
  58523.5582     0.41213E-02 
  58555.8204     0.40755E-02 
  58588.0826     0.40300E-02 
  58620.3447     0.39847E-02 
  58652.6069     0.39398E-02 
  58684.8690     0.38952E-02 
  58717.1312     0.38508E-02 
  58749.3934     0.38068E-02 
  58781.6555     0.37630E-02 
  58813.9177     0.37195E-02 
  58846.1798     0.36764E-02 
  58878.4420     0.36335E-02 
  58910.7042     0.35910E-02 
  58942.9663     0.35488E-02 
  58975.2285     0.35068E-02 
  59007.4906     0.34652E-02 
  59039.7528     0.34239E-02 
  59072.0150     0.33830E-02 
  59104.2771     0.33423E-02 
  59136.5393     0.33019E-02 
  59168.8014     0.32619E-02 
  59201.0636     0.32222E-02 
  59233.3258     0.31828E-02 
  59265.5879     0.31438E-02 
  59297.8501     0.31051E-02 
  59330.1122     0.30667E-02 
  59362.3744     0.30286E-02 
  59394.6366     0.29909E-02 
  59426.8987     0.29535E-02 
  59459.1609     0.29165E-02 
  59491.4230     0.28798E-02 
  59523.6852     0.28434E-02 
  59555.9474     0.28074E-02 
  59588.2095     0.27718E-02 
  59620.4717     0.27364E-02 
  59652.7338     0.27015E-02 
  59684.9960     0.26669E-02 
  59717.2582     0.26327E-02 
  59749.5203     0.25988E-02 
  59781.7825     0.25653E-02 
  59814.0446     0.25321E-02 
  59846.3068     0.24994E-02 
  59878.5690     0.24670E-02 
  59910.8311     0.24349E-02 
  59943.0933     0.24033E-02 
  59975.3554     0.23720E-02 
  60007.6176     0.23411E-02 
  60039.8798     0.23106E-02 
  60072.1419     0.22805E-02 
  60104.4041     0.22508E-02 
  60136.6662     0.22215E-02 
  60168.9284     0.21925E-02 
  60201.1906     0.21640E-02 
  60233.4527     0.21359E-02 
  60265.7149     0.21082E-02 
  60297.9770     0.20809E-02 
  60330.2392     0.20540E-02 
  60362.5014     0.20275E-02 
  60394.7635     0.20014E-02 
  60427.0257     0.19758E-02 
  60459.2878     0.19506E-02 
  60491.5500     0.19258E-02 
  60523.8122     0.19015E-02 
  60556.0743     0.18776E-02 
  60588.3365     0.18541E-02 
  60620.5986     0.18311E-02 
  60652.8608     0.18086E-02 
  60685.1230     0.17864E-02 
  60717.3851     0.17648E-02 
  60749.6473     0.17436E-02 
  60781.9094     0.17229E-02 
  60814.1716     0.17026E-02 
  60846.4338     0.16828E-02 
  60878.6959     0.16635E-02 
  60910.9581     0.16447E-02 
  60943.2202     0.16263E-02 
  60975.4824     0.16084E-02 
  61007.7446     0.15911E-02 
  61040.0067     0.15742E-02 
  61072.2689     0.15578E-02 
  61104.5310     0.15420E-02 
  61136.7932     0.15266E-02 
  61169.0554     0.15118E-02 
  61201.3175     0.14974E-02 
  61233.5797     0.14837E-02 
  61265.8418     0.14704E-02 
  61298.1040     0.14577E-02 
  61330.3662     0.14455E-02 
  61362.6283     0.14338E-02 
  61394.8905     0.14227E-02 
  61427.1526     0.14122E-02 
  61459.4148     0.14022E-02 
  61491.6770     0.13928E-02 
  61523.9391     0.13839E-02 
  61556.2013     0.13757E-02 
  61588.4634     0.13680E-02 
  61620.7256     0.13609E-02 
  61652.9878     0.13544E-02 
  61685.2499     0.13484E-02 
  61717.5121     0.13431E-02 
  61749.7742     0.13384E-02 
  61782.0364     0.13343E-02 
  61814.2986     0.13309E-02 
  61846.5607     0.13280E-02 
  61878.8229     0.13258E-02 
  61911.0850     0.13243E-02 
  61943.3472     0.13233E-02 
  61975.6094     0.13231E-02 
  62007.8715     0.13234E-02 
  62040.1337     0.13245E-02 
  62072.3958     0.13262E-02 
  62104.6580     0.13286E-02 
  62136.9202     0.13317E-02 
  62169.1823     0.13354E-02 
  62201.4445     0.13399E-02 
  62233.7066     0.13451E-02 
  62265.9688     0.13510E-02 
  62298.2310     0.13576E-02 
  62330.4931     0.13649E-02 
  62362.7553     0.13729E-02 
  62395.0174     0.13817E-02 
  62427.2796     0.13913E-02 
  62459.5418     0.14016E-02 
  62491.8039     0.14126E-02 
  62524.0661     0.14244E-02 
  62556.3282     0.14370E-02 
  62588.5904     0.14504E-02 
  62620.8526     0.14646E-02 
  62653.1147     0.14796E-02 
  62685.3769     0.14954E-02 
  62717.6390     0.15120E-02 
  62749.9012     0.15294E-02 
  62782.1634     0.15477E-02 
  62814.4255     0.15668E-02 
  62846.6877     0.15867E-02 
  62878.9498     0.16075E-02 
  62911.2120     0.16292E-02 
  62943.4742     0.16518E-02 
  62975.7363     0.16752E-02 
  63007.9985     0.16995E-02 
  63040.2606     0.17248E-02 
  63072.5228     0.17509E-02 
  63104.7850     0.17780E-02 
  63137.0471     0.18060E-02 
  63169.3093     0.18349E-02 
  63201.5714     0.18648E-02 
  63233.8336     0.18956E-02 
  63266.0958     0.19274E-02 
  63298.3579     0.19602E-02 
  63330.6201     0.19939E-02 
  63362.8822     0.20287E-02 
  63395.1444     0.20645E-02 
  63427.4066     0.21013E-02 
  63459.6687     0.21391E-02 
  63491.9309     0.21779E-02 
  63524.1930     0.22178E-02 
  63556.4552     0.22587E-02 
  63588.7174     0.23008E-02 
  63620.9795     0.23439E-02 
  63653.2417     0.23880E-02 
  63685.5038     0.24333E-02 
  63717.7660     0.24797E-02 
  63750.0282     0.25272E-02 
  63782.2903     0.25759E-02 
  63814.5525     0.26257E-02 
  63846.8146     0.26766E-02 
  63879.0768     0.27287E-02 
  63911.3390     0.27820E-02 
  63943.6011     0.28365E-02 
  63975.8633     0.28922E-02 
  64008.1254     0.29491E-02 
  64040.3876     0.30072E-02 
  64072.6498     0.30665E-02 
  64104.9119     0.31271E-02 
  64137.1741     0.31890E-02 
  64169.4362     0.32521E-02 
  64201.6984     0.33166E-02 
  64233.9606     0.33823E-02 
  64266.2227     0.34493E-02 
  64298.4849     0.35177E-02 
  64330.7470     0.35873E-02 
  64363.0092     0.36584E-02 
  64395.2714     0.37308E-02 
  64427.5335     0.38045E-02 
  64459.7957     0.38797E-02 
  64492.0578     0.39563E-02 
  64524.3200     0.40342E-02 
  64556.5822     0.41136E-02 
  64588.8443     0.41944E-02 
  64621.1065     0.42767E-02 
  64653.3686     0.43605E-02 
  64685.6308     0.44457E-02 
  64717.8930     0.45325E-02 
  64750.1551     0.46207E-02 
  64782.4173     0.47105E-02 
  64814.6794     0.48018E-02 
  64846.9416     0.48946E-02 
  64879.2038     0.49890E-02 
  64911.4659     0.50850E-02 
  64943.7281     0.51826E-02 
  64975.9902     0.52818E-02 
  65008.2524     0.53826E-02 
  65040.5146     0.54851E-02 
  65072.7767     0.55892E-02 
  65105.0389     0.56950E-02 
  65137.3010     0.58025E-02 
  65169.5632     0.59116E-02 
  65201.8254     0.60225E-02 
  65234.0875     0.61351E-02 
  65266.3497     0.62495E-02 
  65298.6118     0.63656E-02 
  65330.8740     0.64835E-02 
  65363.1362     0.66031E-02 
  65395.3983     0.67246E-02 
  65427.6605     0.68479E-02 
  65459.9226     0.69731E-02 
  65492.1848     0.71001E-02 
  65524.4470     0.72290E-02 
  65556.7091     0.73597E-02 
  65588.9713     0.74924E-02 
  65621.2334     0.76269E-02 
  65653.4956     0.77635E-02 
  65685.7578     0.79019E-02 
  65718.0199     0.80424E-02 
  65750.2821     0.81848E-02 
  65782.5442     0.83292E-02 
  65814.8064     0.84757E-02 
  65847.0686     0.86241E-02 
  65879.3307     0.87747E-02 
  65911.5929     0.89273E-02 
  65943.8550     0.90820E-02 
  65976.1172     0.92387E-02 
  66008.3794     0.93977E-02 
  66040.6415     0.95587E-02 
  66072.9037     0.97219E-02 
  66105.1658     0.98873E-02 
  66137.4280     0.10055E-01 
  66169.6902     0.10225E-01 
  66201.9523     0.10397E-01 
  66234.2145     0.10571E-01 
  66266.4766     0.10747E-01 
  66298.7388     0.10926E-01 
  66331.0010     0.11107E-01 
  66363.2631     0.11291E-01 
  66395.5253     0.11476E-01 
  66427.7874     0.11665E-01 
  66460.0496     0.11855E-01 
  66492.3118     0.12048E-01 
  66524.5739     0.12243E-01 
  66556.8361     0.12441E-01 
  66589.0982     0.12641E-01 
  66621.3604     0.12844E-01 
  66653.6226     0.13049E-01 
  66685.8847     0.13256E-01 
  66718.1469     0.13466E-01 
  66750.4090     0.13679E-01 
  66782.6712     0.13894E-01 
  66814.9334     0.14112E-01 
  66847.1955     0.14332E-01 
  66879.4577     0.14555E-01 
  66911.7198     0.14781E-01 
  66943.9820     0.15009E-01 
  66976.2442     0.15240E-01 
  67008.5063     0.15473E-01 
  67040.7685     0.15710E-01 
  67073.0306     0.15949E-01 
  67105.2928     0.16191E-01 
  67137.5550     0.16435E-01 
  67169.8171     0.16682E-01 
  67202.0793     0.16932E-01 
  67234.3414     0.17185E-01 
  67266.6036     0.17441E-01 
  67298.8658     0.17700E-01 
  67331.1279     0.17961E-01 
  67363.3901     0.18226E-01 
  67395.6522     0.18493E-01 
  67427.9144     0.18763E-01 
  67460.1766     0.19036E-01 
  67492.4387     0.19313E-01 
  67524.7009     0.19592E-01 
  67556.9630     0.19874E-01 
  67589.2252     0.20159E-01 
  67621.4874     0.20447E-01 
  67653.7495     0.20739E-01 
  67686.0117     0.21033E-01 
  67718.2738     0.21331E-01 
  67750.5360     0.21631E-01 
  67782.7982     0.21935E-01 
  67815.0603     0.22242E-01 
  67847.3225     0.22552E-01 
  67879.5846     0.22866E-01 
  67911.8468     0.23182E-01 
  67944.1090     0.23502E-01 
  67976.3711     0.23825E-01 
  68008.6333     0.24151E-01 
  68040.8954     0.24481E-01 
  68073.1576     0.24814E-01 
  68105.4198     0.25150E-01 
  68137.6819     0.25490E-01 
  68169.9441     0.25833E-01 
  68202.2062     0.26180E-01 
  68234.4684     0.26529E-01 
  68266.7306     0.26883E-01 
  68298.9927     0.27239E-01 
  68331.2549     0.27600E-01 
  68363.5170     0.27963E-01 
  68395.7792     0.28330E-01 
  68428.0414     0.28701E-01 
  68460.3035     0.29075E-01 
  68492.5657     0.29453E-01 
  68524.8278     0.29835E-01 
  68557.0900     0.30220E-01 
  68589.3522     0.30608E-01 
  68621.6143     0.31001E-01 
  68653.8765     0.31396E-01 
  68686.1386     0.31796E-01 
  68718.4008     0.32199E-01 
  68750.6630     0.32606E-01 
  68782.9251     0.33017E-01 
  68815.1873     0.33431E-01 
  68847.4494     0.33850E-01 
  68879.7116     0.34272E-01 
  68911.9738     0.34697E-01 
  68944.2359     0.35127E-01 
  68976.4981     0.35560E-01 
  69008.7602     0.35998E-01 
  69041.0224     0.36439E-01 
  69073.2846     0.36884E-01 
  69105.5467     0.37333E-01 
  69137.8089     0.37785E-01 
  69170.0710     0.38242E-01 
  69202.3332     0.38703E-01 
  69234.5954     0.39168E-01 
  69266.8575     0.39636E-01 
  69299.1197     0.40109E-01 
  69331.3818     0.40585E-01 
  69363.6440     0.41066E-01 
  69395.9062     0.41551E-01 
  69428.1683     0.42039E-01 
  69460.4305     0.42532E-01 
  69492.6926     0.43029E-01 
  69524.9548     0.43530E-01 
  69557.2170     0.44035E-01 
  69589.4791     0.44545E-01 
  69621.7413     0.45058E-01 
  69654.0034     0.45576E-01 
  69686.2656     0.46097E-01 
  69718.5278     0.46623E-01 
  69750.7899     0.47153E-01 
  69783.0521     0.47688E-01 
  69815.3142     0.48226E-01 
  69847.5764     0.48769E-01 
  69879.8386     0.49316E-01 
  69912.1007     0.49868E-01 
  69944.3629     0.50423E-01 
  69976.6250     0.50983E-01 
  70008.8872     0.51548E-01 
  70041.1494     0.52116E-01 
  70073.4115     0.52689E-01 
  70105.6737     0.53266E-01 
  70137.9358     0.53848E-01 
  70170.1980     0.54434E-01 
  70202.4602     0.55024E-01 
  70234.7223     0.55619E-01 
  70266.9845     0.56218E-01 
  70299.2466     0.56822E-01 
  70331.5088     0.57430E-01 
  70363.7710     0.58042E-01 
  70396.0331     0.58659E-01 
  70428.2953     0.59281E-01 
  70460.5574     0.59906E-01 
  70492.8196     0.60537E-01 
  70525.0818     0.61171E-01 
  70557.3439     0.61811E-01 
  70589.6061     0.62454E-01 
  70621.8682     0.63103E-01 
  70654.1304     0.63755E-01 
  70686.3926     0.64413E-01 
  70718.6547     0.65075E-01 
  70750.9169     0.65741E-01 
  70783.1790     0.66412E-01 
  70815.4412     0.67087E-01 
  70847.7034     0.67767E-01 
  70879.9655     0.68452E-01 
  70912.2277     0.69141E-01 
  70944.4898     0.69835E-01 
  70976.7520     0.70533E-01 
  71009.0142     0.71236E-01 
  71041.2763     0.71944E-01 
  71073.5385     0.72656E-01 
  71105.8006     0.73372E-01 
  71138.0628     0.74094E-01 
  71170.3250     0.74820E-01 
  71202.5871     0.75550E-01 
  71234.8493     0.76286E-01 
  71267.1114     0.77025E-01 
  71299.3736     0.77770E-01 
  71331.6358     0.78519E-01 
  71363.8979     0.79272E-01 
  71396.1601     0.80031E-01 
  71428.4222     0.80794E-01 
  71460.6844     0.81561E-01 
  71492.9466     0.82334E-01 
  71525.2087     0.83110E-01 
  71557.4709     0.83892E-01 
  71589.7330     0.84678E-01 
  71621.9952     0.85469E-01 
  71654.2574     0.86264E-01 
  71686.5195     0.87064E-01 
  71718.7817     0.87869E-01 
  71751.0438     0.88678E-01 
  71783.3060     0.89492E-01 
  71815.5682     0.90311E-01 
  71847.8303     0.91134E-01 
  71880.0925     0.91962E-01 
  71912.3546     0.92794E-01 
  71944.6168     0.93631E-01 
  71976.8790     0.94473E-01 
  72009.1411     0.95319E-01 
  72041.4033     0.96170E-01 
  72073.6654     0.97025E-01 
  72105.9276     0.97886E-01 
  72138.1898     0.98750E-01 
  72170.4519     0.99619E-01 
  72202.7141     0.10049E+00 
  72234.9762     0.10137E+00 
  72267.2384     0.10225E+00 
  72299.5006     0.10314E+00 
  72331.7627     0.10403E+00 
  72364.0249     0.10493E+00 
  72396.2870     0.10583E+00 
  72428.5492     0.10674E+00 
  72460.8114     0.10765E+00 
  72493.0735     0.10856E+00 
  72525.3357     0.10948E+00 
  72557.5978     0.11040E+00 
  72589.8600     0.11133E+00 
