  32262.1600     0.45825E-05 
  32294.4222     0.46339E-05 
  32326.6843     0.46856E-05 
  32358.9465     0.47378E-05 
  32391.2086     0.47903E-05 
  32423.4708     0.48432E-05 
  32455.7330     0.48965E-05 
  32487.9951     0.49502E-05 
  32520.2573     0.50043E-05 
  32552.5194     0.50587E-05 
  32584.7816     0.51135E-05 
  32617.0438     0.51687E-05 
  32649.3059     0.52243E-05 
  32681.5681     0.52802E-05 
  32713.8302     0.53366E-05 
  32746.0924     0.53933E-05 
  32778.3546     0.54504E-05 
  32810.6167     0.55079E-05 
  32842.8789     0.55657E-05 
  32875.1410     0.56239E-05 
  32907.4032     0.56825E-05 
  32939.6654     0.57415E-05 
  32971.9275     0.58009E-05 
  33004.1897     0.58606E-05 
  33036.4518     0.59207E-05 
  33068.7140     0.59812E-05 
  33100.9762     0.60420E-05 
  33133.2383     0.61033E-05 
  33165.5005     0.61649E-05 
  33197.7626     0.62268E-05 
  33230.0248     0.62892E-05 
  33262.2870     0.63519E-05 
  33294.5491     0.64149E-05 
  33326.8113     0.64784E-05 
  33359.0734     0.65422E-05 
  33391.3356     0.66063E-05 
  33423.5978     0.66708E-05 
  33455.8599     0.67357E-05 
  33488.1221     0.68010E-05 
  33520.3842     0.68666E-05 
  33552.6464     0.69325E-05 
  33584.9086     0.69988E-05 
  33617.1707     0.70655E-05 
  33649.4329     0.71325E-05 
  33681.6950     0.71999E-05 
  33713.9572     0.72676E-05 
  33746.2194     0.73357E-05 
  33778.4815     0.74041E-05 
  33810.7437     0.74728E-05 
  33843.0058     0.75419E-05 
  33875.2680     0.76114E-05 
  33907.5302     0.76811E-05 
  33939.7923     0.77512E-05 
  33972.0545     0.78217E-05 
  34004.3166     0.78924E-05 
  34036.5788     0.79635E-05 
  34068.8410     0.80350E-05 
  34101.1031     0.81067E-05 
  34133.3653     0.81788E-05 
  34165.6274     0.82512E-05 
  34197.8896     0.83239E-05 
  34230.1518     0.83969E-05 
  34262.4139     0.84703E-05 
  34294.6761     0.85439E-05 
  34326.9382     0.86179E-05 
  34359.2004     0.86921E-05 
  34391.4626     0.87667E-05 
  34423.7247     0.88416E-05 
  34455.9869     0.89167E-05 
  34488.2490     0.89922E-05 
  34520.5112     0.90679E-05 
  34552.7734     0.91440E-05 
  34585.0355     0.92203E-05 
  34617.2977     0.92969E-05 
  34649.5598     0.93738E-05 
  34681.8220     0.94509E-05 
  34714.0842     0.95284E-05 
  34746.3463     0.96061E-05 
  34778.6085     0.96840E-05 
  34810.8706     0.97623E-05 
  34843.1328     0.98408E-05 
  34875.3950     0.99195E-05 
  34907.6571     0.99985E-05 
  34939.9193     0.10078E-04 
  34972.1814     0.10157E-04 
  35004.4436     0.10237E-04 
  35036.7058     0.10317E-04 
  35068.9679     0.10397E-04 
  35101.2301     0.10478E-04 
  35133.4922     0.10558E-04 
  35165.7544     0.10639E-04 
  35198.0166     0.10720E-04 
  35230.2787     0.10802E-04 
  35262.5409     0.10883E-04 
  35294.8030     0.10965E-04 
  35327.0652     0.11047E-04 
  35359.3274     0.11129E-04 
  35391.5895     0.11212E-04 
  35423.8517     0.11294E-04 
  35456.1138     0.11377E-04 
  35488.3760     0.11460E-04 
  35520.6382     0.11543E-04 
  35552.9003     0.11626E-04 
  35585.1625     0.11710E-04 
  35617.4246     0.11793E-04 
  35649.6868     0.11877E-04 
  35681.9490     0.11961E-04 
  35714.2111     0.12045E-04 
  35746.4733     0.12129E-04 
  35778.7354     0.12214E-04 
  35810.9976     0.12298E-04 
  35843.2598     0.12383E-04 
  35875.5219     0.12468E-04 
  35907.7841     0.12553E-04 
  35940.0462     0.12638E-04 
  35972.3084     0.12723E-04 
  36004.5706     0.12808E-04 
  36036.8327     0.12894E-04 
  36069.0949     0.12979E-04 
  36101.3570     0.13065E-04 
  36133.6192     0.13151E-04 
  36165.8814     0.13237E-04 
  36198.1435     0.13322E-04 
  36230.4057     0.13408E-04 
  36262.6678     0.13494E-04 
  36294.9300     0.13581E-04 
  36327.1922     0.13667E-04 
  36359.4543     0.13753E-04 
  36391.7165     0.13839E-04 
  36423.9786     0.13926E-04 
  36456.2408     0.14012E-04 
  36488.5030     0.14098E-04 
  36520.7651     0.14185E-04 
  36553.0273     0.14271E-04 
  36585.2894     0.14358E-04 
  36617.5516     0.14445E-04 
  36649.8138     0.14531E-04 
  36682.0759     0.14618E-04 
  36714.3381     0.14704E-04 
  36746.6002     0.14791E-04 
  36778.8624     0.14877E-04 
  36811.1246     0.14964E-04 
  36843.3867     0.15051E-04 
  36875.6489     0.15137E-04 
  36907.9110     0.15224E-04 
  36940.1732     0.15310E-04 
  36972.4354     0.15397E-04 
  37004.6975     0.15483E-04 
  37036.9597     0.15569E-04 
  37069.2218     0.15656E-04 
  37101.4840     0.15742E-04 
  37133.7462     0.15828E-04 
  37166.0083     0.15914E-04 
  37198.2705     0.16000E-04 
  37230.5326     0.16086E-04 
  37262.7948     0.16172E-04 
  37295.0570     0.16258E-04 
  37327.3191     0.16343E-04 
  37359.5813     0.16429E-04 
  37391.8434     0.16514E-04 
  37424.1056     0.16600E-04 
  37456.3678     0.16685E-04 
  37488.6299     0.16770E-04 
  37520.8921     0.16855E-04 
  37553.1542     0.16940E-04 
  37585.4164     0.17024E-04 
  37617.6786     0.17109E-04 
  37649.9407     0.17193E-04 
  37682.2029     0.17277E-04 
  37714.4650     0.17362E-04 
  37746.7272     0.17445E-04 
  37778.9894     0.17529E-04 
  37811.2515     0.17613E-04 
  37843.5137     0.17696E-04 
  37875.7758     0.17779E-04 
  37908.0380     0.17862E-04 
  37940.3002     0.17945E-04 
  37972.5623     0.18027E-04 
  38004.8245     0.18110E-04 
  38037.0866     0.18192E-04 
  38069.3488     0.18274E-04 
  38101.6110     0.18356E-04 
  38133.8731     0.18437E-04 
  38166.1353     0.18518E-04 
  38198.3974     0.18599E-04 
  38230.6596     0.18680E-04 
  38262.9218     0.18760E-04 
  38295.1839     0.18840E-04 
  38327.4461     0.18920E-04 
  38359.7082     0.19000E-04 
  38391.9704     0.19079E-04 
  38424.2326     0.19158E-04 
  38456.4947     0.19237E-04 
  38488.7569     0.19316E-04 
  38521.0190     0.19394E-04 
  38553.2812     0.19472E-04 
  38585.5434     0.19549E-04 
  38617.8055     0.19627E-04 
  38650.0677     0.19704E-04 
  38682.3298     0.19780E-04 
  38714.5920     0.19857E-04 
  38746.8542     0.19933E-04 
  38779.1163     0.20008E-04 
  38811.3785     0.20083E-04 
  38843.6406     0.20158E-04 
  38875.9028     0.20233E-04 
  38908.1650     0.20307E-04 
  38940.4271     0.20381E-04 
  38972.6893     0.20455E-04 
  39004.9514     0.20528E-04 
  39037.2136     0.20600E-04 
  39069.4758     0.20673E-04 
  39101.7379     0.20745E-04 
  39134.0001     0.20816E-04 
  39166.2622     0.20887E-04 
  39198.5244     0.20958E-04 
  39230.7866     0.21028E-04 
  39263.0487     0.21098E-04 
  39295.3109     0.21168E-04 
  39327.5730     0.21237E-04 
  39359.8352     0.21306E-04 
  39392.0974     0.21374E-04 
  39424.3595     0.21442E-04 
  39456.6217     0.21509E-04 
  39488.8838     0.21576E-04 
  39521.1460     0.21642E-04 
  39553.4082     0.21708E-04 
  39585.6703     0.21774E-04 
  39617.9325     0.21839E-04 
  39650.1946     0.21904E-04 
  39682.4568     0.21968E-04 
  39714.7190     0.22031E-04 
  39746.9811     0.22095E-04 
  39779.2433     0.22157E-04 
  39811.5054     0.22220E-04 
  39843.7676     0.22281E-04 
  39876.0298     0.22342E-04 
  39908.2919     0.22403E-04 
  39940.5541     0.22463E-04 
  39972.8162     0.22523E-04 
  40005.0784     0.22582E-04 
  40037.3406     0.22641E-04 
  40069.6027     0.22699E-04 
  40101.8649     0.22757E-04 
  40134.1270     0.22814E-04 
  40166.3892     0.22871E-04 
  40198.6514     0.22927E-04 
  40230.9135     0.22982E-04 
  40263.1757     0.23037E-04 
  40295.4378     0.23091E-04 
  40327.7000     0.23145E-04 
  40359.9622     0.23199E-04 
  40392.2243     0.23251E-04 
  40424.4865     0.23304E-04 
  40456.7486     0.23355E-04 
  40489.0108     0.23406E-04 
  40521.2730     0.23457E-04 
  40553.5351     0.23507E-04 
  40585.7973     0.23556E-04 
  40618.0594     0.23605E-04 
  40650.3216     0.23653E-04 
  40682.5838     0.23701E-04 
  40714.8459     0.23748E-04 
  40747.1081     0.23794E-04 
  40779.3702     0.23840E-04 
  40811.6324     0.23886E-04 
  40843.8946     0.23930E-04 
  40876.1567     0.23974E-04 
  40908.4189     0.24018E-04 
  40940.6810     0.24061E-04 
  40972.9432     0.24103E-04 
  41005.2054     0.24145E-04 
  41037.4675     0.24186E-04 
  41069.7297     0.24226E-04 
  41101.9918     0.24266E-04 
  41134.2540     0.24305E-04 
  41166.5162     0.24344E-04 
  41198.7783     0.24382E-04 
  41231.0405     0.24419E-04 
  41263.3026     0.24456E-04 
  41295.5648     0.24492E-04 
  41327.8270     0.24527E-04 
  41360.0891     0.24562E-04 
  41392.3513     0.24597E-04 
  41424.6134     0.24630E-04 
  41456.8756     0.24663E-04 
  41489.1378     0.24695E-04 
  41521.3999     0.24727E-04 
  41553.6621     0.24758E-04 
  41585.9242     0.24788E-04 
  41618.1864     0.24818E-04 
  41650.4486     0.24847E-04 
  41682.7107     0.24876E-04 
  41714.9729     0.24903E-04 
  41747.2350     0.24931E-04 
  41779.4972     0.24957E-04 
  41811.7594     0.24983E-04 
  41844.0215     0.25008E-04 
  41876.2837     0.25033E-04 
  41908.5458     0.25056E-04 
  41940.8080     0.25080E-04 
  41973.0702     0.25102E-04 
  42005.3323     0.25124E-04 
  42037.5945     0.25145E-04 
  42069.8566     0.25166E-04 
  42102.1188     0.25186E-04 
  42134.3810     0.25205E-04 
  42166.6431     0.25224E-04 
  42198.9053     0.25242E-04 
  42231.1674     0.25259E-04 
  42263.4296     0.25276E-04 
  42295.6918     0.25292E-04 
  42327.9539     0.25307E-04 
  42360.2161     0.25322E-04 
  42392.4782     0.25336E-04 
  42424.7404     0.25349E-04 
  42457.0026     0.25362E-04 
  42489.2647     0.25374E-04 
  42521.5269     0.25385E-04 
  42553.7890     0.25396E-04 
  42586.0512     0.25406E-04 
  42618.3134     0.25415E-04 
  42650.5755     0.25424E-04 
  42682.8377     0.25432E-04 
  42715.0998     0.25439E-04 
  42747.3620     0.25446E-04 
  42779.6242     0.25452E-04 
  42811.8863     0.25458E-04 
  42844.1485     0.25462E-04 
  42876.4106     0.25467E-04 
  42908.6728     0.25470E-04 
  42940.9350     0.25473E-04 
  42973.1971     0.25475E-04 
  43005.4593     0.25476E-04 
  43037.7214     0.25477E-04 
  43069.9836     0.25477E-04 
  43102.2458     0.25477E-04 
  43134.5079     0.25476E-04 
  43166.7701     0.25474E-04 
  43199.0322     0.25472E-04 
  43231.2944     0.25469E-04 
  43263.5566     0.25465E-04 
  43295.8187     0.25460E-04 
  43328.0809     0.25455E-04 
  43360.3430     0.25450E-04 
  43392.6052     0.25444E-04 
  43424.8674     0.25437E-04 
  43457.1295     0.25429E-04 
  43489.3917     0.25421E-04 
  43521.6538     0.25412E-04 
  43553.9160     0.25403E-04 
  43586.1782     0.25393E-04 
  43618.4403     0.25382E-04 
  43650.7025     0.25370E-04 
  43682.9646     0.25359E-04 
  43715.2268     0.25346E-04 
  43747.4890     0.25333E-04 
  43779.7511     0.25319E-04 
  43812.0133     0.25304E-04 
  43844.2754     0.25289E-04 
  43876.5376     0.25274E-04 
  43908.7998     0.25257E-04 
  43941.0619     0.25240E-04 
  43973.3241     0.25223E-04 
  44005.5862     0.25205E-04 
  44037.8484     0.25186E-04 
  44070.1106     0.25167E-04 
  44102.3727     0.25147E-04 
  44134.6349     0.25126E-04 
  44166.8970     0.25105E-04 
  44199.1592     0.25084E-04 
  44231.4214     0.25061E-04 
  44263.6835     0.25038E-04 
  44295.9457     0.25015E-04 
  44328.2078     0.24991E-04 
  44360.4700     0.24966E-04 
  44392.7322     0.24941E-04 
  44424.9943     0.24915E-04 
  44457.2565     0.24889E-04 
  44489.5186     0.24862E-04 
  44521.7808     0.24835E-04 
  44554.0430     0.24807E-04 
  44586.3051     0.24778E-04 
  44618.5673     0.24749E-04 
  44650.8294     0.24719E-04 
  44683.0916     0.24689E-04 
  44715.3538     0.24658E-04 
  44747.6159     0.24627E-04 
  44779.8781     0.24595E-04 
  44812.1402     0.24562E-04 
  44844.4024     0.24529E-04 
  44876.6646     0.24496E-04 
  44908.9267     0.24462E-04 
  44941.1889     0.24427E-04 
  44973.4510     0.24392E-04 
  45005.7132     0.24357E-04 
  45037.9754     0.24320E-04 
  45070.2375     0.24284E-04 
  45102.4997     0.24247E-04 
  45134.7618     0.24209E-04 
  45167.0240     0.24171E-04 
  45199.2862     0.24132E-04 
  45231.5483     0.24093E-04 
  45263.8105     0.24053E-04 
  45296.0726     0.24013E-04 
  45328.3348     0.23973E-04 
  45360.5970     0.23931E-04 
  45392.8591     0.23890E-04 
  45425.1213     0.23848E-04 
  45457.3834     0.23805E-04 
  45489.6456     0.23762E-04 
  45521.9078     0.23719E-04 
  45554.1699     0.23675E-04 
  45586.4321     0.23630E-04 
  45618.6942     0.23585E-04 
  45650.9564     0.23540E-04 
  45683.2186     0.23494E-04 
  45715.4807     0.23448E-04 
  45747.7429     0.23402E-04 
  45780.0050     0.23354E-04 
  45812.2672     0.23307E-04 
  45844.5294     0.23259E-04 
  45876.7915     0.23211E-04 
  45909.0537     0.23162E-04 
  45941.3158     0.23113E-04 
  45973.5780     0.23063E-04 
  46005.8402     0.23013E-04 
  46038.1023     0.22962E-04 
  46070.3645     0.22912E-04 
  46102.6266     0.22860E-04 
  46134.8888     0.22809E-04 
  46167.1510     0.22757E-04 
  46199.4131     0.22704E-04 
  46231.6753     0.22651E-04 
  46263.9374     0.22598E-04 
  46296.1996     0.22545E-04 
  46328.4618     0.22491E-04 
  46360.7239     0.22436E-04 
  46392.9861     0.22382E-04 
  46425.2482     0.22327E-04 
  46457.5104     0.22271E-04 
  46489.7726     0.22216E-04 
  46522.0347     0.22159E-04 
  46554.2969     0.22103E-04 
  46586.5590     0.22046E-04 
  46618.8212     0.21989E-04 
  46651.0834     0.21932E-04 
  46683.3455     0.21874E-04 
  46715.6077     0.21816E-04 
  46747.8698     0.21757E-04 
  46780.1320     0.21699E-04 
  46812.3942     0.21639E-04 
  46844.6563     0.21580E-04 
  46876.9185     0.21520E-04 
  46909.1806     0.21460E-04 
  46941.4428     0.21400E-04 
  46973.7050     0.21340E-04 
  47005.9671     0.21279E-04 
  47038.2293     0.21218E-04 
  47070.4914     0.21156E-04 
  47102.7536     0.21094E-04 
  47135.0158     0.21032E-04 
  47167.2779     0.20970E-04 
  47199.5401     0.20908E-04 
  47231.8022     0.20845E-04 
  47264.0644     0.20782E-04 
  47296.3266     0.20718E-04 
  47328.5887     0.20655E-04 
  47360.8509     0.20591E-04 
  47393.1130     0.20527E-04 
  47425.3752     0.20463E-04 
  47457.6374     0.20398E-04 
  47489.8995     0.20334E-04 
  47522.1617     0.20269E-04 
  47554.4238     0.20203E-04 
  47586.6860     0.20138E-04 
  47618.9482     0.20072E-04 
  47651.2103     0.20006E-04 
  47683.4725     0.19940E-04 
  47715.7346     0.19874E-04 
  47747.9968     0.19808E-04 
  47780.2590     0.19741E-04 
  47812.5211     0.19674E-04 
  47844.7833     0.19607E-04 
  47877.0454     0.19540E-04 
  47909.3076     0.19473E-04 
  47941.5698     0.19405E-04 
  47973.8319     0.19337E-04 
  48006.0941     0.19269E-04 
  48038.3562     0.19201E-04 
  48070.6184     0.19133E-04 
  48102.8806     0.19065E-04 
  48135.1427     0.18996E-04 
  48167.4049     0.18927E-04 
  48199.6670     0.18858E-04 
  48231.9292     0.18790E-04 
  48264.1914     0.18720E-04 
  48296.4535     0.18651E-04 
  48328.7157     0.18582E-04 
  48360.9778     0.18512E-04 
  48393.2400     0.18442E-04 
  48425.5022     0.18373E-04 
  48457.7643     0.18303E-04 
  48490.0265     0.18233E-04 
  48522.2886     0.18163E-04 
  48554.5508     0.18092E-04 
  48586.8130     0.18022E-04 
  48619.0751     0.17952E-04 
  48651.3373     0.17881E-04 
  48683.5994     0.17811E-04 
  48715.8616     0.17740E-04 
  48748.1238     0.17669E-04 
  48780.3859     0.17598E-04 
  48812.6481     0.17527E-04 
  48844.9102     0.17456E-04 
  48877.1724     0.17385E-04 
  48909.4346     0.17314E-04 
  48941.6967     0.17243E-04 
  48973.9589     0.17171E-04 
  49006.2210     0.17100E-04 
  49038.4832     0.17029E-04 
  49070.7454     0.16957E-04 
  49103.0075     0.16886E-04 
  49135.2697     0.16814E-04 
  49167.5318     0.16743E-04 
  49199.7940     0.16671E-04 
  49232.0562     0.16599E-04 
  49264.3183     0.16528E-04 
  49296.5805     0.16456E-04 
  49328.8426     0.16384E-04 
  49361.1048     0.16312E-04 
  49393.3670     0.16241E-04 
  49425.6291     0.16169E-04 
  49457.8913     0.16097E-04 
  49490.1534     0.16025E-04 
  49522.4156     0.15953E-04 
  49554.6778     0.15881E-04 
  49586.9399     0.15810E-04 
  49619.2021     0.15738E-04 
  49651.4642     0.15666E-04 
  49683.7264     0.15594E-04 
  49715.9886     0.15522E-04 
  49748.2507     0.15450E-04 
  49780.5129     0.15379E-04 
  49812.7750     0.15307E-04 
  49845.0372     0.15235E-04 
  49877.2994     0.15163E-04 
  49909.5615     0.15092E-04 
  49941.8237     0.15020E-04 
  49974.0858     0.14948E-04 
  50006.3480     0.14877E-04 
  50038.6102     0.14805E-04 
  50070.8723     0.14734E-04 
  50103.1345     0.14662E-04 
  50135.3966     0.14591E-04 
  50167.6588     0.14520E-04 
  50199.9210     0.14448E-04 
  50232.1831     0.14377E-04 
  50264.4453     0.14306E-04 
  50296.7074     0.14235E-04 
  50328.9696     0.14164E-04 
  50361.2318     0.14093E-04 
  50393.4939     0.14022E-04 
  50425.7561     0.13951E-04 
  50458.0182     0.13880E-04 
  50490.2804     0.13809E-04 
  50522.5426     0.13739E-04 
  50554.8047     0.13668E-04 
  50587.0669     0.13598E-04 
  50619.3290     0.13527E-04 
  50651.5912     0.13457E-04 
  50683.8534     0.13387E-04 
  50716.1155     0.13316E-04 
  50748.3777     0.13246E-04 
  50780.6398     0.13177E-04 
  50812.9020     0.13107E-04 
  50845.1642     0.13037E-04 
  50877.4263     0.12967E-04 
  50909.6885     0.12898E-04 
  50941.9506     0.12828E-04 
  50974.2128     0.12759E-04 
  51006.4750     0.12690E-04 
  51038.7371     0.12621E-04 
  51070.9993     0.12552E-04 
  51103.2614     0.12483E-04 
  51135.5236     0.12414E-04 
  51167.7858     0.12346E-04 
  51200.0479     0.12277E-04 
  51232.3101     0.12209E-04 
  51264.5722     0.12141E-04 
  51296.8344     0.12072E-04 
  51329.0966     0.12004E-04 
  51361.3587     0.11937E-04 
  51393.6209     0.11869E-04 
  51425.8830     0.11801E-04 
  51458.1452     0.11734E-04 
  51490.4074     0.11667E-04 
  51522.6695     0.11599E-04 
  51554.9317     0.11532E-04 
  51587.1938     0.11466E-04 
  51619.4560     0.11399E-04 
  51651.7182     0.11332E-04 
  51683.9803     0.11266E-04 
  51716.2425     0.11200E-04 
  51748.5046     0.11134E-04 
  51780.7668     0.11068E-04 
  51813.0290     0.11002E-04 
  51845.2911     0.10936E-04 
  51877.5533     0.10871E-04 
  51909.8154     0.10805E-04 
  51942.0776     0.10740E-04 
  51974.3398     0.10675E-04 
  52006.6019     0.10610E-04 
  52038.8641     0.10546E-04 
  52071.1262     0.10481E-04 
  52103.3884     0.10417E-04 
  52135.6506     0.10353E-04 
  52167.9127     0.10289E-04 
  52200.1749     0.10225E-04 
  52232.4370     0.10161E-04 
  52264.6992     0.10098E-04 
  52296.9614     0.10035E-04 
  52329.2235     0.99716E-05 
  52361.4857     0.99087E-05 
  52393.7478     0.98459E-05 
  52426.0100     0.97834E-05 
  52458.2722     0.97210E-05 
  52490.5343     0.96588E-05 
  52522.7965     0.95968E-05 
  52555.0586     0.95350E-05 
  52587.3208     0.94734E-05 
  52619.5830     0.94119E-05 
  52651.8451     0.93507E-05 
  52684.1073     0.92896E-05 
  52716.3694     0.92287E-05 
  52748.6316     0.91681E-05 
  52780.8938     0.91076E-05 
  52813.1559     0.90473E-05 
  52845.4181     0.89872E-05 
  52877.6802     0.89273E-05 
  52909.9424     0.88676E-05 
  52942.2046     0.88081E-05 
  52974.4667     0.87488E-05 
  53006.7289     0.86897E-05 
  53038.9910     0.86308E-05 
  53071.2532     0.85721E-05 
  53103.5154     0.85136E-05 
  53135.7775     0.84553E-05 
  53168.0397     0.83972E-05 
  53200.3018     0.83393E-05 
  53232.5640     0.82816E-05 
  53264.8262     0.82241E-05 
  53297.0883     0.81668E-05 
  53329.3505     0.81098E-05 
  53361.6126     0.80529E-05 
  53393.8748     0.79962E-05 
  53426.1370     0.79398E-05 
  53458.3991     0.78835E-05 
  53490.6613     0.78275E-05 
  53522.9234     0.77717E-05 
  53555.1856     0.77161E-05 
  53587.4478     0.76607E-05 
  53619.7099     0.76055E-05 
  53651.9721     0.75505E-05 
  53684.2342     0.74957E-05 
  53716.4964     0.74412E-05 
  53748.7586     0.73869E-05 
  53781.0207     0.73327E-05 
  53813.2829     0.72788E-05 
  53845.5450     0.72251E-05 
  53877.8072     0.71716E-05 
  53910.0694     0.71184E-05 
  53942.3315     0.70653E-05 
  53974.5937     0.70125E-05 
  54006.8558     0.69599E-05 
  54039.1180     0.69075E-05 
  54071.3802     0.68553E-05 
  54103.6423     0.68033E-05 
  54135.9045     0.67516E-05 
  54168.1666     0.67000E-05 
  54200.4288     0.66487E-05 
  54232.6910     0.65976E-05 
  54264.9531     0.65467E-05 
  54297.2153     0.64961E-05 
  54329.4774     0.64456E-05 
  54361.7396     0.63954E-05 
  54394.0018     0.63454E-05 
  54426.2639     0.62956E-05 
  54458.5261     0.62460E-05 
  54490.7882     0.61967E-05 
  54523.0504     0.61475E-05 
  54555.3126     0.60986E-05 
  54587.5747     0.60499E-05 
  54619.8369     0.60014E-05 
  54652.0990     0.59532E-05 
  54684.3612     0.59052E-05 
  54716.6234     0.58573E-05 
  54748.8855     0.58097E-05 
  54781.1477     0.57624E-05 
  54813.4098     0.57152E-05 
  54845.6720     0.56683E-05 
  54877.9342     0.56215E-05 
  54910.1963     0.55750E-05 
  54942.4585     0.55288E-05 
  54974.7206     0.54827E-05 
  55006.9828     0.54369E-05 
  55039.2450     0.53912E-05 
  55071.5071     0.53458E-05 
  55103.7693     0.53006E-05 
  55136.0314     0.52557E-05 
  55168.2936     0.52109E-05 
  55200.5558     0.51664E-05 
  55232.8179     0.51221E-05 
  55265.0801     0.50780E-05 
  55297.3422     0.50341E-05 
  55329.6044     0.49904E-05 
  55361.8666     0.49470E-05 
  55394.1287     0.49038E-05 
  55426.3909     0.48608E-05 
  55458.6530     0.48180E-05 
  55490.9152     0.47754E-05 
  55523.1774     0.47331E-05 
  55555.4395     0.46909E-05 
  55587.7017     0.46490E-05 
  55619.9638     0.46073E-05 
  55652.2260     0.45658E-05 
  55684.4882     0.45245E-05 
  55716.7503     0.44834E-05 
  55749.0125     0.44426E-05 
  55781.2746     0.44020E-05 
  55813.5368     0.43615E-05 
  55845.7990     0.43213E-05 
  55878.0611     0.42813E-05 
  55910.3233     0.42416E-05 
  55942.5854     0.42020E-05 
  55974.8476     0.41627E-05 
  56007.1098     0.41235E-05 
  56039.3719     0.40846E-05 
  56071.6341     0.40459E-05 
  56103.8962     0.40074E-05 
  56136.1584     0.39691E-05 
  56168.4206     0.39310E-05 
  56200.6827     0.38931E-05 
  56232.9449     0.38554E-05 
  56265.2070     0.38180E-05 
  56297.4692     0.37807E-05 
  56329.7314     0.37437E-05 
  56361.9935     0.37069E-05 
  56394.2557     0.36703E-05 
  56426.5178     0.36339E-05 
  56458.7800     0.35976E-05 
  56491.0422     0.35616E-05 
  56523.3043     0.35259E-05 
  56555.5665     0.34903E-05 
  56587.8286     0.34549E-05 
  56620.0908     0.34197E-05 
  56652.3530     0.33847E-05 
  56684.6151     0.33500E-05 
  56716.8773     0.33154E-05 
  56749.1394     0.32811E-05 
  56781.4016     0.32469E-05 
  56813.6638     0.32129E-05 
  56845.9259     0.31792E-05 
  56878.1881     0.31456E-05 
  56910.4502     0.31123E-05 
  56942.7124     0.30791E-05 
  56974.9746     0.30462E-05 
  57007.2367     0.30135E-05 
  57039.4989     0.29809E-05 
  57071.7610     0.29486E-05 
  57104.0232     0.29164E-05 
  57136.2854     0.28845E-05 
  57168.5475     0.28527E-05 
  57200.8097     0.28211E-05 
  57233.0718     0.27898E-05 
  57265.3340     0.27586E-05 
  57297.5962     0.27276E-05 
  57329.8583     0.26969E-05 
  57362.1205     0.26663E-05 
  57394.3826     0.26359E-05 
  57426.6448     0.26057E-05 
  57458.9070     0.25757E-05 
  57491.1691     0.25459E-05 
  57523.4313     0.25163E-05 
  57555.6934     0.24869E-05 
  57587.9556     0.24577E-05 
  57620.2178     0.24286E-05 
  57652.4799     0.23998E-05 
  57684.7421     0.23711E-05 
  57717.0042     0.23427E-05 
  57749.2664     0.23144E-05 
  57781.5286     0.22863E-05 
  57813.7907     0.22584E-05 
  57846.0529     0.22307E-05 
  57878.3150     0.22032E-05 
  57910.5772     0.21758E-05 
  57942.8394     0.21487E-05 
  57975.1015     0.21217E-05 
  58007.3637     0.20950E-05 
  58039.6258     0.20684E-05 
  58071.8880     0.20420E-05 
  58104.1502     0.20157E-05 
  58136.4123     0.19897E-05 
  58168.6745     0.19639E-05 
  58200.9366     0.19382E-05 
  58233.1988     0.19127E-05 
  58265.4610     0.18874E-05 
  58297.7231     0.18623E-05 
  58329.9853     0.18373E-05 
  58362.2474     0.18126E-05 
  58394.5096     0.17880E-05 
  58426.7718     0.17636E-05 
  58459.0339     0.17394E-05 
  58491.2961     0.17154E-05 
  58523.5582     0.16915E-05 
  58555.8204     0.16678E-05 
  58588.0826     0.16443E-05 
  58620.3447     0.16210E-05 
  58652.6069     0.15979E-05 
  58684.8690     0.15749E-05 
  58717.1312     0.15521E-05 
  58749.3934     0.15295E-05 
  58781.6555     0.15071E-05 
  58813.9177     0.14848E-05 
  58846.1798     0.14627E-05 
  58878.4420     0.14408E-05 
  58910.7042     0.14191E-05 
  58942.9663     0.13976E-05 
  58975.2285     0.13762E-05 
  59007.4906     0.13550E-05 
  59039.7528     0.13339E-05 
  59072.0150     0.13131E-05 
  59104.2771     0.12924E-05 
  59136.5393     0.12719E-05 
  59168.8014     0.12516E-05 
  59201.0636     0.12314E-05 
  59233.3258     0.12114E-05 
  59265.5879     0.11916E-05 
  59297.8501     0.11720E-05 
  59330.1122     0.11525E-05 
  59362.3744     0.11332E-05 
  59394.6366     0.11141E-05 
  59426.8987     0.10952E-05 
  59459.1609     0.10764E-05 
  59491.4230     0.10578E-05 
  59523.6852     0.10394E-05 
  59555.9474     0.10211E-05 
  59588.2095     0.10030E-05 
  59620.4717     0.98512E-06 
  59652.7338     0.96738E-06 
  59684.9960     0.94981E-06 
  59717.2582     0.93242E-06 
  59749.5203     0.91519E-06 
  59781.7825     0.89814E-06 
  59814.0446     0.88126E-06 
  59846.3068     0.86455E-06 
  59878.5690     0.84802E-06 
  59910.8311     0.83166E-06 
  59943.0933     0.81547E-06 
  59975.3554     0.79945E-06 
  60007.6176     0.78361E-06 
  60039.8798     0.76793E-06 
  60072.1419     0.75244E-06 
  60104.4041     0.73711E-06 
  60136.6662     0.72196E-06 
  60168.9284     0.70698E-06 
  60201.1906     0.69218E-06 
  60233.4527     0.67755E-06 
  60265.7149     0.66309E-06 
  60297.9770     0.64881E-06 
  60330.2392     0.63471E-06 
  60362.5014     0.62078E-06 
  60394.7635     0.60703E-06 
  60427.0257     0.59345E-06 
  60459.2878     0.58005E-06 
  60491.5500     0.56683E-06 
  60523.8122     0.55378E-06 
  60556.0743     0.54091E-06 
  60588.3365     0.52822E-06 
  60620.5986     0.51571E-06 
  60652.8608     0.50338E-06 
  60685.1230     0.49123E-06 
  60717.3851     0.47927E-06 
  60749.6473     0.46748E-06 
  60781.9094     0.45587E-06 
  60814.1716     0.44445E-06 
  60846.4338     0.43321E-06 
  60878.6959     0.42216E-06 
  60910.9581     0.41129E-06 
  60943.2202     0.40061E-06 
  60975.4824     0.39011E-06 
  61007.7446     0.37980E-06 
  61040.0067     0.36968E-06 
  61072.2689     0.35975E-06 
  61104.5310     0.35001E-06 
  61136.7932     0.34046E-06 
  61169.0554     0.33110E-06 
  61201.3175     0.32194E-06 
  61233.5797     0.31297E-06 
  61265.8418     0.30420E-06 
  61298.1040     0.29562E-06 
  61330.3662     0.28724E-06 
  61362.6283     0.27906E-06 
  61394.8905     0.27108E-06 
  61427.1526     0.26331E-06 
  61459.4148     0.25573E-06 
  61491.6770     0.24836E-06 
  61523.9391     0.24120E-06 
  61556.2013     0.23424E-06 
  61588.4634     0.22749E-06 
  61620.7256     0.22095E-06 
  61652.9878     0.21463E-06 
  61685.2499     0.20851E-06 
  61717.5121     0.20262E-06 
  61749.7742     0.19693E-06 
  61782.0364     0.19147E-06 
  61814.2986     0.18623E-06 
  61846.5607     0.18121E-06 
  61878.8229     0.17641E-06 
  61911.0850     0.17184E-06 
  61943.3472     0.16750E-06 
  61975.6094     0.16339E-06 
  62007.8715     0.15951E-06 
  62040.1337     0.15586E-06 
  62072.3958     0.15245E-06 
  62104.6580     0.14928E-06 
  62136.9202     0.14635E-06 
  62169.1823     0.14366E-06 
  62201.4445     0.14122E-06 
  62233.7066     0.13902E-06 
  62265.9688     0.13708E-06 
  62298.2310     0.13539E-06 
  62330.4931     0.13395E-06 
  62362.7553     0.13278E-06 
  62395.0174     0.13186E-06 
  62427.2796     0.13121E-06 
  62459.5418     0.13082E-06 
  62491.8039     0.13070E-06 
  62524.0661     0.13086E-06 
  62556.3282     0.13129E-06 
  62588.5904     0.13200E-06 
  62620.8526     0.13299E-06 
  62653.1147     0.13426E-06 
  62685.3769     0.13583E-06 
  62717.6390     0.13768E-06 
  62749.9012     0.13983E-06 
  62782.1634     0.14228E-06 
  62814.4255     0.14503E-06 
  62846.6877     0.14809E-06 
  62878.9498     0.15145E-06 
  62911.2120     0.15513E-06 
  62943.4742     0.15913E-06 
  62975.7363     0.16344E-06 
  63007.9985     0.16808E-06 
  63040.2606     0.17305E-06 
  63072.5228     0.17836E-06 
  63104.7850     0.18400E-06 
  63137.0471     0.18998E-06 
  63169.3093     0.19631E-06 
  63201.5714     0.20298E-06 
  63233.8336     0.21002E-06 
  63266.0958     0.21741E-06 
  63298.3579     0.22517E-06 
  63330.6201     0.23330E-06 
  63362.8822     0.24180E-06 
  63395.1444     0.25068E-06 
  63427.4066     0.25994E-06 
  63459.6687     0.26960E-06 
  63491.9309     0.27965E-06 
  63524.1930     0.29010E-06 
  63556.4552     0.30095E-06 
  63588.7174     0.31222E-06 
  63620.9795     0.32390E-06 
  63653.2417     0.33601E-06 
  63685.5038     0.34854E-06 
  63717.7660     0.36151E-06 
  63750.0282     0.37492E-06 
  63782.2903     0.38878E-06 
  63814.5525     0.40309E-06 
  63846.8146     0.41786E-06 
  63879.0768     0.43309E-06 
  63911.3390     0.44880E-06 
  63943.6011     0.46499E-06 
  63975.8633     0.48166E-06 
  64008.1254     0.49883E-06 
  64040.3876     0.51649E-06 
  64072.6498     0.53466E-06 
  64104.9119     0.55335E-06 
  64137.1741     0.57256E-06 
  64169.4362     0.59230E-06 
  64201.6984     0.61257E-06 
  64233.9606     0.63339E-06 
  64266.2227     0.65477E-06 
  64298.4849     0.67670E-06 
  64330.7470     0.69920E-06 
  64363.0092     0.72228E-06 
  64395.2714     0.74594E-06 
  64427.5335     0.77020E-06 
  64459.7957     0.79506E-06 
  64492.0578     0.82053E-06 
  64524.3200     0.84662E-06 
  64556.5822     0.87334E-06 
  64588.8443     0.90070E-06 
  64621.1065     0.92871E-06 
  64653.3686     0.95737E-06 
  64685.6308     0.98670E-06 
  64717.8930     0.10167E-05 
  64750.1551     0.10474E-05 
  64782.4173     0.10788E-05 
  64814.6794     0.11109E-05 
  64846.9416     0.11437E-05 
  64879.2038     0.11772E-05 
  64911.4659     0.12115E-05 
  64943.7281     0.12465E-05 
  64975.9902     0.12823E-05 
  65008.2524     0.13189E-05 
  65040.5146     0.13562E-05 
  65072.7767     0.13943E-05 
  65105.0389     0.14333E-05 
  65137.3010     0.14730E-05 
  65169.5632     0.15136E-05 
  65201.8254     0.15550E-05 
  65234.0875     0.15973E-05 
  65266.3497     0.16404E-05 
  65298.6118     0.16844E-05 
  65330.8740     0.17293E-05 
  65363.1362     0.17751E-05 
  65395.3983     0.18218E-05 
  65427.6605     0.18695E-05 
  65459.9226     0.19180E-05 
  65492.1848     0.19676E-05 
  65524.4470     0.20181E-05 
  65556.7091     0.20696E-05 
  65588.9713     0.21221E-05 
  65621.2334     0.21756E-05 
  65653.4956     0.22301E-05 
  65685.7578     0.22856E-05 
  65718.0199     0.23422E-05 
  65750.2821     0.23999E-05 
  65782.5442     0.24587E-05 
  65814.8064     0.25185E-05 
  65847.0686     0.25795E-05 
  65879.3307     0.26416E-05 
  65911.5929     0.27049E-05 
  65943.8550     0.27693E-05 
  65976.1172     0.28349E-05 
  66008.3794     0.29016E-05 
  66040.6415     0.29696E-05 
  66072.9037     0.30388E-05 
  66105.1658     0.31093E-05 
  66137.4280     0.31810E-05 
  66169.6902     0.32540E-05 
  66201.9523     0.33283E-05 
  66234.2145     0.34039E-05 
  66266.4766     0.34809E-05 
  66298.7388     0.35591E-05 
  66331.0010     0.36388E-05 
  66363.2631     0.37198E-05 
  66395.5253     0.38023E-05 
  66427.7874     0.38861E-05 
  66460.0496     0.39714E-05 
  66492.3118     0.40582E-05 
  66524.5739     0.41464E-05 
  66556.8361     0.42362E-05 
  66589.0982     0.43274E-05 
  66621.3604     0.44202E-05 
  66653.6226     0.45146E-05 
  66685.8847     0.46105E-05 
  66718.1469     0.47080E-05 
  66750.4090     0.48072E-05 
  66782.6712     0.49080E-05 
  66814.9334     0.50104E-05 
  66847.1955     0.51146E-05 
  66879.4577     0.52204E-05 
  66911.7198     0.53280E-05 
  66943.9820     0.54373E-05 
  66976.2442     0.55484E-05 
  67008.5063     0.56613E-05 
  67040.7685     0.57760E-05 
  67073.0306     0.58925E-05 
  67105.2928     0.60109E-05 
  67137.5550     0.61311E-05 
  67169.8171     0.62533E-05 
  67202.0793     0.63774E-05 
  67234.3414     0.65035E-05 
  67266.6036     0.66315E-05 
  67298.8658     0.67616E-05 
  67331.1279     0.68936E-05 
  67363.3901     0.70277E-05 
  67395.6522     0.71639E-05 
  67427.9144     0.73022E-05 
  67460.1766     0.74426E-05 
  67492.4387     0.75852E-05 
  67524.7009     0.77299E-05 
  67556.9630     0.78768E-05 
  67589.2252     0.80260E-05 
  67621.4874     0.81774E-05 
  67653.7495     0.83310E-05 
  67686.0117     0.84870E-05 
  67718.2738     0.86453E-05 
  67750.5360     0.88060E-05 
  67782.7982     0.89690E-05 
  67815.0603     0.91345E-05 
  67847.3225     0.93024E-05 
  67879.5846     0.94727E-05 
  67911.8468     0.96455E-05 
  67944.1090     0.98209E-05 
  67976.3711     0.99988E-05 
  68008.6333     0.10179E-04 
  68040.8954     0.10362E-04 
  68073.1576     0.10548E-04 
  68105.4198     0.10736E-04 
  68137.6819     0.10927E-04 
  68169.9441     0.11121E-04 
  68202.2062     0.11318E-04 
  68234.4684     0.11517E-04 
  68266.7306     0.11719E-04 
  68298.9927     0.11924E-04 
  68331.2549     0.12132E-04 
  68363.5170     0.12342E-04 
  68395.7792     0.12556E-04 
  68428.0414     0.12773E-04 
  68460.3035     0.12992E-04 
  68492.5657     0.13215E-04 
  68524.8278     0.13440E-04 
  68557.0900     0.13669E-04 
  68589.3522     0.13901E-04 
  68621.6143     0.14135E-04 
  68653.8765     0.14373E-04 
  68686.1386     0.14615E-04 
  68718.4008     0.14859E-04 
  68750.6630     0.15107E-04 
  68782.9251     0.15358E-04 
  68815.1873     0.15612E-04 
  68847.4494     0.15870E-04 
  68879.7116     0.16131E-04 
  68911.9738     0.16395E-04 
  68944.2359     0.16663E-04 
  68976.4981     0.16934E-04 
  69008.7602     0.17209E-04 
  69041.0224     0.17487E-04 
  69073.2846     0.17769E-04 
  69105.5467     0.18055E-04 
  69137.8089     0.18344E-04 
  69170.0710     0.18637E-04 
  69202.3332     0.18933E-04 
  69234.5954     0.19234E-04 
  69266.8575     0.19538E-04 
  69299.1197     0.19845E-04 
  69331.3818     0.20157E-04 
  69363.6440     0.20473E-04 
  69395.9062     0.20792E-04 
  69428.1683     0.21115E-04 
  69460.4305     0.21442E-04 
  69492.6926     0.21774E-04 
  69524.9548     0.22109E-04 
  69557.2170     0.22448E-04 
  69589.4791     0.22792E-04 
  69621.7413     0.23139E-04 
  69654.0034     0.23491E-04 
  69686.2656     0.23846E-04 
  69718.5278     0.24206E-04 
  69750.7899     0.24571E-04 
  69783.0521     0.24939E-04 
  69815.3142     0.25312E-04 
  69847.5764     0.25689E-04 
  69879.8386     0.26071E-04 
  69912.1007     0.26457E-04 
  69944.3629     0.26847E-04 
  69976.6250     0.27242E-04 
  70008.8872     0.27641E-04 
  70041.1494     0.28045E-04 
  70073.4115     0.28453E-04 
  70105.6737     0.28866E-04 
  70137.9358     0.29284E-04 
  70170.1980     0.29706E-04 
  70202.4602     0.30133E-04 
  70234.7223     0.30565E-04 
  70266.9845     0.31001E-04 
  70299.2466     0.31442E-04 
  70331.5088     0.31888E-04 
  70363.7710     0.32339E-04 
  70396.0331     0.32795E-04 
  70428.2953     0.33255E-04 
  70460.5574     0.33721E-04 
  70492.8196     0.34191E-04 
  70525.0818     0.34667E-04 
  70557.3439     0.35147E-04 
  70589.6061     0.35633E-04 
  70621.8682     0.36123E-04 
  70654.1304     0.36619E-04 
  70686.3926     0.37120E-04 
  70718.6547     0.37626E-04 
  70750.9169     0.38137E-04 
  70783.1790     0.38653E-04 
  70815.4412     0.39175E-04 
  70847.7034     0.39702E-04 
  70879.9655     0.40234E-04 
  70912.2277     0.40771E-04 
  70944.4898     0.41314E-04 
  70976.7520     0.41862E-04 
  71009.0142     0.42416E-04 
  71041.2763     0.42975E-04 
  71073.5385     0.43539E-04 
  71105.8006     0.44109E-04 
  71138.0628     0.44685E-04 
  71170.3250     0.45266E-04 
  71202.5871     0.45852E-04 
  71234.8493     0.46445E-04 
  71267.1114     0.47042E-04 
  71299.3736     0.47646E-04 
  71331.6358     0.48255E-04 
  71363.8979     0.48869E-04 
  71396.1601     0.49489E-04 
  71428.4222     0.50115E-04 
  71460.6844     0.50747E-04 
  71492.9466     0.51385E-04 
  71525.2087     0.52028E-04 
  71557.4709     0.52677E-04 
  71589.7330     0.53332E-04 
  71621.9952     0.53993E-04 
  71654.2574     0.54659E-04 
  71686.5195     0.55332E-04 
  71718.7817     0.56010E-04 
  71751.0438     0.56694E-04 
  71783.3060     0.57384E-04 
  71815.5682     0.58081E-04 
  71847.8303     0.58783E-04 
  71880.0925     0.59491E-04 
  71912.3546     0.60205E-04 
  71944.6168     0.60925E-04 
  71976.8790     0.61651E-04 
  72009.1411     0.62383E-04 
  72041.4033     0.63121E-04 
  72073.6654     0.63865E-04 
  72105.9276     0.64615E-04 
  72138.1898     0.65371E-04 
  72170.4519     0.66134E-04 
  72202.7141     0.66902E-04 
  72234.9762     0.67677E-04 
  72267.2384     0.68457E-04 
  72299.5006     0.69244E-04 
  72331.7627     0.70037E-04 
  72364.0249     0.70836E-04 
  72396.2870     0.71641E-04 
  72428.5492     0.72453E-04 
  72460.8114     0.73270E-04 
  72493.0735     0.74094E-04 
  72525.3357     0.74924E-04 
  72557.5978     0.75760E-04 
  72589.8600     0.76602E-04 
