  32262.1600     0.25008E-01 
  32294.4222     0.25182E-01 
  32326.6843     0.25357E-01 
  32358.9465     0.25532E-01 
  32391.2086     0.25709E-01 
  32423.4708     0.25886E-01 
  32455.7330     0.26063E-01 
  32487.9951     0.26242E-01 
  32520.2573     0.26421E-01 
  32552.5194     0.26600E-01 
  32584.7816     0.26781E-01 
  32617.0438     0.26962E-01 
  32649.3059     0.27144E-01 
  32681.5681     0.27326E-01 
  32713.8302     0.27509E-01 
  32746.0924     0.27693E-01 
  32778.3546     0.27878E-01 
  32810.6167     0.28063E-01 
  32842.8789     0.28249E-01 
  32875.1410     0.28435E-01 
  32907.4032     0.28622E-01 
  32939.6654     0.28810E-01 
  32971.9275     0.28999E-01 
  33004.1897     0.29188E-01 
  33036.4518     0.29378E-01 
  33068.7140     0.29568E-01 
  33100.9762     0.29759E-01 
  33133.2383     0.29951E-01 
  33165.5005     0.30144E-01 
  33197.7626     0.30337E-01 
  33230.0248     0.30531E-01 
  33262.2870     0.30725E-01 
  33294.5491     0.30920E-01 
  33326.8113     0.31116E-01 
  33359.0734     0.31312E-01 
  33391.3356     0.31509E-01 
  33423.5978     0.31707E-01 
  33455.8599     0.31905E-01 
  33488.1221     0.32104E-01 
  33520.3842     0.32303E-01 
  33552.6464     0.32503E-01 
  33584.9086     0.32704E-01 
  33617.1707     0.32905E-01 
  33649.4329     0.33107E-01 
  33681.6950     0.33310E-01 
  33713.9572     0.33513E-01 
  33746.2194     0.33716E-01 
  33778.4815     0.33921E-01 
  33810.7437     0.34125E-01 
  33843.0058     0.34331E-01 
  33875.2680     0.34537E-01 
  33907.5302     0.34744E-01 
  33939.7923     0.34951E-01 
  33972.0545     0.35159E-01 
  34004.3166     0.35367E-01 
  34036.5788     0.35576E-01 
  34068.8410     0.35785E-01 
  34101.1031     0.35995E-01 
  34133.3653     0.36206E-01 
  34165.6274     0.36417E-01 
  34197.8896     0.36629E-01 
  34230.1518     0.36841E-01 
  34262.4139     0.37054E-01 
  34294.6761     0.37267E-01 
  34326.9382     0.37481E-01 
  34359.2004     0.37696E-01 
  34391.4626     0.37910E-01 
  34423.7247     0.38126E-01 
  34455.9869     0.38342E-01 
  34488.2490     0.38558E-01 
  34520.5112     0.38775E-01 
  34552.7734     0.38993E-01 
  34585.0355     0.39211E-01 
  34617.2977     0.39429E-01 
  34649.5598     0.39648E-01 
  34681.8220     0.39868E-01 
  34714.0842     0.40087E-01 
  34746.3463     0.40308E-01 
  34778.6085     0.40529E-01 
  34810.8706     0.40750E-01 
  34843.1328     0.40972E-01 
  34875.3950     0.41194E-01 
  34907.6571     0.41417E-01 
  34939.9193     0.41640E-01 
  34972.1814     0.41864E-01 
  35004.4436     0.42088E-01 
  35036.7058     0.42312E-01 
  35068.9679     0.42537E-01 
  35101.2301     0.42762E-01 
  35133.4922     0.42988E-01 
  35165.7544     0.43214E-01 
  35198.0166     0.43441E-01 
  35230.2787     0.43668E-01 
  35262.5409     0.43895E-01 
  35294.8030     0.44123E-01 
  35327.0652     0.44351E-01 
  35359.3274     0.44580E-01 
  35391.5895     0.44809E-01 
  35423.8517     0.45038E-01 
  35456.1138     0.45268E-01 
  35488.3760     0.45498E-01 
  35520.6382     0.45728E-01 
  35552.9003     0.45959E-01 
  35585.1625     0.46190E-01 
  35617.4246     0.46422E-01 
  35649.6868     0.46653E-01 
  35681.9490     0.46886E-01 
  35714.2111     0.47118E-01 
  35746.4733     0.47351E-01 
  35778.7354     0.47584E-01 
  35810.9976     0.47817E-01 
  35843.2598     0.48051E-01 
  35875.5219     0.48285E-01 
  35907.7841     0.48519E-01 
  35940.0462     0.48754E-01 
  35972.3084     0.48989E-01 
  36004.5706     0.49224E-01 
  36036.8327     0.49459E-01 
  36069.0949     0.49695E-01 
  36101.3570     0.49931E-01 
  36133.6192     0.50167E-01 
  36165.8814     0.50403E-01 
  36198.1435     0.50640E-01 
  36230.4057     0.50877E-01 
  36262.6678     0.51114E-01 
  36294.9300     0.51351E-01 
  36327.1922     0.51589E-01 
  36359.4543     0.51827E-01 
  36391.7165     0.52065E-01 
  36423.9786     0.52303E-01 
  36456.2408     0.52541E-01 
  36488.5030     0.52780E-01 
  36520.7651     0.53018E-01 
  36553.0273     0.53257E-01 
  36585.2894     0.53496E-01 
  36617.5516     0.53735E-01 
  36649.8138     0.53975E-01 
  36682.0759     0.54214E-01 
  36714.3381     0.54454E-01 
  36746.6002     0.54694E-01 
  36778.8624     0.54934E-01 
  36811.1246     0.55174E-01 
  36843.3867     0.55414E-01 
  36875.6489     0.55654E-01 
  36907.9110     0.55894E-01 
  36940.1732     0.56135E-01 
  36972.4354     0.56375E-01 
  37004.6975     0.56616E-01 
  37036.9597     0.56857E-01 
  37069.2218     0.57097E-01 
  37101.4840     0.57338E-01 
  37133.7462     0.57579E-01 
  37166.0083     0.57820E-01 
  37198.2705     0.58061E-01 
  37230.5326     0.58302E-01 
  37262.7948     0.58543E-01 
  37295.0570     0.58784E-01 
  37327.3191     0.59025E-01 
  37359.5813     0.59266E-01 
  37391.8434     0.59507E-01 
  37424.1056     0.59748E-01 
  37456.3678     0.59989E-01 
  37488.6299     0.60230E-01 
  37520.8921     0.60471E-01 
  37553.1542     0.60712E-01 
  37585.4164     0.60953E-01 
  37617.6786     0.61193E-01 
  37649.9407     0.61434E-01 
  37682.2029     0.61675E-01 
  37714.4650     0.61915E-01 
  37746.7272     0.62156E-01 
  37778.9894     0.62396E-01 
  37811.2515     0.62637E-01 
  37843.5137     0.62877E-01 
  37875.7758     0.63117E-01 
  37908.0380     0.63357E-01 
  37940.3002     0.63597E-01 
  37972.5623     0.63837E-01 
  38004.8245     0.64077E-01 
  38037.0866     0.64316E-01 
  38069.3488     0.64556E-01 
  38101.6110     0.64795E-01 
  38133.8731     0.65034E-01 
  38166.1353     0.65273E-01 
  38198.3974     0.65512E-01 
  38230.6596     0.65750E-01 
  38262.9218     0.65988E-01 
  38295.1839     0.66227E-01 
  38327.4461     0.66465E-01 
  38359.7082     0.66702E-01 
  38391.9704     0.66940E-01 
  38424.2326     0.67177E-01 
  38456.4947     0.67414E-01 
  38488.7569     0.67651E-01 
  38521.0190     0.67887E-01 
  38553.2812     0.68124E-01 
  38585.5434     0.68360E-01 
  38617.8055     0.68595E-01 
  38650.0677     0.68831E-01 
  38682.3298     0.69066E-01 
  38714.5920     0.69301E-01 
  38746.8542     0.69535E-01 
  38779.1163     0.69770E-01 
  38811.3785     0.70004E-01 
  38843.6406     0.70237E-01 
  38875.9028     0.70470E-01 
  38908.1650     0.70703E-01 
  38940.4271     0.70936E-01 
  38972.6893     0.71168E-01 
  39004.9514     0.71400E-01 
  39037.2136     0.71632E-01 
  39069.4758     0.71863E-01 
  39101.7379     0.72094E-01 
  39134.0001     0.72324E-01 
  39166.2622     0.72554E-01 
  39198.5244     0.72784E-01 
  39230.7866     0.73013E-01 
  39263.0487     0.73241E-01 
  39295.3109     0.73470E-01 
  39327.5730     0.73698E-01 
  39359.8352     0.73925E-01 
  39392.0974     0.74152E-01 
  39424.3595     0.74379E-01 
  39456.6217     0.74605E-01 
  39488.8838     0.74830E-01 
  39521.1460     0.75055E-01 
  39553.4082     0.75280E-01 
  39585.6703     0.75504E-01 
  39617.9325     0.75728E-01 
  39650.1946     0.75951E-01 
  39682.4568     0.76174E-01 
  39714.7190     0.76396E-01 
  39746.9811     0.76617E-01 
  39779.2433     0.76838E-01 
  39811.5054     0.77059E-01 
  39843.7676     0.77279E-01 
  39876.0298     0.77498E-01 
  39908.2919     0.77717E-01 
  39940.5541     0.77935E-01 
  39972.8162     0.78153E-01 
  40005.0784     0.78370E-01 
  40037.3406     0.78586E-01 
  40069.6027     0.78802E-01 
  40101.8649     0.79018E-01 
  40134.1270     0.79232E-01 
  40166.3892     0.79446E-01 
  40198.6514     0.79660E-01 
  40230.9135     0.79873E-01 
  40263.1757     0.80085E-01 
  40295.4378     0.80296E-01 
  40327.7000     0.80507E-01 
  40359.9622     0.80717E-01 
  40392.2243     0.80927E-01 
  40424.4865     0.81136E-01 
  40456.7486     0.81344E-01 
  40489.0108     0.81551E-01 
  40521.2730     0.81758E-01 
  40553.5351     0.81964E-01 
  40585.7973     0.82169E-01 
  40618.0594     0.82374E-01 
  40650.3216     0.82578E-01 
  40682.5838     0.82781E-01 
  40714.8459     0.82984E-01 
  40747.1081     0.83185E-01 
  40779.3702     0.83386E-01 
  40811.6324     0.83586E-01 
  40843.8946     0.83786E-01 
  40876.1567     0.83984E-01 
  40908.4189     0.84182E-01 
  40940.6810     0.84379E-01 
  40972.9432     0.84576E-01 
  41005.2054     0.84771E-01 
  41037.4675     0.84966E-01 
  41069.7297     0.85160E-01 
  41101.9918     0.85353E-01 
  41134.2540     0.85545E-01 
  41166.5162     0.85736E-01 
  41198.7783     0.85927E-01 
  41231.0405     0.86117E-01 
  41263.3026     0.86306E-01 
  41295.5648     0.86494E-01 
  41327.8270     0.86681E-01 
  41360.0891     0.86867E-01 
  41392.3513     0.87052E-01 
  41424.6134     0.87237E-01 
  41456.8756     0.87421E-01 
  41489.1378     0.87603E-01 
  41521.3999     0.87785E-01 
  41553.6621     0.87966E-01 
  41585.9242     0.88146E-01 
  41618.1864     0.88325E-01 
  41650.4486     0.88503E-01 
  41682.7107     0.88681E-01 
  41714.9729     0.88857E-01 
  41747.2350     0.89032E-01 
  41779.4972     0.89207E-01 
  41811.7594     0.89380E-01 
  41844.0215     0.89553E-01 
  41876.2837     0.89724E-01 
  41908.5458     0.89895E-01 
  41940.8080     0.90065E-01 
  41973.0702     0.90233E-01 
  42005.3323     0.90401E-01 
  42037.5945     0.90567E-01 
  42069.8566     0.90733E-01 
  42102.1188     0.90898E-01 
  42134.3810     0.91061E-01 
  42166.6431     0.91224E-01 
  42198.9053     0.91385E-01 
  42231.1674     0.91546E-01 
  42263.4296     0.91706E-01 
  42295.6918     0.91864E-01 
  42327.9539     0.92021E-01 
  42360.2161     0.92178E-01 
  42392.4782     0.92333E-01 
  42424.7404     0.92487E-01 
  42457.0026     0.92641E-01 
  42489.2647     0.92793E-01 
  42521.5269     0.92944E-01 
  42553.7890     0.93094E-01 
  42586.0512     0.93243E-01 
  42618.3134     0.93391E-01 
  42650.5755     0.93537E-01 
  42682.8377     0.93683E-01 
  42715.0998     0.93827E-01 
  42747.3620     0.93971E-01 
  42779.6242     0.94113E-01 
  42811.8863     0.94254E-01 
  42844.1485     0.94394E-01 
  42876.4106     0.94533E-01 
  42908.6728     0.94671E-01 
  42940.9350     0.94808E-01 
  42973.1971     0.94943E-01 
  43005.4593     0.95077E-01 
  43037.7214     0.95211E-01 
  43069.9836     0.95343E-01 
  43102.2458     0.95474E-01 
  43134.5079     0.95603E-01 
  43166.7701     0.95732E-01 
  43199.0322     0.95859E-01 
  43231.2944     0.95986E-01 
  43263.5566     0.96111E-01 
  43295.8187     0.96234E-01 
  43328.0809     0.96357E-01 
  43360.3430     0.96478E-01 
  43392.6052     0.96599E-01 
  43424.8674     0.96718E-01 
  43457.1295     0.96836E-01 
  43489.3917     0.96952E-01 
  43521.6538     0.97068E-01 
  43553.9160     0.97182E-01 
  43586.1782     0.97295E-01 
  43618.4403     0.97407E-01 
  43650.7025     0.97517E-01 
  43682.9646     0.97627E-01 
  43715.2268     0.97735E-01 
  43747.4890     0.97841E-01 
  43779.7511     0.97947E-01 
  43812.0133     0.98051E-01 
  43844.2754     0.98154E-01 
  43876.5376     0.98256E-01 
  43908.7998     0.98357E-01 
  43941.0619     0.98456E-01 
  43973.3241     0.98554E-01 
  44005.5862     0.98651E-01 
  44037.8484     0.98747E-01 
  44070.1106     0.98841E-01 
  44102.3727     0.98934E-01 
  44134.6349     0.99025E-01 
  44166.8970     0.99116E-01 
  44199.1592     0.99205E-01 
  44231.4214     0.99293E-01 
  44263.6835     0.99379E-01 
  44295.9457     0.99465E-01 
  44328.2078     0.99549E-01 
  44360.4700     0.99631E-01 
  44392.7322     0.99713E-01 
  44424.9943     0.99793E-01 
  44457.2565     0.99872E-01 
  44489.5186     0.99949E-01 
  44521.7808     0.10003E+00 
  44554.0430     0.10010E+00 
  44586.3051     0.10017E+00 
  44618.5673     0.10025E+00 
  44650.8294     0.10032E+00 
  44683.0916     0.10039E+00 
  44715.3538     0.10045E+00 
  44747.6159     0.10052E+00 
  44779.8781     0.10059E+00 
  44812.1402     0.10065E+00 
  44844.4024     0.10071E+00 
  44876.6646     0.10078E+00 
  44908.9267     0.10084E+00 
  44941.1889     0.10089E+00 
  44973.4510     0.10095E+00 
  45005.7132     0.10101E+00 
  45037.9754     0.10106E+00 
  45070.2375     0.10112E+00 
  45102.4997     0.10117E+00 
  45134.7618     0.10122E+00 
  45167.0240     0.10127E+00 
  45199.2862     0.10132E+00 
  45231.5483     0.10136E+00 
  45263.8105     0.10141E+00 
  45296.0726     0.10145E+00 
  45328.3348     0.10150E+00 
  45360.5970     0.10154E+00 
  45392.8591     0.10158E+00 
  45425.1213     0.10162E+00 
  45457.3834     0.10165E+00 
  45489.6456     0.10169E+00 
  45521.9078     0.10172E+00 
  45554.1699     0.10176E+00 
  45586.4321     0.10179E+00 
  45618.6942     0.10182E+00 
  45650.9564     0.10185E+00 
  45683.2186     0.10188E+00 
  45715.4807     0.10190E+00 
  45747.7429     0.10193E+00 
  45780.0050     0.10195E+00 
  45812.2672     0.10197E+00 
  45844.5294     0.10199E+00 
  45876.7915     0.10201E+00 
  45909.0537     0.10203E+00 
  45941.3158     0.10205E+00 
  45973.5780     0.10206E+00 
  46005.8402     0.10208E+00 
  46038.1023     0.10209E+00 
  46070.3645     0.10210E+00 
  46102.6266     0.10211E+00 
  46134.8888     0.10212E+00 
  46167.1510     0.10213E+00 
  46199.4131     0.10213E+00 
  46231.6753     0.10214E+00 
  46263.9374     0.10214E+00 
  46296.1996     0.10214E+00 
  46328.4618     0.10214E+00 
  46360.7239     0.10214E+00 
  46392.9861     0.10214E+00 
  46425.2482     0.10214E+00 
  46457.5104     0.10213E+00 
  46489.7726     0.10213E+00 
  46522.0347     0.10212E+00 
  46554.2969     0.10211E+00 
  46586.5590     0.10210E+00 
  46618.8212     0.10209E+00 
  46651.0834     0.10207E+00 
  46683.3455     0.10206E+00 
  46715.6077     0.10204E+00 
  46747.8698     0.10202E+00 
  46780.1320     0.10201E+00 
  46812.3942     0.10199E+00 
  46844.6563     0.10196E+00 
  46876.9185     0.10194E+00 
  46909.1806     0.10192E+00 
  46941.4428     0.10189E+00 
  46973.7050     0.10186E+00 
  47005.9671     0.10184E+00 
  47038.2293     0.10181E+00 
  47070.4914     0.10177E+00 
  47102.7536     0.10174E+00 
  47135.0158     0.10171E+00 
  47167.2779     0.10167E+00 
  47199.5401     0.10164E+00 
  47231.8022     0.10160E+00 
  47264.0644     0.10156E+00 
  47296.3266     0.10152E+00 
  47328.5887     0.10148E+00 
  47360.8509     0.10144E+00 
  47393.1130     0.10139E+00 
  47425.3752     0.10135E+00 
  47457.6374     0.10130E+00 
  47489.8995     0.10125E+00 
  47522.1617     0.10120E+00 
  47554.4238     0.10115E+00 
  47586.6860     0.10110E+00 
  47618.9482     0.10104E+00 
  47651.2103     0.10099E+00 
  47683.4725     0.10093E+00 
  47715.7346     0.10087E+00 
  47747.9968     0.10081E+00 
  47780.2590     0.10075E+00 
  47812.5211     0.10069E+00 
  47844.7833     0.10063E+00 
  47877.0454     0.10057E+00 
  47909.3076     0.10050E+00 
  47941.5698     0.10043E+00 
  47973.8319     0.10036E+00 
  48006.0941     0.10030E+00 
  48038.3562     0.10022E+00 
  48070.6184     0.10015E+00 
  48102.8806     0.10008E+00 
  48135.1427     0.10001E+00 
  48167.4049     0.99929E-01 
  48199.6670     0.99852E-01 
  48231.9292     0.99774E-01 
  48264.1914     0.99694E-01 
  48296.4535     0.99613E-01 
  48328.7157     0.99531E-01 
  48360.9778     0.99447E-01 
  48393.2400     0.99363E-01 
  48425.5022     0.99277E-01 
  48457.7643     0.99189E-01 
  48490.0265     0.99101E-01 
  48522.2886     0.99011E-01 
  48554.5508     0.98920E-01 
  48586.8130     0.98828E-01 
  48619.0751     0.98735E-01 
  48651.3373     0.98640E-01 
  48683.5994     0.98544E-01 
  48715.8616     0.98447E-01 
  48748.1238     0.98348E-01 
  48780.3859     0.98249E-01 
  48812.6481     0.98148E-01 
  48844.9102     0.98046E-01 
  48877.1724     0.97943E-01 
  48909.4346     0.97838E-01 
  48941.6967     0.97733E-01 
  48973.9589     0.97626E-01 
  49006.2210     0.97518E-01 
  49038.4832     0.97409E-01 
  49070.7454     0.97298E-01 
  49103.0075     0.97187E-01 
  49135.2697     0.97074E-01 
  49167.5318     0.96960E-01 
  49199.7940     0.96845E-01 
  49232.0562     0.96729E-01 
  49264.3183     0.96611E-01 
  49296.5805     0.96493E-01 
  49328.8426     0.96373E-01 
  49361.1048     0.96252E-01 
  49393.3670     0.96130E-01 
  49425.6291     0.96007E-01 
  49457.8913     0.95883E-01 
  49490.1534     0.95757E-01 
  49522.4156     0.95631E-01 
  49554.6778     0.95503E-01 
  49586.9399     0.95374E-01 
  49619.2021     0.95245E-01 
  49651.4642     0.95114E-01 
  49683.7264     0.94981E-01 
  49715.9886     0.94848E-01 
  49748.2507     0.94714E-01 
  49780.5129     0.94579E-01 
  49812.7750     0.94442E-01 
  49845.0372     0.94304E-01 
  49877.2994     0.94166E-01 
  49909.5615     0.94026E-01 
  49941.8237     0.93885E-01 
  49974.0858     0.93744E-01 
  50006.3480     0.93601E-01 
  50038.6102     0.93457E-01 
  50070.8723     0.93312E-01 
  50103.1345     0.93166E-01 
  50135.3966     0.93019E-01 
  50167.6588     0.92871E-01 
  50199.9210     0.92722E-01 
  50232.1831     0.92571E-01 
  50264.4453     0.92420E-01 
  50296.7074     0.92268E-01 
  50328.9696     0.92115E-01 
  50361.2318     0.91961E-01 
  50393.4939     0.91806E-01 
  50425.7561     0.91650E-01 
  50458.0182     0.91493E-01 
  50490.2804     0.91334E-01 
  50522.5426     0.91175E-01 
  50554.8047     0.91015E-01 
  50587.0669     0.90854E-01 
  50619.3290     0.90692E-01 
  50651.5912     0.90530E-01 
  50683.8534     0.90366E-01 
  50716.1155     0.90201E-01 
  50748.3777     0.90035E-01 
  50780.6398     0.89869E-01 
  50812.9020     0.89701E-01 
  50845.1642     0.89533E-01 
  50877.4263     0.89363E-01 
  50909.6885     0.89193E-01 
  50941.9506     0.89022E-01 
  50974.2128     0.88850E-01 
  51006.4750     0.88677E-01 
  51038.7371     0.88503E-01 
  51070.9993     0.88328E-01 
  51103.2614     0.88153E-01 
  51135.5236     0.87977E-01 
  51167.7858     0.87799E-01 
  51200.0479     0.87621E-01 
  51232.3101     0.87442E-01 
  51264.5722     0.87262E-01 
  51296.8344     0.87082E-01 
  51329.0966     0.86900E-01 
  51361.3587     0.86718E-01 
  51393.6209     0.86535E-01 
  51425.8830     0.86351E-01 
  51458.1452     0.86167E-01 
  51490.4074     0.85981E-01 
  51522.6695     0.85795E-01 
  51554.9317     0.85608E-01 
  51587.1938     0.85420E-01 
  51619.4560     0.85232E-01 
  51651.7182     0.85042E-01 
  51683.9803     0.84852E-01 
  51716.2425     0.84662E-01 
  51748.5046     0.84470E-01 
  51780.7668     0.84278E-01 
  51813.0290     0.84085E-01 
  51845.2911     0.83891E-01 
  51877.5533     0.83697E-01 
  51909.8154     0.83502E-01 
  51942.0776     0.83306E-01 
  51974.3398     0.83109E-01 
  52006.6019     0.82912E-01 
  52038.8641     0.82714E-01 
  52071.1262     0.82516E-01 
  52103.3884     0.82317E-01 
  52135.6506     0.82117E-01 
  52167.9127     0.81916E-01 
  52200.1749     0.81715E-01 
  52232.4370     0.81514E-01 
  52264.6992     0.81311E-01 
  52296.9614     0.81108E-01 
  52329.2235     0.80905E-01 
  52361.4857     0.80701E-01 
  52393.7478     0.80496E-01 
  52426.0100     0.80290E-01 
  52458.2722     0.80085E-01 
  52490.5343     0.79878E-01 
  52522.7965     0.79671E-01 
  52555.0586     0.79463E-01 
  52587.3208     0.79255E-01 
  52619.5830     0.79046E-01 
  52651.8451     0.78837E-01 
  52684.1073     0.78627E-01 
  52716.3694     0.78417E-01 
  52748.6316     0.78206E-01 
  52780.8938     0.77995E-01 
  52813.1559     0.77783E-01 
  52845.4181     0.77571E-01 
  52877.6802     0.77358E-01 
  52909.9424     0.77145E-01 
  52942.2046     0.76931E-01 
  52974.4667     0.76717E-01 
  53006.7289     0.76503E-01 
  53038.9910     0.76288E-01 
  53071.2532     0.76072E-01 
  53103.5154     0.75856E-01 
  53135.7775     0.75640E-01 
  53168.0397     0.75423E-01 
  53200.3018     0.75206E-01 
  53232.5640     0.74989E-01 
  53264.8262     0.74771E-01 
  53297.0883     0.74553E-01 
  53329.3505     0.74334E-01 
  53361.6126     0.74115E-01 
  53393.8748     0.73896E-01 
  53426.1370     0.73676E-01 
  53458.3991     0.73457E-01 
  53490.6613     0.73236E-01 
  53522.9234     0.73016E-01 
  53555.1856     0.72795E-01 
  53587.4478     0.72574E-01 
  53619.7099     0.72352E-01 
  53651.9721     0.72131E-01 
  53684.2342     0.71909E-01 
  53716.4964     0.71686E-01 
  53748.7586     0.71464E-01 
  53781.0207     0.71241E-01 
  53813.2829     0.71018E-01 
  53845.5450     0.70795E-01 
  53877.8072     0.70572E-01 
  53910.0694     0.70348E-01 
  53942.3315     0.70124E-01 
  53974.5937     0.69901E-01 
  54006.8558     0.69676E-01 
  54039.1180     0.69452E-01 
  54071.3802     0.69228E-01 
  54103.6423     0.69003E-01 
  54135.9045     0.68778E-01 
  54168.1666     0.68554E-01 
  54200.4288     0.68329E-01 
  54232.6910     0.68104E-01 
  54264.9531     0.67878E-01 
  54297.2153     0.67653E-01 
  54329.4774     0.67428E-01 
  54361.7396     0.67203E-01 
  54394.0018     0.66977E-01 
  54426.2639     0.66752E-01 
  54458.5261     0.66526E-01 
  54490.7882     0.66301E-01 
  54523.0504     0.66075E-01 
  54555.3126     0.65850E-01 
  54587.5747     0.65624E-01 
  54619.8369     0.65398E-01 
  54652.0990     0.65173E-01 
  54684.3612     0.64948E-01 
  54716.6234     0.64722E-01 
  54748.8855     0.64497E-01 
  54781.1477     0.64271E-01 
  54813.4098     0.64046E-01 
  54845.6720     0.63821E-01 
  54877.9342     0.63596E-01 
  54910.1963     0.63371E-01 
  54942.4585     0.63146E-01 
  54974.7206     0.62922E-01 
  55006.9828     0.62697E-01 
  55039.2450     0.62473E-01 
  55071.5071     0.62249E-01 
  55103.7693     0.62025E-01 
  55136.0314     0.61801E-01 
  55168.2936     0.61577E-01 
  55200.5558     0.61354E-01 
  55232.8179     0.61131E-01 
  55265.0801     0.60908E-01 
  55297.3422     0.60685E-01 
  55329.6044     0.60463E-01 
  55361.8666     0.60241E-01 
  55394.1287     0.60019E-01 
  55426.3909     0.59797E-01 
  55458.6530     0.59576E-01 
  55490.9152     0.59355E-01 
  55523.1774     0.59134E-01 
  55555.4395     0.58914E-01 
  55587.7017     0.58694E-01 
  55619.9638     0.58475E-01 
  55652.2260     0.58255E-01 
  55684.4882     0.58037E-01 
  55716.7503     0.57818E-01 
  55749.0125     0.57600E-01 
  55781.2746     0.57383E-01 
  55813.5368     0.57166E-01 
  55845.7990     0.56949E-01 
  55878.0611     0.56733E-01 
  55910.3233     0.56517E-01 
  55942.5854     0.56302E-01 
  55974.8476     0.56087E-01 
  56007.1098     0.55873E-01 
  56039.3719     0.55659E-01 
  56071.6341     0.55446E-01 
  56103.8962     0.55234E-01 
  56136.1584     0.55022E-01 
  56168.4206     0.54810E-01 
  56200.6827     0.54599E-01 
  56232.9449     0.54389E-01 
  56265.2070     0.54180E-01 
  56297.4692     0.53971E-01 
  56329.7314     0.53762E-01 
  56361.9935     0.53555E-01 
  56394.2557     0.53348E-01 
  56426.5178     0.53142E-01 
  56458.7800     0.52936E-01 
  56491.0422     0.52731E-01 
  56523.3043     0.52527E-01 
  56555.5665     0.52324E-01 
  56587.8286     0.52122E-01 
  56620.0908     0.51920E-01 
  56652.3530     0.51719E-01 
  56684.6151     0.51519E-01 
  56716.8773     0.51319E-01 
  56749.1394     0.51121E-01 
  56781.4016     0.50923E-01 
  56813.6638     0.50727E-01 
  56845.9259     0.50531E-01 
  56878.1881     0.50336E-01 
  56910.4502     0.50142E-01 
  56942.7124     0.49949E-01 
  56974.9746     0.49756E-01 
  57007.2367     0.49565E-01 
  57039.4989     0.49375E-01 
  57071.7610     0.49186E-01 
  57104.0232     0.48998E-01 
  57136.2854     0.48810E-01 
  57168.5475     0.48624E-01 
  57200.8097     0.48439E-01 
  57233.0718     0.48255E-01 
  57265.3340     0.48072E-01 
  57297.5962     0.47890E-01 
  57329.8583     0.47710E-01 
  57362.1205     0.47530E-01 
  57394.3826     0.47352E-01 
  57426.6448     0.47175E-01 
  57458.9070     0.46999E-01 
  57491.1691     0.46824E-01 
  57523.4313     0.46650E-01 
  57555.6934     0.46478E-01 
  57587.9556     0.46307E-01 
  57620.2178     0.46137E-01 
  57652.4799     0.45968E-01 
  57684.7421     0.45801E-01 
  57717.0042     0.45635E-01 
  57749.2664     0.45471E-01 
  57781.5286     0.45307E-01 
  57813.7907     0.45146E-01 
  57846.0529     0.44985E-01 
  57878.3150     0.44826E-01 
  57910.5772     0.44669E-01 
  57942.8394     0.44513E-01 
  57975.1015     0.44358E-01 
  58007.3637     0.44205E-01 
  58039.6258     0.44053E-01 
  58071.8880     0.43903E-01 
  58104.1502     0.43755E-01 
  58136.4123     0.43608E-01 
  58168.6745     0.43463E-01 
  58200.9366     0.43319E-01 
  58233.1988     0.43177E-01 
  58265.4610     0.43036E-01 
  58297.7231     0.42897E-01 
  58329.9853     0.42760E-01 
  58362.2474     0.42625E-01 
  58394.5096     0.42491E-01 
  58426.7718     0.42359E-01 
  58459.0339     0.42229E-01 
  58491.2961     0.42101E-01 
  58523.5582     0.41974E-01 
  58555.8204     0.41849E-01 
  58588.0826     0.41726E-01 
  58620.3447     0.41605E-01 
  58652.6069     0.41486E-01 
  58684.8690     0.41369E-01 
  58717.1312     0.41253E-01 
  58749.3934     0.41140E-01 
  58781.6555     0.41029E-01 
  58813.9177     0.40919E-01 
  58846.1798     0.40812E-01 
  58878.4420     0.40706E-01 
  58910.7042     0.40603E-01 
  58942.9663     0.40502E-01 
  58975.2285     0.40403E-01 
  59007.4906     0.40306E-01 
  59039.7528     0.40211E-01 
  59072.0150     0.40118E-01 
  59104.2771     0.40028E-01 
  59136.5393     0.39940E-01 
  59168.8014     0.39854E-01 
  59201.0636     0.39770E-01 
  59233.3258     0.39688E-01 
  59265.5879     0.39609E-01 
  59297.8501     0.39532E-01 
  59330.1122     0.39458E-01 
  59362.3744     0.39386E-01 
  59394.6366     0.39316E-01 
  59426.8987     0.39248E-01 
  59459.1609     0.39184E-01 
  59491.4230     0.39121E-01 
  59523.6852     0.39061E-01 
  59555.9474     0.39004E-01 
  59588.2095     0.38949E-01 
  59620.4717     0.38897E-01 
  59652.7338     0.38847E-01 
  59684.9960     0.38800E-01 
  59717.2582     0.38756E-01 
  59749.5203     0.38714E-01 
  59781.7825     0.38675E-01 
  59814.0446     0.38638E-01 
  59846.3068     0.38605E-01 
  59878.5690     0.38574E-01 
  59910.8311     0.38546E-01 
  59943.0933     0.38521E-01 
  59975.3554     0.38498E-01 
  60007.6176     0.38479E-01 
  60039.8798     0.38462E-01 
  60072.1419     0.38448E-01 
  60104.4041     0.38437E-01 
  60136.6662     0.38430E-01 
  60168.9284     0.38425E-01 
  60201.1906     0.38423E-01 
  60233.4527     0.38424E-01 
  60265.7149     0.38429E-01 
  60297.9770     0.38436E-01 
  60330.2392     0.38447E-01 
  60362.5014     0.38460E-01 
  60394.7635     0.38477E-01 
  60427.0257     0.38497E-01 
  60459.2878     0.38521E-01 
  60491.5500     0.38547E-01 
  60523.8122     0.38577E-01 
  60556.0743     0.38610E-01 
  60588.3365     0.38647E-01 
  60620.5986     0.38687E-01 
  60652.8608     0.38730E-01 
  60685.1230     0.38777E-01 
  60717.3851     0.38827E-01 
  60749.6473     0.38881E-01 
  60781.9094     0.38938E-01 
  60814.1716     0.38999E-01 
  60846.4338     0.39064E-01 
  60878.6959     0.39132E-01 
  60910.9581     0.39203E-01 
  60943.2202     0.39279E-01 
  60975.4824     0.39358E-01 
  61007.7446     0.39440E-01 
  61040.0067     0.39527E-01 
  61072.2689     0.39617E-01 
  61104.5310     0.39711E-01 
  61136.7932     0.39809E-01 
  61169.0554     0.39911E-01 
  61201.3175     0.40017E-01 
  61233.5797     0.40126E-01 
  61265.8418     0.40240E-01 
  61298.1040     0.40358E-01 
  61330.3662     0.40479E-01 
  61362.6283     0.40605E-01 
  61394.8905     0.40735E-01 
  61427.1526     0.40868E-01 
  61459.4148     0.41006E-01 
  61491.6770     0.41149E-01 
  61523.9391     0.41295E-01 
  61556.2013     0.41446E-01 
  61588.4634     0.41601E-01 
  61620.7256     0.41760E-01 
  61652.9878     0.41923E-01 
  61685.2499     0.42091E-01 
  61717.5121     0.42263E-01 
  61749.7742     0.42440E-01 
  61782.0364     0.42621E-01 
  61814.2986     0.42807E-01 
  61846.5607     0.42997E-01 
  61878.8229     0.43192E-01 
  61911.0850     0.43391E-01 
  61943.3472     0.43595E-01 
  61975.6094     0.43804E-01 
  62007.8715     0.44017E-01 
  62040.1337     0.44235E-01 
  62072.3958     0.44458E-01 
  62104.6580     0.44686E-01 
  62136.9202     0.44918E-01 
  62169.1823     0.45155E-01 
  62201.4445     0.45397E-01 
  62233.7066     0.45644E-01 
  62265.9688     0.45896E-01 
  62298.2310     0.46153E-01 
  62330.4931     0.46415E-01 
  62362.7553     0.46682E-01 
  62395.0174     0.46954E-01 
  62427.2796     0.47231E-01 
  62459.5418     0.47514E-01 
  62491.8039     0.47801E-01 
  62524.0661     0.48094E-01 
  62556.3282     0.48392E-01 
  62588.5904     0.48695E-01 
  62620.8526     0.49004E-01 
  62653.1147     0.49318E-01 
  62685.3769     0.49637E-01 
  62717.6390     0.49962E-01 
  62749.9012     0.50292E-01 
  62782.1634     0.50628E-01 
  62814.4255     0.50969E-01 
  62846.6877     0.51316E-01 
  62878.9498     0.51668E-01 
  62911.2120     0.52026E-01 
  62943.4742     0.52390E-01 
  62975.7363     0.52759E-01 
  63007.9985     0.53134E-01 
  63040.2606     0.53515E-01 
  63072.5228     0.53901E-01 
  63104.7850     0.54294E-01 
  63137.0471     0.54692E-01 
  63169.3093     0.55096E-01 
  63201.5714     0.55507E-01 
  63233.8336     0.55923E-01 
  63266.0958     0.56345E-01 
  63298.3579     0.56773E-01 
  63330.6201     0.57207E-01 
  63362.8822     0.57648E-01 
  63395.1444     0.58094E-01 
  63427.4066     0.58547E-01 
  63459.6687     0.59006E-01 
  63491.9309     0.59471E-01 
  63524.1930     0.59943E-01 
  63556.4552     0.60420E-01 
  63588.7174     0.60904E-01 
  63620.9795     0.61395E-01 
  63653.2417     0.61892E-01 
  63685.5038     0.62395E-01 
  63717.7660     0.62905E-01 
  63750.0282     0.63422E-01 
  63782.2903     0.63945E-01 
  63814.5525     0.64474E-01 
  63846.8146     0.65011E-01 
  63879.0768     0.65554E-01 
  63911.3390     0.66103E-01 
  63943.6011     0.66660E-01 
  63975.8633     0.67223E-01 
  64008.1254     0.67793E-01 
  64040.3876     0.68370E-01 
  64072.6498     0.68953E-01 
  64104.9119     0.69544E-01 
  64137.1741     0.70141E-01 
  64169.4362     0.70746E-01 
  64201.6984     0.71358E-01 
  64233.9606     0.71976E-01 
  64266.2227     0.72602E-01 
  64298.4849     0.73235E-01 
  64330.7470     0.73875E-01 
  64363.0092     0.74522E-01 
  64395.2714     0.75177E-01 
  64427.5335     0.75839E-01 
  64459.7957     0.76508E-01 
  64492.0578     0.77184E-01 
  64524.3200     0.77868E-01 
  64556.5822     0.78559E-01 
  64588.8443     0.79258E-01 
  64621.1065     0.79964E-01 
  64653.3686     0.80677E-01 
  64685.6308     0.81399E-01 
  64717.8930     0.82127E-01 
  64750.1551     0.82864E-01 
  64782.4173     0.83608E-01 
  64814.6794     0.84359E-01 
  64846.9416     0.85119E-01 
  64879.2038     0.85886E-01 
  64911.4659     0.86661E-01 
  64943.7281     0.87444E-01 
  64975.9902     0.88234E-01 
  65008.2524     0.89033E-01 
  65040.5146     0.89839E-01 
  65072.7767     0.90654E-01 
  65105.0389     0.91476E-01 
  65137.3010     0.92306E-01 
  65169.5632     0.93145E-01 
  65201.8254     0.93991E-01 
  65234.0875     0.94846E-01 
  65266.3497     0.95709E-01 
  65298.6118     0.96580E-01 
  65330.8740     0.97459E-01 
  65363.1362     0.98346E-01 
  65395.3983     0.99242E-01 
  65427.6605     0.10015E+00 
  65459.9226     0.10106E+00 
  65492.1848     0.10198E+00 
  65524.4470     0.10291E+00 
  65556.7091     0.10385E+00 
  65588.9713     0.10479E+00 
  65621.2334     0.10575E+00 
  65653.4956     0.10671E+00 
  65685.7578     0.10768E+00 
  65718.0199     0.10866E+00 
  65750.2821     0.10965E+00 
  65782.5442     0.11065E+00 
  65814.8064     0.11165E+00 
  65847.0686     0.11267E+00 
  65879.3307     0.11369E+00 
  65911.5929     0.11473E+00 
  65943.8550     0.11577E+00 
  65976.1172     0.11682E+00 
  66008.3794     0.11788E+00 
  66040.6415     0.11894E+00 
  66072.9037     0.12002E+00 
  66105.1658     0.12111E+00 
  66137.4280     0.12220E+00 
  66169.6902     0.12331E+00 
  66201.9523     0.12442E+00 
  66234.2145     0.12554E+00 
  66266.4766     0.12667E+00 
  66298.7388     0.12781E+00 
  66331.0010     0.12896E+00 
  66363.2631     0.13012E+00 
  66395.5253     0.13129E+00 
  66427.7874     0.13246E+00 
  66460.0496     0.13365E+00 
  66492.3118     0.13485E+00 
  66524.5739     0.13605E+00 
  66556.8361     0.13727E+00 
  66589.0982     0.13849E+00 
  66621.3604     0.13972E+00 
  66653.6226     0.14096E+00 
  66685.8847     0.14222E+00 
  66718.1469     0.14348E+00 
  66750.4090     0.14475E+00 
  66782.6712     0.14603E+00 
  66814.9334     0.14732E+00 
  66847.1955     0.14862E+00 
  66879.4577     0.14993E+00 
  66911.7198     0.15125E+00 
  66943.9820     0.15257E+00 
  66976.2442     0.15391E+00 
  67008.5063     0.15526E+00 
  67040.7685     0.15662E+00 
  67073.0306     0.15798E+00 
  67105.2928     0.15936E+00 
  67137.5550     0.16075E+00 
  67169.8171     0.16214E+00 
  67202.0793     0.16355E+00 
  67234.3414     0.16497E+00 
  67266.6036     0.16639E+00 
  67298.8658     0.16783E+00 
  67331.1279     0.16927E+00 
  67363.3901     0.17073E+00 
  67395.6522     0.17219E+00 
  67427.9144     0.17367E+00 
  67460.1766     0.17516E+00 
  67492.4387     0.17665E+00 
  67524.7009     0.17816E+00 
  67556.9630     0.17967E+00 
  67589.2252     0.18120E+00 
  67621.4874     0.18273E+00 
  67653.7495     0.18428E+00 
  67686.0117     0.18583E+00 
  67718.2738     0.18740E+00 
  67750.5360     0.18898E+00 
  67782.7982     0.19056E+00 
  67815.0603     0.19216E+00 
  67847.3225     0.19377E+00 
  67879.5846     0.19538E+00 
  67911.8468     0.19701E+00 
  67944.1090     0.19865E+00 
  67976.3711     0.20029E+00 
  68008.6333     0.20195E+00 
  68040.8954     0.20362E+00 
  68073.1576     0.20530E+00 
  68105.4198     0.20698E+00 
  68137.6819     0.20868E+00 
  68169.9441     0.21039E+00 
  68202.2062     0.21211E+00 
  68234.4684     0.21384E+00 
  68266.7306     0.21558E+00 
  68298.9927     0.21733E+00 
  68331.2549     0.21909E+00 
  68363.5170     0.22086E+00 
  68395.7792     0.22264E+00 
  68428.0414     0.22443E+00 
  68460.3035     0.22624E+00 
  68492.5657     0.22805E+00 
  68524.8278     0.22987E+00 
  68557.0900     0.23170E+00 
  68589.3522     0.23355E+00 
  68621.6143     0.23540E+00 
  68653.8765     0.23727E+00 
  68686.1386     0.23914E+00 
  68718.4008     0.24103E+00 
  68750.6630     0.24292E+00 
  68782.9251     0.24483E+00 
  68815.1873     0.24675E+00 
  68847.4494     0.24867E+00 
  68879.7116     0.25061E+00 
  68911.9738     0.25256E+00 
  68944.2359     0.25452E+00 
  68976.4981     0.25648E+00 
  69008.7602     0.25846E+00 
  69041.0224     0.26045E+00 
  69073.2846     0.26245E+00 
  69105.5467     0.26446E+00 
  69137.8089     0.26648E+00 
  69170.0710     0.26852E+00 
  69202.3332     0.27056E+00 
  69234.5954     0.27261E+00 
  69266.8575     0.27467E+00 
  69299.1197     0.27675E+00 
  69331.3818     0.27883E+00 
  69363.6440     0.28092E+00 
  69395.9062     0.28303E+00 
  69428.1683     0.28514E+00 
  69460.4305     0.28727E+00 
  69492.6926     0.28940E+00 
  69524.9548     0.29155E+00 
  69557.2170     0.29371E+00 
  69589.4791     0.29587E+00 
  69621.7413     0.29805E+00 
  69654.0034     0.30024E+00 
  69686.2656     0.30243E+00 
  69718.5278     0.30464E+00 
  69750.7899     0.30686E+00 
  69783.0521     0.30909E+00 
  69815.3142     0.31133E+00 
  69847.5764     0.31358E+00 
  69879.8386     0.31584E+00 
  69912.1007     0.31811E+00 
  69944.3629     0.32039E+00 
  69976.6250     0.32268E+00 
  70008.8872     0.32498E+00 
  70041.1494     0.32729E+00 
  70073.4115     0.32961E+00 
  70105.6737     0.33194E+00 
  70137.9358     0.33428E+00 
  70170.1980     0.33663E+00 
  70202.4602     0.33900E+00 
  70234.7223     0.34137E+00 
  70266.9845     0.34375E+00 
  70299.2466     0.34614E+00 
  70331.5088     0.34854E+00 
  70363.7710     0.35096E+00 
  70396.0331     0.35338E+00 
  70428.2953     0.35581E+00 
  70460.5574     0.35825E+00 
  70492.8196     0.36070E+00 
  70525.0818     0.36316E+00 
  70557.3439     0.36564E+00 
  70589.6061     0.36812E+00 
  70621.8682     0.37061E+00 
  70654.1304     0.37311E+00 
  70686.3926     0.37562E+00 
  70718.6547     0.37814E+00 
  70750.9169     0.38067E+00 
  70783.1790     0.38321E+00 
  70815.4412     0.38576E+00 
  70847.7034     0.38832E+00 
  70879.9655     0.39089E+00 
  70912.2277     0.39347E+00 
  70944.4898     0.39606E+00 
  70976.7520     0.39866E+00 
  71009.0142     0.40127E+00 
  71041.2763     0.40388E+00 
  71073.5385     0.40651E+00 
  71105.8006     0.40915E+00 
  71138.0628     0.41179E+00 
  71170.3250     0.41445E+00 
  71202.5871     0.41711E+00 
  71234.8493     0.41978E+00 
  71267.1114     0.42247E+00 
  71299.3736     0.42516E+00 
  71331.6358     0.42786E+00 
  71363.8979     0.43057E+00 
  71396.1601     0.43329E+00 
  71428.4222     0.43602E+00 
  71460.6844     0.43875E+00 
  71492.9466     0.44150E+00 
  71525.2087     0.44426E+00 
  71557.4709     0.44702E+00 
  71589.7330     0.44979E+00 
  71621.9952     0.45257E+00 
  71654.2574     0.45537E+00 
  71686.5195     0.45816E+00 
  71718.7817     0.46097E+00 
  71751.0438     0.46379E+00 
  71783.3060     0.46662E+00 
  71815.5682     0.46945E+00 
  71847.8303     0.47229E+00 
  71880.0925     0.47514E+00 
  71912.3546     0.47800E+00 
  71944.6168     0.48087E+00 
  71976.8790     0.48375E+00 
  72009.1411     0.48663E+00 
  72041.4033     0.48953E+00 
  72073.6654     0.49243E+00 
  72105.9276     0.49534E+00 
  72138.1898     0.49825E+00 
  72170.4519     0.50118E+00 
  72202.7141     0.50411E+00 
  72234.9762     0.50705E+00 
  72267.2384     0.51000E+00 
  72299.5006     0.51296E+00 
  72331.7627     0.51593E+00 
  72364.0249     0.51890E+00 
  72396.2870     0.52188E+00 
  72428.5492     0.52487E+00 
  72460.8114     0.52786E+00 
  72493.0735     0.53087E+00 
  72525.3357     0.53388E+00 
  72557.5978     0.53689E+00 
  72589.8600     0.53992E+00 
