  32262.1600     0.76623E+01 
  32294.4222     0.77297E+01 
  32326.6843     0.77975E+01 
  32358.9465     0.78656E+01 
  32391.2086     0.79341E+01 
  32423.4708     0.80030E+01 
  32455.7330     0.80722E+01 
  32487.9951     0.81418E+01 
  32520.2573     0.82118E+01 
  32552.5194     0.82821E+01 
  32584.7816     0.83527E+01 
  32617.0438     0.84238E+01 
  32649.3059     0.84952E+01 
  32681.5681     0.85669E+01 
  32713.8302     0.86390E+01 
  32746.0924     0.87115E+01 
  32778.3546     0.87843E+01 
  32810.6167     0.88575E+01 
  32842.8789     0.89310E+01 
  32875.1410     0.90049E+01 
  32907.4032     0.90791E+01 
  32939.6654     0.91537E+01 
  32971.9275     0.92286E+01 
  33004.1897     0.93039E+01 
  33036.4518     0.93795E+01 
  33068.7140     0.94555E+01 
  33100.9762     0.95318E+01 
  33133.2383     0.96084E+01 
  33165.5005     0.96854E+01 
  33197.7626     0.97628E+01 
  33230.0248     0.98405E+01 
  33262.2870     0.99185E+01 
  33294.5491     0.99969E+01 
  33326.8113     0.10076E+02 
  33359.0734     0.10155E+02 
  33391.3356     0.10234E+02 
  33423.5978     0.10314E+02 
  33455.8599     0.10394E+02 
  33488.1221     0.10474E+02 
  33520.3842     0.10555E+02 
  33552.6464     0.10636E+02 
  33584.9086     0.10717E+02 
  33617.1707     0.10799E+02 
  33649.4329     0.10881E+02 
  33681.6950     0.10963E+02 
  33713.9572     0.11046E+02 
  33746.2194     0.11129E+02 
  33778.4815     0.11212E+02 
  33810.7437     0.11296E+02 
  33843.0058     0.11380E+02 
  33875.2680     0.11464E+02 
  33907.5302     0.11548E+02 
  33939.7923     0.11633E+02 
  33972.0545     0.11718E+02 
  34004.3166     0.11804E+02 
  34036.5788     0.11889E+02 
  34068.8410     0.11976E+02 
  34101.1031     0.12062E+02 
  34133.3653     0.12149E+02 
  34165.6274     0.12235E+02 
  34197.8896     0.12323E+02 
  34230.1518     0.12410E+02 
  34262.4139     0.12498E+02 
  34294.6761     0.12586E+02 
  34326.9382     0.12674E+02 
  34359.2004     0.12763E+02 
  34391.4626     0.12852E+02 
  34423.7247     0.12941E+02 
  34455.9869     0.13031E+02 
  34488.2490     0.13120E+02 
  34520.5112     0.13210E+02 
  34552.7734     0.13301E+02 
  34585.0355     0.13391E+02 
  34617.2977     0.13482E+02 
  34649.5598     0.13573E+02 
  34681.8220     0.13665E+02 
  34714.0842     0.13756E+02 
  34746.3463     0.13848E+02 
  34778.6085     0.13940E+02 
  34810.8706     0.14032E+02 
  34843.1328     0.14125E+02 
  34875.3950     0.14218E+02 
  34907.6571     0.14311E+02 
  34939.9193     0.14404E+02 
  34972.1814     0.14498E+02 
  35004.4436     0.14591E+02 
  35036.7058     0.14685E+02 
  35068.9679     0.14780E+02 
  35101.2301     0.14874E+02 
  35133.4922     0.14969E+02 
  35165.7544     0.15063E+02 
  35198.0166     0.15159E+02 
  35230.2787     0.15254E+02 
  35262.5409     0.15349E+02 
  35294.8030     0.15445E+02 
  35327.0652     0.15541E+02 
  35359.3274     0.15637E+02 
  35391.5895     0.15733E+02 
  35423.8517     0.15830E+02 
  35456.1138     0.15926E+02 
  35488.3760     0.16023E+02 
  35520.6382     0.16120E+02 
  35552.9003     0.16217E+02 
  35585.1625     0.16315E+02 
  35617.4246     0.16412E+02 
  35649.6868     0.16510E+02 
  35681.9490     0.16608E+02 
  35714.2111     0.16706E+02 
  35746.4733     0.16804E+02 
  35778.7354     0.16903E+02 
  35810.9976     0.17001E+02 
  35843.2598     0.17100E+02 
  35875.5219     0.17199E+02 
  35907.7841     0.17297E+02 
  35940.0462     0.17397E+02 
  35972.3084     0.17496E+02 
  36004.5706     0.17595E+02 
  36036.8327     0.17695E+02 
  36069.0949     0.17794E+02 
  36101.3570     0.17894E+02 
  36133.6192     0.17994E+02 
  36165.8814     0.18094E+02 
  36198.1435     0.18194E+02 
  36230.4057     0.18294E+02 
  36262.6678     0.18394E+02 
  36294.9300     0.18494E+02 
  36327.1922     0.18595E+02 
  36359.4543     0.18695E+02 
  36391.7165     0.18796E+02 
  36423.9786     0.18897E+02 
  36456.2408     0.18997E+02 
  36488.5030     0.19098E+02 
  36520.7651     0.19199E+02 
  36553.0273     0.19300E+02 
  36585.2894     0.19401E+02 
  36617.5516     0.19502E+02 
  36649.8138     0.19604E+02 
  36682.0759     0.19705E+02 
  36714.3381     0.19806E+02 
  36746.6002     0.19907E+02 
  36778.8624     0.20009E+02 
  36811.1246     0.20110E+02 
  36843.3867     0.20211E+02 
  36875.6489     0.20313E+02 
  36907.9110     0.20414E+02 
  36940.1732     0.20516E+02 
  36972.4354     0.20617E+02 
  37004.6975     0.20719E+02 
  37036.9597     0.20820E+02 
  37069.2218     0.20922E+02 
  37101.4840     0.21023E+02 
  37133.7462     0.21125E+02 
  37166.0083     0.21226E+02 
  37198.2705     0.21328E+02 
  37230.5326     0.21429E+02 
  37262.7948     0.21530E+02 
  37295.0570     0.21632E+02 
  37327.3191     0.21733E+02 
  37359.5813     0.21834E+02 
  37391.8434     0.21936E+02 
  37424.1056     0.22037E+02 
  37456.3678     0.22138E+02 
  37488.6299     0.22239E+02 
  37520.8921     0.22340E+02 
  37553.1542     0.22441E+02 
  37585.4164     0.22542E+02 
  37617.6786     0.22643E+02 
  37649.9407     0.22744E+02 
  37682.2029     0.22845E+02 
  37714.4650     0.22945E+02 
  37746.7272     0.23046E+02 
  37778.9894     0.23146E+02 
  37811.2515     0.23246E+02 
  37843.5137     0.23347E+02 
  37875.7758     0.23447E+02 
  37908.0380     0.23547E+02 
  37940.3002     0.23647E+02 
  37972.5623     0.23746E+02 
  38004.8245     0.23846E+02 
  38037.0866     0.23946E+02 
  38069.3488     0.24045E+02 
  38101.6110     0.24144E+02 
  38133.8731     0.24243E+02 
  38166.1353     0.24342E+02 
  38198.3974     0.24441E+02 
  38230.6596     0.24540E+02 
  38262.9218     0.24638E+02 
  38295.1839     0.24737E+02 
  38327.4461     0.24835E+02 
  38359.7082     0.24933E+02 
  38391.9704     0.25031E+02 
  38424.2326     0.25128E+02 
  38456.4947     0.25226E+02 
  38488.7569     0.25323E+02 
  38521.0190     0.25420E+02 
  38553.2812     0.25517E+02 
  38585.5434     0.25613E+02 
  38617.8055     0.25710E+02 
  38650.0677     0.25806E+02 
  38682.3298     0.25902E+02 
  38714.5920     0.25998E+02 
  38746.8542     0.26094E+02 
  38779.1163     0.26189E+02 
  38811.3785     0.26284E+02 
  38843.6406     0.26379E+02 
  38875.9028     0.26473E+02 
  38908.1650     0.26568E+02 
  38940.4271     0.26662E+02 
  38972.6893     0.26756E+02 
  39004.9514     0.26849E+02 
  39037.2136     0.26943E+02 
  39069.4758     0.27036E+02 
  39101.7379     0.27129E+02 
  39134.0001     0.27221E+02 
  39166.2622     0.27313E+02 
  39198.5244     0.27405E+02 
  39230.7866     0.27497E+02 
  39263.0487     0.27588E+02 
  39295.3109     0.27679E+02 
  39327.5730     0.27770E+02 
  39359.8352     0.27860E+02 
  39392.0974     0.27951E+02 
  39424.3595     0.28040E+02 
  39456.6217     0.28130E+02 
  39488.8838     0.28219E+02 
  39521.1460     0.28308E+02 
  39553.4082     0.28396E+02 
  39585.6703     0.28484E+02 
  39617.9325     0.28572E+02 
  39650.1946     0.28660E+02 
  39682.4568     0.28747E+02 
  39714.7190     0.28834E+02 
  39746.9811     0.28920E+02 
  39779.2433     0.29006E+02 
  39811.5054     0.29092E+02 
  39843.7676     0.29177E+02 
  39876.0298     0.29262E+02 
  39908.2919     0.29346E+02 
  39940.5541     0.29431E+02 
  39972.8162     0.29514E+02 
  40005.0784     0.29598E+02 
  40037.3406     0.29681E+02 
  40069.6027     0.29763E+02 
  40101.8649     0.29846E+02 
  40134.1270     0.29927E+02 
  40166.3892     0.30009E+02 
  40198.6514     0.30090E+02 
  40230.9135     0.30170E+02 
  40263.1757     0.30250E+02 
  40295.4378     0.30330E+02 
  40327.7000     0.30409E+02 
  40359.9622     0.30488E+02 
  40392.2243     0.30566E+02 
  40424.4865     0.30644E+02 
  40456.7486     0.30722E+02 
  40489.0108     0.30799E+02 
  40521.2730     0.30875E+02 
  40553.5351     0.30952E+02 
  40585.7973     0.31027E+02 
  40618.0594     0.31102E+02 
  40650.3216     0.31177E+02 
  40682.5838     0.31252E+02 
  40714.8459     0.31325E+02 
  40747.1081     0.31399E+02 
  40779.3702     0.31472E+02 
  40811.6324     0.31544E+02 
  40843.8946     0.31616E+02 
  40876.1567     0.31687E+02 
  40908.4189     0.31758E+02 
  40940.6810     0.31828E+02 
  40972.9432     0.31898E+02 
  41005.2054     0.31968E+02 
  41037.4675     0.32037E+02 
  41069.7297     0.32105E+02 
  41101.9918     0.32173E+02 
  41134.2540     0.32240E+02 
  41166.5162     0.32307E+02 
  41198.7783     0.32373E+02 
  41231.0405     0.32439E+02 
  41263.3026     0.32504E+02 
  41295.5648     0.32569E+02 
  41327.8270     0.32633E+02 
  41360.0891     0.32697E+02 
  41392.3513     0.32760E+02 
  41424.6134     0.32822E+02 
  41456.8756     0.32884E+02 
  41489.1378     0.32946E+02 
  41521.3999     0.33007E+02 
  41553.6621     0.33067E+02 
  41585.9242     0.33127E+02 
  41618.1864     0.33186E+02 
  41650.4486     0.33245E+02 
  41682.7107     0.33303E+02 
  41714.9729     0.33360E+02 
  41747.2350     0.33417E+02 
  41779.4972     0.33474E+02 
  41811.7594     0.33530E+02 
  41844.0215     0.33585E+02 
  41876.2837     0.33639E+02 
  41908.5458     0.33693E+02 
  41940.8080     0.33747E+02 
  41973.0702     0.33800E+02 
  42005.3323     0.33852E+02 
  42037.5945     0.33904E+02 
  42069.8566     0.33955E+02 
  42102.1188     0.34005E+02 
  42134.3810     0.34055E+02 
  42166.6431     0.34105E+02 
  42198.9053     0.34153E+02 
  42231.1674     0.34201E+02 
  42263.4296     0.34249E+02 
  42295.6918     0.34296E+02 
  42327.9539     0.34342E+02 
  42360.2161     0.34388E+02 
  42392.4782     0.34433E+02 
  42424.7404     0.34477E+02 
  42457.0026     0.34521E+02 
  42489.2647     0.34564E+02 
  42521.5269     0.34606E+02 
  42553.7890     0.34648E+02 
  42586.0512     0.34690E+02 
  42618.3134     0.34730E+02 
  42650.5755     0.34770E+02 
  42682.8377     0.34810E+02 
  42715.0998     0.34848E+02 
  42747.3620     0.34886E+02 
  42779.6242     0.34924E+02 
  42811.8863     0.34961E+02 
  42844.1485     0.34997E+02 
  42876.4106     0.35032E+02 
  42908.6728     0.35067E+02 
  42940.9350     0.35102E+02 
  42973.1971     0.35135E+02 
  43005.4593     0.35168E+02 
  43037.7214     0.35200E+02 
  43069.9836     0.35232E+02 
  43102.2458     0.35263E+02 
  43134.5079     0.35293E+02 
  43166.7701     0.35323E+02 
  43199.0322     0.35352E+02 
  43231.2944     0.35381E+02 
  43263.5566     0.35408E+02 
  43295.8187     0.35435E+02 
  43328.0809     0.35462E+02 
  43360.3430     0.35488E+02 
  43392.6052     0.35513E+02 
  43424.8674     0.35537E+02 
  43457.1295     0.35561E+02 
  43489.3917     0.35584E+02 
  43521.6538     0.35606E+02 
  43553.9160     0.35628E+02 
  43586.1782     0.35649E+02 
  43618.4403     0.35670E+02 
  43650.7025     0.35689E+02 
  43682.9646     0.35709E+02 
  43715.2268     0.35727E+02 
  43747.4890     0.35745E+02 
  43779.7511     0.35762E+02 
  43812.0133     0.35778E+02 
  43844.2754     0.35794E+02 
  43876.5376     0.35809E+02 
  43908.7998     0.35824E+02 
  43941.0619     0.35837E+02 
  43973.3241     0.35850E+02 
  44005.5862     0.35863E+02 
  44037.8484     0.35874E+02 
  44070.1106     0.35886E+02 
  44102.3727     0.35896E+02 
  44134.6349     0.35906E+02 
  44166.8970     0.35915E+02 
  44199.1592     0.35923E+02 
  44231.4214     0.35931E+02 
  44263.6835     0.35938E+02 
  44295.9457     0.35944E+02 
  44328.2078     0.35950E+02 
  44360.4700     0.35955E+02 
  44392.7322     0.35959E+02 
  44424.9943     0.35963E+02 
  44457.2565     0.35966E+02 
  44489.5186     0.35968E+02 
  44521.7808     0.35970E+02 
  44554.0430     0.35971E+02 
  44586.3051     0.35971E+02 
  44618.5673     0.35971E+02 
  44650.8294     0.35970E+02 
  44683.0916     0.35968E+02 
  44715.3538     0.35966E+02 
  44747.6159     0.35963E+02 
  44779.8781     0.35960E+02 
  44812.1402     0.35955E+02 
  44844.4024     0.35950E+02 
  44876.6646     0.35945E+02 
  44908.9267     0.35938E+02 
  44941.1889     0.35931E+02 
  44973.4510     0.35924E+02 
  45005.7132     0.35915E+02 
  45037.9754     0.35906E+02 
  45070.2375     0.35897E+02 
  45102.4997     0.35887E+02 
  45134.7618     0.35876E+02 
  45167.0240     0.35864E+02 
  45199.2862     0.35852E+02 
  45231.5483     0.35839E+02 
  45263.8105     0.35826E+02 
  45296.0726     0.35811E+02 
  45328.3348     0.35797E+02 
  45360.5970     0.35781E+02 
  45392.8591     0.35765E+02 
  45425.1213     0.35748E+02 
  45457.3834     0.35731E+02 
  45489.6456     0.35713E+02 
  45521.9078     0.35694E+02 
  45554.1699     0.35675E+02 
  45586.4321     0.35655E+02 
  45618.6942     0.35634E+02 
  45650.9564     0.35613E+02 
  45683.2186     0.35591E+02 
  45715.4807     0.35569E+02 
  45747.7429     0.35545E+02 
  45780.0050     0.35522E+02 
  45812.2672     0.35497E+02 
  45844.5294     0.35472E+02 
  45876.7915     0.35447E+02 
  45909.0537     0.35420E+02 
  45941.3158     0.35394E+02 
  45973.5780     0.35366E+02 
  46005.8402     0.35338E+02 
  46038.1023     0.35309E+02 
  46070.3645     0.35280E+02 
  46102.6266     0.35250E+02 
  46134.8888     0.35219E+02 
  46167.1510     0.35188E+02 
  46199.4131     0.35156E+02 
  46231.6753     0.35124E+02 
  46263.9374     0.35091E+02 
  46296.1996     0.35057E+02 
  46328.4618     0.35023E+02 
  46360.7239     0.34988E+02 
  46392.9861     0.34953E+02 
  46425.2482     0.34917E+02 
  46457.5104     0.34881E+02 
  46489.7726     0.34843E+02 
  46522.0347     0.34806E+02 
  46554.2969     0.34767E+02 
  46586.5590     0.34729E+02 
  46618.8212     0.34689E+02 
  46651.0834     0.34649E+02 
  46683.3455     0.34609E+02 
  46715.6077     0.34567E+02 
  46747.8698     0.34526E+02 
  46780.1320     0.34483E+02 
  46812.3942     0.34440E+02 
  46844.6563     0.34397E+02 
  46876.9185     0.34353E+02 
  46909.1806     0.34308E+02 
  46941.4428     0.34263E+02 
  46973.7050     0.34218E+02 
  47005.9671     0.34172E+02 
  47038.2293     0.34125E+02 
  47070.4914     0.34078E+02 
  47102.7536     0.34030E+02 
  47135.0158     0.33981E+02 
  47167.2779     0.33932E+02 
  47199.5401     0.33883E+02 
  47231.8022     0.33833E+02 
  47264.0644     0.33783E+02 
  47296.3266     0.33732E+02 
  47328.5887     0.33680E+02 
  47360.8509     0.33628E+02 
  47393.1130     0.33575E+02 
  47425.3752     0.33522E+02 
  47457.6374     0.33469E+02 
  47489.8995     0.33415E+02 
  47522.1617     0.33360E+02 
  47554.4238     0.33305E+02 
  47586.6860     0.33249E+02 
  47618.9482     0.33193E+02 
  47651.2103     0.33137E+02 
  47683.4725     0.33080E+02 
  47715.7346     0.33022E+02 
  47747.9968     0.32964E+02 
  47780.2590     0.32905E+02 
  47812.5211     0.32846E+02 
  47844.7833     0.32787E+02 
  47877.0454     0.32727E+02 
  47909.3076     0.32666E+02 
  47941.5698     0.32606E+02 
  47973.8319     0.32544E+02 
  48006.0941     0.32482E+02 
  48038.3562     0.32420E+02 
  48070.6184     0.32357E+02 
  48102.8806     0.32294E+02 
  48135.1427     0.32231E+02 
  48167.4049     0.32166E+02 
  48199.6670     0.32102E+02 
  48231.9292     0.32037E+02 
  48264.1914     0.31972E+02 
  48296.4535     0.31906E+02 
  48328.7157     0.31839E+02 
  48360.9778     0.31773E+02 
  48393.2400     0.31706E+02 
  48425.5022     0.31638E+02 
  48457.7643     0.31570E+02 
  48490.0265     0.31502E+02 
  48522.2886     0.31433E+02 
  48554.5508     0.31364E+02 
  48586.8130     0.31294E+02 
  48619.0751     0.31224E+02 
  48651.3373     0.31154E+02 
  48683.5994     0.31083E+02 
  48715.8616     0.31012E+02 
  48748.1238     0.30941E+02 
  48780.3859     0.30869E+02 
  48812.6481     0.30796E+02 
  48844.9102     0.30724E+02 
  48877.1724     0.30651E+02 
  48909.4346     0.30577E+02 
  48941.6967     0.30503E+02 
  48973.9589     0.30429E+02 
  49006.2210     0.30355E+02 
  49038.4832     0.30280E+02 
  49070.7454     0.30205E+02 
  49103.0075     0.30129E+02 
  49135.2697     0.30053E+02 
  49167.5318     0.29977E+02 
  49199.7940     0.29900E+02 
  49232.0562     0.29823E+02 
  49264.3183     0.29746E+02 
  49296.5805     0.29668E+02 
  49328.8426     0.29590E+02 
  49361.1048     0.29512E+02 
  49393.3670     0.29434E+02 
  49425.6291     0.29355E+02 
  49457.8913     0.29275E+02 
  49490.1534     0.29196E+02 
  49522.4156     0.29116E+02 
  49554.6778     0.29036E+02 
  49586.9399     0.28956E+02 
  49619.2021     0.28875E+02 
  49651.4642     0.28794E+02 
  49683.7264     0.28712E+02 
  49715.9886     0.28631E+02 
  49748.2507     0.28549E+02 
  49780.5129     0.28467E+02 
  49812.7750     0.28384E+02 
  49845.0372     0.28302E+02 
  49877.2994     0.28219E+02 
  49909.5615     0.28135E+02 
  49941.8237     0.28052E+02 
  49974.0858     0.27968E+02 
  50006.3480     0.27884E+02 
  50038.6102     0.27800E+02 
  50070.8723     0.27715E+02 
  50103.1345     0.27631E+02 
  50135.3966     0.27546E+02 
  50167.6588     0.27460E+02 
  50199.9210     0.27375E+02 
  50232.1831     0.27289E+02 
  50264.4453     0.27203E+02 
  50296.7074     0.27117E+02 
  50328.9696     0.27031E+02 
  50361.2318     0.26944E+02 
  50393.4939     0.26857E+02 
  50425.7561     0.26770E+02 
  50458.0182     0.26683E+02 
  50490.2804     0.26595E+02 
  50522.5426     0.26508E+02 
  50554.8047     0.26420E+02 
  50587.0669     0.26332E+02 
  50619.3290     0.26244E+02 
  50651.5912     0.26155E+02 
  50683.8534     0.26067E+02 
  50716.1155     0.25978E+02 
  50748.3777     0.25889E+02 
  50780.6398     0.25800E+02 
  50812.9020     0.25710E+02 
  50845.1642     0.25621E+02 
  50877.4263     0.25531E+02 
  50909.6885     0.25441E+02 
  50941.9506     0.25351E+02 
  50974.2128     0.25261E+02 
  51006.4750     0.25171E+02 
  51038.7371     0.25081E+02 
  51070.9993     0.24990E+02 
  51103.2614     0.24899E+02 
  51135.5236     0.24808E+02 
  51167.7858     0.24717E+02 
  51200.0479     0.24626E+02 
  51232.3101     0.24535E+02 
  51264.5722     0.24444E+02 
  51296.8344     0.24352E+02 
  51329.0966     0.24260E+02 
  51361.3587     0.24169E+02 
  51393.6209     0.24077E+02 
  51425.8830     0.23985E+02 
  51458.1452     0.23893E+02 
  51490.4074     0.23800E+02 
  51522.6695     0.23708E+02 
  51554.9317     0.23616E+02 
  51587.1938     0.23523E+02 
  51619.4560     0.23431E+02 
  51651.7182     0.23338E+02 
  51683.9803     0.23245E+02 
  51716.2425     0.23152E+02 
  51748.5046     0.23059E+02 
  51780.7668     0.22966E+02 
  51813.0290     0.22873E+02 
  51845.2911     0.22780E+02 
  51877.5533     0.22687E+02 
  51909.8154     0.22594E+02 
  51942.0776     0.22500E+02 
  51974.3398     0.22407E+02 
  52006.6019     0.22314E+02 
  52038.8641     0.22220E+02 
  52071.1262     0.22126E+02 
  52103.3884     0.22033E+02 
  52135.6506     0.21939E+02 
  52167.9127     0.21845E+02 
  52200.1749     0.21752E+02 
  52232.4370     0.21658E+02 
  52264.6992     0.21564E+02 
  52296.9614     0.21470E+02 
  52329.2235     0.21376E+02 
  52361.4857     0.21282E+02 
  52393.7478     0.21189E+02 
  52426.0100     0.21095E+02 
  52458.2722     0.21001E+02 
  52490.5343     0.20907E+02 
  52522.7965     0.20813E+02 
  52555.0586     0.20719E+02 
  52587.3208     0.20625E+02 
  52619.5830     0.20531E+02 
  52651.8451     0.20437E+02 
  52684.1073     0.20343E+02 
  52716.3694     0.20249E+02 
  52748.6316     0.20155E+02 
  52780.8938     0.20061E+02 
  52813.1559     0.19967E+02 
  52845.4181     0.19873E+02 
  52877.6802     0.19779E+02 
  52909.9424     0.19685E+02 
  52942.2046     0.19591E+02 
  52974.4667     0.19497E+02 
  53006.7289     0.19404E+02 
  53038.9910     0.19310E+02 
  53071.2532     0.19216E+02 
  53103.5154     0.19122E+02 
  53135.7775     0.19029E+02 
  53168.0397     0.18935E+02 
  53200.3018     0.18841E+02 
  53232.5640     0.18748E+02 
  53264.8262     0.18654E+02 
  53297.0883     0.18561E+02 
  53329.3505     0.18468E+02 
  53361.6126     0.18374E+02 
  53393.8748     0.18281E+02 
  53426.1370     0.18188E+02 
  53458.3991     0.18095E+02 
  53490.6613     0.18002E+02 
  53522.9234     0.17908E+02 
  53555.1856     0.17816E+02 
  53587.4478     0.17723E+02 
  53619.7099     0.17630E+02 
  53651.9721     0.17537E+02 
  53684.2342     0.17445E+02 
  53716.4964     0.17352E+02 
  53748.7586     0.17260E+02 
  53781.0207     0.17167E+02 
  53813.2829     0.17075E+02 
  53845.5450     0.16983E+02 
  53877.8072     0.16891E+02 
  53910.0694     0.16799E+02 
  53942.3315     0.16707E+02 
  53974.5937     0.16615E+02 
  54006.8558     0.16523E+02 
  54039.1180     0.16431E+02 
  54071.3802     0.16340E+02 
  54103.6423     0.16249E+02 
  54135.9045     0.16157E+02 
  54168.1666     0.16066E+02 
  54200.4288     0.15975E+02 
  54232.6910     0.15884E+02 
  54264.9531     0.15793E+02 
  54297.2153     0.15703E+02 
  54329.4774     0.15612E+02 
  54361.7396     0.15522E+02 
  54394.0018     0.15431E+02 
  54426.2639     0.15341E+02 
  54458.5261     0.15251E+02 
  54490.7882     0.15161E+02 
  54523.0504     0.15071E+02 
  54555.3126     0.14982E+02 
  54587.5747     0.14892E+02 
  54619.8369     0.14803E+02 
  54652.0990     0.14714E+02 
  54684.3612     0.14625E+02 
  54716.6234     0.14536E+02 
  54748.8855     0.14447E+02 
  54781.1477     0.14358E+02 
  54813.4098     0.14270E+02 
  54845.6720     0.14181E+02 
  54877.9342     0.14093E+02 
  54910.1963     0.14005E+02 
  54942.4585     0.13917E+02 
  54974.7206     0.13830E+02 
  55006.9828     0.13742E+02 
  55039.2450     0.13655E+02 
  55071.5071     0.13568E+02 
  55103.7693     0.13481E+02 
  55136.0314     0.13394E+02 
  55168.2936     0.13307E+02 
  55200.5558     0.13221E+02 
  55232.8179     0.13134E+02 
  55265.0801     0.13048E+02 
  55297.3422     0.12962E+02 
  55329.6044     0.12877E+02 
  55361.8666     0.12791E+02 
  55394.1287     0.12706E+02 
  55426.3909     0.12620E+02 
  55458.6530     0.12535E+02 
  55490.9152     0.12451E+02 
  55523.1774     0.12366E+02 
  55555.4395     0.12281E+02 
  55587.7017     0.12197E+02 
  55619.9638     0.12113E+02 
  55652.2260     0.12029E+02 
  55684.4882     0.11946E+02 
  55716.7503     0.11862E+02 
  55749.0125     0.11779E+02 
  55781.2746     0.11696E+02 
  55813.5368     0.11613E+02 
  55845.7990     0.11531E+02 
  55878.0611     0.11448E+02 
  55910.3233     0.11366E+02 
  55942.5854     0.11284E+02 
  55974.8476     0.11202E+02 
  56007.1098     0.11121E+02 
  56039.3719     0.11039E+02 
  56071.6341     0.10958E+02 
  56103.8962     0.10877E+02 
  56136.1584     0.10797E+02 
  56168.4206     0.10716E+02 
  56200.6827     0.10636E+02 
  56232.9449     0.10556E+02 
  56265.2070     0.10477E+02 
  56297.4692     0.10397E+02 
  56329.7314     0.10318E+02 
  56361.9935     0.10239E+02 
  56394.2557     0.10160E+02 
  56426.5178     0.10081E+02 
  56458.7800     0.10003E+02 
  56491.0422     0.99251E+01 
  56523.3043     0.98473E+01 
  56555.5665     0.97697E+01 
  56587.8286     0.96924E+01 
  56620.0908     0.96153E+01 
  56652.3530     0.95385E+01 
  56684.6151     0.94619E+01 
  56716.8773     0.93856E+01 
  56749.1394     0.93095E+01 
  56781.4016     0.92337E+01 
  56813.6638     0.91582E+01 
  56845.9259     0.90829E+01 
  56878.1881     0.90079E+01 
  56910.4502     0.89331E+01 
  56942.7124     0.88587E+01 
  56974.9746     0.87844E+01 
  57007.2367     0.87105E+01 
  57039.4989     0.86368E+01 
  57071.7610     0.85634E+01 
  57104.0232     0.84903E+01 
  57136.2854     0.84174E+01 
  57168.5475     0.83449E+01 
  57200.8097     0.82726E+01 
  57233.0718     0.82006E+01 
  57265.3340     0.81288E+01 
  57297.5962     0.80574E+01 
  57329.8583     0.79862E+01 
  57362.1205     0.79154E+01 
  57394.3826     0.78448E+01 
  57426.6448     0.77745E+01 
  57458.9070     0.77045E+01 
  57491.1691     0.76348E+01 
  57523.4313     0.75654E+01 
  57555.6934     0.74963E+01 
  57587.9556     0.74275E+01 
  57620.2178     0.73590E+01 
  57652.4799     0.72909E+01 
  57684.7421     0.72230E+01 
  57717.0042     0.71554E+01 
  57749.2664     0.70882E+01 
  57781.5286     0.70212E+01 
  57813.7907     0.69546E+01 
  57846.0529     0.68883E+01 
  57878.3150     0.68223E+01 
  57910.5772     0.67566E+01 
  57942.8394     0.66913E+01 
  57975.1015     0.66262E+01 
  58007.3637     0.65615E+01 
  58039.6258     0.64972E+01 
  58071.8880     0.64331E+01 
  58104.1502     0.63694E+01 
  58136.4123     0.63061E+01 
  58168.6745     0.62431E+01 
  58200.9366     0.61804E+01 
  58233.1988     0.61180E+01 
  58265.4610     0.60560E+01 
  58297.7231     0.59944E+01 
  58329.9853     0.59331E+01 
  58362.2474     0.58721E+01 
  58394.5096     0.58115E+01 
  58426.7718     0.57513E+01 
  58459.0339     0.56914E+01 
  58491.2961     0.56319E+01 
  58523.5582     0.55727E+01 
  58555.8204     0.55140E+01 
  58588.0826     0.54555E+01 
  58620.3447     0.53975E+01 
  58652.6069     0.53398E+01 
  58684.8690     0.52825E+01 
  58717.1312     0.52256E+01 
  58749.3934     0.51691E+01 
  58781.6555     0.51129E+01 
  58813.9177     0.50572E+01 
  58846.1798     0.50018E+01 
  58878.4420     0.49468E+01 
  58910.7042     0.48922E+01 
  58942.9663     0.48380E+01 
  58975.2285     0.47842E+01 
  59007.4906     0.47309E+01 
  59039.7528     0.46779E+01 
  59072.0150     0.46253E+01 
  59104.2771     0.45732E+01 
  59136.5393     0.45215E+01 
  59168.8014     0.44701E+01 
  59201.0636     0.44192E+01 
  59233.3258     0.43688E+01 
  59265.5879     0.43187E+01 
  59297.8501     0.42691E+01 
  59330.1122     0.42200E+01 
  59362.3744     0.41713E+01 
  59394.6366     0.41230E+01 
  59426.8987     0.40751E+01 
  59459.1609     0.40277E+01 
  59491.4230     0.39808E+01 
  59523.6852     0.39343E+01 
  59555.9474     0.38883E+01 
  59588.2095     0.38428E+01 
  59620.4717     0.37977E+01 
  59652.7338     0.37531E+01 
  59684.9960     0.37089E+01 
  59717.2582     0.36653E+01 
  59749.5203     0.36221E+01 
  59781.7825     0.35794E+01 
  59814.0446     0.35372E+01 
  59846.3068     0.34955E+01 
  59878.5690     0.34543E+01 
  59910.8311     0.34136E+01 
  59943.0933     0.33734E+01 
  59975.3554     0.33337E+01 
  60007.6176     0.32945E+01 
  60039.8798     0.32559E+01 
  60072.1419     0.32178E+01 
  60104.4041     0.31802E+01 
  60136.6662     0.31431E+01 
  60168.9284     0.31066E+01 
  60201.1906     0.30706E+01 
  60233.4527     0.30352E+01 
  60265.7149     0.30004E+01 
  60297.9770     0.29660E+01 
  60330.2392     0.29323E+01 
  60362.5014     0.28991E+01 
  60394.7635     0.28665E+01 
  60427.0257     0.28345E+01 
  60459.2878     0.28030E+01 
  60491.5500     0.27722E+01 
  60523.8122     0.27419E+01 
  60556.0743     0.27122E+01 
  60588.3365     0.26832E+01 
  60620.5986     0.26547E+01 
  60652.8608     0.26269E+01 
  60685.1230     0.25997E+01 
  60717.3851     0.25731E+01 
  60749.6473     0.25471E+01 
  60781.9094     0.25218E+01 
  60814.1716     0.24972E+01 
  60846.4338     0.24732E+01 
  60878.6959     0.24498E+01 
  60910.9581     0.24271E+01 
  60943.2202     0.24051E+01 
  60975.4824     0.23837E+01 
  61007.7446     0.23631E+01 
  61040.0067     0.23431E+01 
  61072.2689     0.23238E+01 
  61104.5310     0.23052E+01 
  61136.7932     0.22873E+01 
  61169.0554     0.22702E+01 
  61201.3175     0.22537E+01 
  61233.5797     0.22380E+01 
  61265.8418     0.22230E+01 
  61298.1040     0.22088E+01 
  61330.3662     0.21953E+01 
  61362.6283     0.21826E+01 
  61394.8905     0.21707E+01 
  61427.1526     0.21595E+01 
  61459.4148     0.21491E+01 
  61491.6770     0.21394E+01 
  61523.9391     0.21306E+01 
  61556.2013     0.21226E+01 
  61588.4634     0.21154E+01 
  61620.7256     0.21090E+01 
  61652.9878     0.21034E+01 
  61685.2499     0.20987E+01 
  61717.5121     0.20948E+01 
  61749.7742     0.20918E+01 
  61782.0364     0.20896E+01 
  61814.2986     0.20883E+01 
  61846.5607     0.20879E+01 
  61878.8229     0.20884E+01 
  61911.0850     0.20897E+01 
  61943.3472     0.20920E+01 
  61975.6094     0.20951E+01 
  62007.8715     0.20992E+01 
  62040.1337     0.21042E+01 
  62072.3958     0.21102E+01 
  62104.6580     0.21171E+01 
  62136.9202     0.21250E+01 
  62169.1823     0.21338E+01 
  62201.4445     0.21436E+01 
  62233.7066     0.21544E+01 
  62265.9688     0.21662E+01 
  62298.2310     0.21790E+01 
  62330.4931     0.21928E+01 
  62362.7553     0.22077E+01 
  62395.0174     0.22236E+01 
  62427.2796     0.22405E+01 
  62459.5418     0.22585E+01 
  62491.8039     0.22776E+01 
  62524.0661     0.22977E+01 
  62556.3282     0.23189E+01 
  62588.5904     0.23413E+01 
  62620.8526     0.23647E+01 
  62653.1147     0.23893E+01 
  62685.3769     0.24150E+01 
  62717.6390     0.24418E+01 
  62749.9012     0.24698E+01 
  62782.1634     0.24990E+01 
  62814.4255     0.25294E+01 
  62846.6877     0.25609E+01 
  62878.9498     0.25937E+01 
  62911.2120     0.26276E+01 
  62943.4742     0.26628E+01 
  62975.7363     0.26993E+01 
  63007.9985     0.27369E+01 
  63040.2606     0.27759E+01 
  63072.5228     0.28161E+01 
  63104.7850     0.28576E+01 
  63137.0471     0.29005E+01 
  63169.3093     0.29446E+01 
  63201.5714     0.29901E+01 
  63233.8336     0.30369E+01 
  63266.0958     0.30850E+01 
  63298.3579     0.31345E+01 
  63330.6201     0.31855E+01 
  63362.8822     0.32378E+01 
  63395.1444     0.32915E+01 
  63427.4066     0.33466E+01 
  63459.6687     0.34032E+01 
  63491.9309     0.34612E+01 
  63524.1930     0.35206E+01 
  63556.4552     0.35816E+01 
  63588.7174     0.36440E+01 
  63620.9795     0.37080E+01 
  63653.2417     0.37735E+01 
  63685.5038     0.38405E+01 
  63717.7660     0.39090E+01 
  63750.0282     0.39791E+01 
  63782.2903     0.40508E+01 
  63814.5525     0.41241E+01 
  63846.8146     0.41990E+01 
  63879.0768     0.42756E+01 
  63911.3390     0.43537E+01 
  63943.6011     0.44336E+01 
  63975.8633     0.45151E+01 
  64008.1254     0.45982E+01 
  64040.3876     0.46831E+01 
  64072.6498     0.47697E+01 
  64104.9119     0.48581E+01 
  64137.1741     0.49482E+01 
  64169.4362     0.50400E+01 
  64201.6984     0.51337E+01 
  64233.9606     0.52291E+01 
  64266.2227     0.53264E+01 
  64298.4849     0.54254E+01 
  64330.7470     0.55264E+01 
  64363.0092     0.56292E+01 
  64395.2714     0.57339E+01 
  64427.5335     0.58405E+01 
  64459.7957     0.59490E+01 
  64492.0578     0.60594E+01 
  64524.3200     0.61718E+01 
  64556.5822     0.62862E+01 
  64588.8443     0.64026E+01 
  64621.1065     0.65209E+01 
  64653.3686     0.66413E+01 
  64685.6308     0.67637E+01 
  64717.8930     0.68882E+01 
  64750.1551     0.70148E+01 
  64782.4173     0.71435E+01 
  64814.6794     0.72742E+01 
  64846.9416     0.74072E+01 
  64879.2038     0.75422E+01 
  64911.4659     0.76795E+01 
  64943.7281     0.78189E+01 
  64975.9902     0.79605E+01 
  65008.2524     0.81044E+01 
  65040.5146     0.82505E+01 
  65072.7767     0.83988E+01 
  65105.0389     0.85495E+01 
  65137.3010     0.87025E+01 
  65169.5632     0.88578E+01 
  65201.8254     0.90154E+01 
  65234.0875     0.91754E+01 
  65266.3497     0.93377E+01 
  65298.6118     0.95025E+01 
  65330.8740     0.96697E+01 
  65363.1362     0.98394E+01 
  65395.3983     0.10011E+02 
  65427.6605     0.10186E+02 
  65459.9226     0.10363E+02 
  65492.1848     0.10543E+02 
  65524.4470     0.10725E+02 
  65556.7091     0.10910E+02 
  65588.9713     0.11097E+02 
  65621.2334     0.11287E+02 
  65653.4956     0.11479E+02 
  65685.7578     0.11675E+02 
  65718.0199     0.11872E+02 
  65750.2821     0.12073E+02 
  65782.5442     0.12276E+02 
  65814.8064     0.12482E+02 
  65847.0686     0.12691E+02 
  65879.3307     0.12902E+02 
  65911.5929     0.13117E+02 
  65943.8550     0.13334E+02 
  65976.1172     0.13554E+02 
  66008.3794     0.13777E+02 
  66040.6415     0.14002E+02 
  66072.9037     0.14231E+02 
  66105.1658     0.14462E+02 
  66137.4280     0.14697E+02 
  66169.6902     0.14934E+02 
  66201.9523     0.15175E+02 
  66234.2145     0.15418E+02 
  66266.4766     0.15665E+02 
  66298.7388     0.15914E+02 
  66331.0010     0.16167E+02 
  66363.2631     0.16423E+02 
  66395.5253     0.16681E+02 
  66427.7874     0.16943E+02 
  66460.0496     0.17208E+02 
  66492.3118     0.17477E+02 
  66524.5739     0.17748E+02 
  66556.8361     0.18023E+02 
  66589.0982     0.18301E+02 
  66621.3604     0.18582E+02 
  66653.6226     0.18867E+02 
  66685.8847     0.19155E+02 
  66718.1469     0.19446E+02 
  66750.4090     0.19741E+02 
  66782.6712     0.20039E+02 
  66814.9334     0.20340E+02 
  66847.1955     0.20645E+02 
  66879.4577     0.20954E+02 
  66911.7198     0.21265E+02 
  66943.9820     0.21581E+02 
  66976.2442     0.21900E+02 
  67008.5063     0.22222E+02 
  67040.7685     0.22548E+02 
  67073.0306     0.22878E+02 
  67105.2928     0.23211E+02 
  67137.5550     0.23548E+02 
  67169.8171     0.23888E+02 
  67202.0793     0.24232E+02 
  67234.3414     0.24580E+02 
  67266.6036     0.24932E+02 
  67298.8658     0.25287E+02 
  67331.1279     0.25646E+02 
  67363.3901     0.26009E+02 
  67395.6522     0.26376E+02 
  67427.9144     0.26746E+02 
  67460.1766     0.27121E+02 
  67492.4387     0.27499E+02 
  67524.7009     0.27882E+02 
  67556.9630     0.28268E+02 
  67589.2252     0.28658E+02 
  67621.4874     0.29052E+02 
  67653.7495     0.29450E+02 
  67686.0117     0.29852E+02 
  67718.2738     0.30258E+02 
  67750.5360     0.30669E+02 
  67782.7982     0.31083E+02 
  67815.0603     0.31501E+02 
  67847.3225     0.31924E+02 
  67879.5846     0.32351E+02 
  67911.8468     0.32782E+02 
  67944.1090     0.33217E+02 
  67976.3711     0.33656E+02 
  68008.6333     0.34100E+02 
  68040.8954     0.34548E+02 
  68073.1576     0.35000E+02 
  68105.4198     0.35456E+02 
  68137.6819     0.35917E+02 
  68169.9441     0.36382E+02 
  68202.2062     0.36851E+02 
  68234.4684     0.37325E+02 
  68266.7306     0.37804E+02 
  68298.9927     0.38286E+02 
  68331.2549     0.38773E+02 
  68363.5170     0.39265E+02 
  68395.7792     0.39761E+02 
  68428.0414     0.40262E+02 
  68460.3035     0.40767E+02 
  68492.5657     0.41277E+02 
  68524.8278     0.41791E+02 
  68557.0900     0.42310E+02 
  68589.3522     0.42833E+02 
  68621.6143     0.43362E+02 
  68653.8765     0.43894E+02 
  68686.1386     0.44432E+02 
  68718.4008     0.44974E+02 
  68750.6630     0.45521E+02 
  68782.9251     0.46073E+02 
  68815.1873     0.46629E+02 
  68847.4494     0.47190E+02 
  68879.7116     0.47756E+02 
  68911.9738     0.48327E+02 
  68944.2359     0.48902E+02 
  68976.4981     0.49483E+02 
  69008.7602     0.50068E+02 
  69041.0224     0.50658E+02 
  69073.2846     0.51253E+02 
  69105.5467     0.51853E+02 
  69137.8089     0.52458E+02 
  69170.0710     0.53068E+02 
  69202.3332     0.53683E+02 
  69234.5954     0.54302E+02 
  69266.8575     0.54927E+02 
  69299.1197     0.55557E+02 
  69331.3818     0.56192E+02 
  69363.6440     0.56832E+02 
  69395.9062     0.57477E+02 
  69428.1683     0.58127E+02 
  69460.4305     0.58782E+02 
  69492.6926     0.59442E+02 
  69524.9548     0.60107E+02 
  69557.2170     0.60778E+02 
  69589.4791     0.61453E+02 
  69621.7413     0.62134E+02 
  69654.0034     0.62820E+02 
  69686.2656     0.63511E+02 
  69718.5278     0.64208E+02 
  69750.7899     0.64909E+02 
  69783.0521     0.65616E+02 
  69815.3142     0.66328E+02 
  69847.5764     0.67046E+02 
  69879.8386     0.67768E+02 
  69912.1007     0.68496E+02 
  69944.3629     0.69230E+02 
  69976.6250     0.69968E+02 
  70008.8872     0.70712E+02 
  70041.1494     0.71461E+02 
  70073.4115     0.72216E+02 
  70105.6737     0.72976E+02 
  70137.9358     0.73741E+02 
  70170.1980     0.74511E+02 
  70202.4602     0.75287E+02 
  70234.7223     0.76069E+02 
  70266.9845     0.76856E+02 
  70299.2466     0.77648E+02 
  70331.5088     0.78445E+02 
  70363.7710     0.79248E+02 
  70396.0331     0.80057E+02 
  70428.2953     0.80871E+02 
  70460.5574     0.81690E+02 
  70492.8196     0.82515E+02 
  70525.0818     0.83345E+02 
  70557.3439     0.84181E+02 
  70589.6061     0.85022E+02 
  70621.8682     0.85869E+02 
  70654.1304     0.86721E+02 
  70686.3926     0.87579E+02 
  70718.6547     0.88442E+02 
  70750.9169     0.89311E+02 
  70783.1790     0.90185E+02 
  70815.4412     0.91065E+02 
  70847.7034     0.91950E+02 
  70879.9655     0.92841E+02 
  70912.2277     0.93737E+02 
  70944.4898     0.94639E+02 
  70976.7520     0.95546E+02 
  71009.0142     0.96459E+02 
  71041.2763     0.97378E+02 
  71073.5385     0.98302E+02 
  71105.8006     0.99231E+02 
  71138.0628     0.10017E+03 
  71170.3250     0.10111E+03 
  71202.5871     0.10205E+03 
  71234.8493     0.10300E+03 
  71267.1114     0.10396E+03 
  71299.3736     0.10492E+03 
  71331.6358     0.10589E+03 
  71363.8979     0.10687E+03 
  71396.1601     0.10784E+03 
  71428.4222     0.10883E+03 
  71460.6844     0.10982E+03 
  71492.9466     0.11082E+03 
  71525.2087     0.11182E+03 
  71557.4709     0.11282E+03 
  71589.7330     0.11384E+03 
  71621.9952     0.11485E+03 
  71654.2574     0.11588E+03 
  71686.5195     0.11691E+03 
  71718.7817     0.11794E+03 
  71751.0438     0.11898E+03 
  71783.3060     0.12002E+03 
  71815.5682     0.12108E+03 
  71847.8303     0.12213E+03 
  71880.0925     0.12319E+03 
  71912.3546     0.12426E+03 
  71944.6168     0.12533E+03 
  71976.8790     0.12641E+03 
  72009.1411     0.12749E+03 
  72041.4033     0.12858E+03 
  72073.6654     0.12967E+03 
  72105.9276     0.13077E+03 
  72138.1898     0.13188E+03 
  72170.4519     0.13299E+03 
  72202.7141     0.13410E+03 
  72234.9762     0.13522E+03 
  72267.2384     0.13635E+03 
  72299.5006     0.13748E+03 
  72331.7627     0.13862E+03 
  72364.0249     0.13976E+03 
  72396.2870     0.14091E+03 
  72428.5492     0.14206E+03 
  72460.8114     0.14322E+03 
  72493.0735     0.14438E+03 
  72525.3357     0.14555E+03 
  72557.5978     0.14672E+03 
  72589.8600     0.14790E+03 
