  32262.1600     0.30047E+01 
  32294.4222     0.30331E+01 
  32326.6843     0.30616E+01 
  32358.9465     0.30904E+01 
  32391.2086     0.31193E+01 
  32423.4708     0.31484E+01 
  32455.7330     0.31776E+01 
  32487.9951     0.32070E+01 
  32520.2573     0.32366E+01 
  32552.5194     0.32663E+01 
  32584.7816     0.32962E+01 
  32617.0438     0.33263E+01 
  32649.3059     0.33565E+01 
  32681.5681     0.33869E+01 
  32713.8302     0.34175E+01 
  32746.0924     0.34482E+01 
  32778.3546     0.34791E+01 
  32810.6167     0.35101E+01 
  32842.8789     0.35414E+01 
  32875.1410     0.35727E+01 
  32907.4032     0.36043E+01 
  32939.6654     0.36360E+01 
  32971.9275     0.36678E+01 
  33004.1897     0.36999E+01 
  33036.4518     0.37321E+01 
  33068.7140     0.37644E+01 
  33100.9762     0.37969E+01 
  33133.2383     0.38296E+01 
  33165.5005     0.38624E+01 
  33197.7626     0.38954E+01 
  33230.0248     0.39285E+01 
  33262.2870     0.39618E+01 
  33294.5491     0.39953E+01 
  33326.8113     0.40289E+01 
  33359.0734     0.40627E+01 
  33391.3356     0.40966E+01 
  33423.5978     0.41306E+01 
  33455.8599     0.41649E+01 
  33488.1221     0.41993E+01 
  33520.3842     0.42338E+01 
  33552.6464     0.42685E+01 
  33584.9086     0.43033E+01 
  33617.1707     0.43383E+01 
  33649.4329     0.43734E+01 
  33681.6950     0.44087E+01 
  33713.9572     0.44441E+01 
  33746.2194     0.44797E+01 
  33778.4815     0.45154E+01 
  33810.7437     0.45513E+01 
  33843.0058     0.45873E+01 
  33875.2680     0.46235E+01 
  33907.5302     0.46598E+01 
  33939.7923     0.46962E+01 
  33972.0545     0.47328E+01 
  34004.3166     0.47695E+01 
  34036.5788     0.48064E+01 
  34068.8410     0.48434E+01 
  34101.1031     0.48805E+01 
  34133.3653     0.49178E+01 
  34165.6274     0.49552E+01 
  34197.8896     0.49927E+01 
  34230.1518     0.50304E+01 
  34262.4139     0.50682E+01 
  34294.6761     0.51061E+01 
  34326.9382     0.51442E+01 
  34359.2004     0.51824E+01 
  34391.4626     0.52207E+01 
  34423.7247     0.52591E+01 
  34455.9869     0.52977E+01 
  34488.2490     0.53364E+01 
  34520.5112     0.53752E+01 
  34552.7734     0.54141E+01 
  34585.0355     0.54532E+01 
  34617.2977     0.54924E+01 
  34649.5598     0.55317E+01 
  34681.8220     0.55711E+01 
  34714.0842     0.56106E+01 
  34746.3463     0.56503E+01 
  34778.6085     0.56900E+01 
  34810.8706     0.57299E+01 
  34843.1328     0.57699E+01 
  34875.3950     0.58099E+01 
  34907.6571     0.58501E+01 
  34939.9193     0.58904E+01 
  34972.1814     0.59308E+01 
  35004.4436     0.59714E+01 
  35036.7058     0.60120E+01 
  35068.9679     0.60527E+01 
  35101.2301     0.60935E+01 
  35133.4922     0.61344E+01 
  35165.7544     0.61754E+01 
  35198.0166     0.62165E+01 
  35230.2787     0.62577E+01 
  35262.5409     0.62990E+01 
  35294.8030     0.63404E+01 
  35327.0652     0.63818E+01 
  35359.3274     0.64234E+01 
  35391.5895     0.64650E+01 
  35423.8517     0.65067E+01 
  35456.1138     0.65485E+01 
  35488.3760     0.65904E+01 
  35520.6382     0.66324E+01 
  35552.9003     0.66744E+01 
  35585.1625     0.67165E+01 
  35617.4246     0.67587E+01 
  35649.6868     0.68010E+01 
  35681.9490     0.68433E+01 
  35714.2111     0.68857E+01 
  35746.4733     0.69282E+01 
  35778.7354     0.69708E+01 
  35810.9976     0.70134E+01 
  35843.2598     0.70560E+01 
  35875.5219     0.70988E+01 
  35907.7841     0.71415E+01 
  35940.0462     0.71844E+01 
  35972.3084     0.72273E+01 
  36004.5706     0.72702E+01 
  36036.8327     0.73132E+01 
  36069.0949     0.73563E+01 
  36101.3570     0.73994E+01 
  36133.6192     0.74425E+01 
  36165.8814     0.74857E+01 
  36198.1435     0.75290E+01 
  36230.4057     0.75723E+01 
  36262.6678     0.76156E+01 
  36294.9300     0.76589E+01 
  36327.1922     0.77023E+01 
  36359.4543     0.77457E+01 
  36391.7165     0.77892E+01 
  36423.9786     0.78327E+01 
  36456.2408     0.78762E+01 
  36488.5030     0.79197E+01 
  36520.7651     0.79633E+01 
  36553.0273     0.80069E+01 
  36585.2894     0.80505E+01 
  36617.5516     0.80941E+01 
  36649.8138     0.81377E+01 
  36682.0759     0.81814E+01 
  36714.3381     0.82250E+01 
  36746.6002     0.82687E+01 
  36778.8624     0.83124E+01 
  36811.1246     0.83561E+01 
  36843.3867     0.83998E+01 
  36875.6489     0.84435E+01 
  36907.9110     0.84871E+01 
  36940.1732     0.85308E+01 
  36972.4354     0.85745E+01 
  37004.6975     0.86182E+01 
  37036.9597     0.86619E+01 
  37069.2218     0.87055E+01 
  37101.4840     0.87492E+01 
  37133.7462     0.87928E+01 
  37166.0083     0.88364E+01 
  37198.2705     0.88800E+01 
  37230.5326     0.89236E+01 
  37262.7948     0.89671E+01 
  37295.0570     0.90107E+01 
  37327.3191     0.90542E+01 
  37359.5813     0.90976E+01 
  37391.8434     0.91411E+01 
  37424.1056     0.91845E+01 
  37456.3678     0.92279E+01 
  37488.6299     0.92712E+01 
  37520.8921     0.93145E+01 
  37553.1542     0.93577E+01 
  37585.4164     0.94009E+01 
  37617.6786     0.94441E+01 
  37649.9407     0.94872E+01 
  37682.2029     0.95303E+01 
  37714.4650     0.95733E+01 
  37746.7272     0.96162E+01 
  37778.9894     0.96591E+01 
  37811.2515     0.97020E+01 
  37843.5137     0.97447E+01 
  37875.7758     0.97874E+01 
  37908.0380     0.98301E+01 
  37940.3002     0.98727E+01 
  37972.5623     0.99152E+01 
  38004.8245     0.99576E+01 
  38037.0866     0.10000E+02 
  38069.3488     0.10042E+02 
  38101.6110     0.10084E+02 
  38133.8731     0.10127E+02 
  38166.1353     0.10169E+02 
  38198.3974     0.10211E+02 
  38230.6596     0.10252E+02 
  38262.9218     0.10294E+02 
  38295.1839     0.10336E+02 
  38327.4461     0.10378E+02 
  38359.7082     0.10419E+02 
  38391.9704     0.10460E+02 
  38424.2326     0.10502E+02 
  38456.4947     0.10543E+02 
  38488.7569     0.10584E+02 
  38521.0190     0.10625E+02 
  38553.2812     0.10666E+02 
  38585.5434     0.10707E+02 
  38617.8055     0.10747E+02 
  38650.0677     0.10788E+02 
  38682.3298     0.10828E+02 
  38714.5920     0.10869E+02 
  38746.8542     0.10909E+02 
  38779.1163     0.10949E+02 
  38811.3785     0.10989E+02 
  38843.6406     0.11029E+02 
  38875.9028     0.11068E+02 
  38908.1650     0.11108E+02 
  38940.4271     0.11147E+02 
  38972.6893     0.11187E+02 
  39004.9514     0.11226E+02 
  39037.2136     0.11265E+02 
  39069.4758     0.11304E+02 
  39101.7379     0.11342E+02 
  39134.0001     0.11381E+02 
  39166.2622     0.11419E+02 
  39198.5244     0.11458E+02 
  39230.7866     0.11496E+02 
  39263.0487     0.11534E+02 
  39295.3109     0.11571E+02 
  39327.5730     0.11609E+02 
  39359.8352     0.11647E+02 
  39392.0974     0.11684E+02 
  39424.3595     0.11721E+02 
  39456.6217     0.11758E+02 
  39488.8838     0.11795E+02 
  39521.1460     0.11832E+02 
  39553.4082     0.11868E+02 
  39585.6703     0.11904E+02 
  39617.9325     0.11940E+02 
  39650.1946     0.11976E+02 
  39682.4568     0.12012E+02 
  39714.7190     0.12048E+02 
  39746.9811     0.12083E+02 
  39779.2433     0.12118E+02 
  39811.5054     0.12153E+02 
  39843.7676     0.12188E+02 
  39876.0298     0.12223E+02 
  39908.2919     0.12257E+02 
  39940.5541     0.12292E+02 
  39972.8162     0.12326E+02 
  40005.0784     0.12360E+02 
  40037.3406     0.12393E+02 
  40069.6027     0.12427E+02 
  40101.8649     0.12460E+02 
  40134.1270     0.12493E+02 
  40166.3892     0.12526E+02 
  40198.6514     0.12559E+02 
  40230.9135     0.12591E+02 
  40263.1757     0.12623E+02 
  40295.4378     0.12655E+02 
  40327.7000     0.12687E+02 
  40359.9622     0.12719E+02 
  40392.2243     0.12750E+02 
  40424.4865     0.12781E+02 
  40456.7486     0.12812E+02 
  40489.0108     0.12843E+02 
  40521.2730     0.12873E+02 
  40553.5351     0.12904E+02 
  40585.7973     0.12934E+02 
  40618.0594     0.12963E+02 
  40650.3216     0.12993E+02 
  40682.5838     0.13022E+02 
  40714.8459     0.13051E+02 
  40747.1081     0.13080E+02 
  40779.3702     0.13109E+02 
  40811.6324     0.13137E+02 
  40843.8946     0.13165E+02 
  40876.1567     0.13193E+02 
  40908.4189     0.13221E+02 
  40940.6810     0.13248E+02 
  40972.9432     0.13275E+02 
  41005.2054     0.13302E+02 
  41037.4675     0.13329E+02 
  41069.7297     0.13355E+02 
  41101.9918     0.13382E+02 
  41134.2540     0.13408E+02 
  41166.5162     0.13433E+02 
  41198.7783     0.13459E+02 
  41231.0405     0.13484E+02 
  41263.3026     0.13509E+02 
  41295.5648     0.13533E+02 
  41327.8270     0.13558E+02 
  41360.0891     0.13582E+02 
  41392.3513     0.13606E+02 
  41424.6134     0.13629E+02 
  41456.8756     0.13652E+02 
  41489.1378     0.13675E+02 
  41521.3999     0.13698E+02 
  41553.6621     0.13721E+02 
  41585.9242     0.13743E+02 
  41618.1864     0.13765E+02 
  41650.4486     0.13787E+02 
  41682.7107     0.13808E+02 
  41714.9729     0.13829E+02 
  41747.2350     0.13850E+02 
  41779.4972     0.13871E+02 
  41811.7594     0.13891E+02 
  41844.0215     0.13911E+02 
  41876.2837     0.13931E+02 
  41908.5458     0.13950E+02 
  41940.8080     0.13969E+02 
  41973.0702     0.13988E+02 
  42005.3323     0.14007E+02 
  42037.5945     0.14025E+02 
  42069.8566     0.14043E+02 
  42102.1188     0.14061E+02 
  42134.3810     0.14079E+02 
  42166.6431     0.14096E+02 
  42198.9053     0.14113E+02 
  42231.1674     0.14130E+02 
  42263.4296     0.14146E+02 
  42295.6918     0.14162E+02 
  42327.9539     0.14178E+02 
  42360.2161     0.14193E+02 
  42392.4782     0.14208E+02 
  42424.7404     0.14223E+02 
  42457.0026     0.14238E+02 
  42489.2647     0.14252E+02 
  42521.5269     0.14266E+02 
  42553.7890     0.14280E+02 
  42586.0512     0.14293E+02 
  42618.3134     0.14306E+02 
  42650.5755     0.14319E+02 
  42682.8377     0.14332E+02 
  42715.0998     0.14344E+02 
  42747.3620     0.14356E+02 
  42779.6242     0.14368E+02 
  42811.8863     0.14379E+02 
  42844.1485     0.14390E+02 
  42876.4106     0.14401E+02 
  42908.6728     0.14411E+02 
  42940.9350     0.14421E+02 
  42973.1971     0.14431E+02 
  43005.4593     0.14441E+02 
  43037.7214     0.14450E+02 
  43069.9836     0.14459E+02 
  43102.2458     0.14468E+02 
  43134.5079     0.14476E+02 
  43166.7701     0.14484E+02 
  43199.0322     0.14492E+02 
  43231.2944     0.14499E+02 
  43263.5566     0.14506E+02 
  43295.8187     0.14513E+02 
  43328.0809     0.14520E+02 
  43360.3430     0.14526E+02 
  43392.6052     0.14532E+02 
  43424.8674     0.14538E+02 
  43457.1295     0.14543E+02 
  43489.3917     0.14548E+02 
  43521.6538     0.14553E+02 
  43553.9160     0.14557E+02 
  43586.1782     0.14561E+02 
  43618.4403     0.14565E+02 
  43650.7025     0.14569E+02 
  43682.9646     0.14572E+02 
  43715.2268     0.14575E+02 
  43747.4890     0.14577E+02 
  43779.7511     0.14580E+02 
  43812.0133     0.14582E+02 
  43844.2754     0.14583E+02 
  43876.5376     0.14585E+02 
  43908.7998     0.14586E+02 
  43941.0619     0.14587E+02 
  43973.3241     0.14587E+02 
  44005.5862     0.14587E+02 
  44037.8484     0.14587E+02 
  44070.1106     0.14587E+02 
  44102.3727     0.14586E+02 
  44134.6349     0.14585E+02 
  44166.8970     0.14584E+02 
  44199.1592     0.14582E+02 
  44231.4214     0.14580E+02 
  44263.6835     0.14578E+02 
  44295.9457     0.14576E+02 
  44328.2078     0.14573E+02 
  44360.4700     0.14570E+02 
  44392.7322     0.14567E+02 
  44424.9943     0.14563E+02 
  44457.2565     0.14559E+02 
  44489.5186     0.14555E+02 
  44521.7808     0.14550E+02 
  44554.0430     0.14545E+02 
  44586.3051     0.14540E+02 
  44618.5673     0.14535E+02 
  44650.8294     0.14529E+02 
  44683.0916     0.14523E+02 
  44715.3538     0.14517E+02 
  44747.6159     0.14510E+02 
  44779.8781     0.14503E+02 
  44812.1402     0.14496E+02 
  44844.4024     0.14489E+02 
  44876.6646     0.14481E+02 
  44908.9267     0.14473E+02 
  44941.1889     0.14465E+02 
  44973.4510     0.14456E+02 
  45005.7132     0.14447E+02 
  45037.9754     0.14438E+02 
  45070.2375     0.14429E+02 
  45102.4997     0.14419E+02 
  45134.7618     0.14409E+02 
  45167.0240     0.14399E+02 
  45199.2862     0.14388E+02 
  45231.5483     0.14377E+02 
  45263.8105     0.14366E+02 
  45296.0726     0.14355E+02 
  45328.3348     0.14343E+02 
  45360.5970     0.14331E+02 
  45392.8591     0.14319E+02 
  45425.1213     0.14306E+02 
  45457.3834     0.14294E+02 
  45489.6456     0.14281E+02 
  45521.9078     0.14267E+02 
  45554.1699     0.14254E+02 
  45586.4321     0.14240E+02 
  45618.6942     0.14226E+02 
  45650.9564     0.14211E+02 
  45683.2186     0.14197E+02 
  45715.4807     0.14182E+02 
  45747.7429     0.14167E+02 
  45780.0050     0.14151E+02 
  45812.2672     0.14136E+02 
  45844.5294     0.14120E+02 
  45876.7915     0.14104E+02 
  45909.0537     0.14087E+02 
  45941.3158     0.14070E+02 
  45973.5780     0.14053E+02 
  46005.8402     0.14036E+02 
  46038.1023     0.14019E+02 
  46070.3645     0.14001E+02 
  46102.6266     0.13983E+02 
  46134.8888     0.13965E+02 
  46167.1510     0.13946E+02 
  46199.4131     0.13928E+02 
  46231.6753     0.13909E+02 
  46263.9374     0.13890E+02 
  46296.1996     0.13870E+02 
  46328.4618     0.13850E+02 
  46360.7239     0.13830E+02 
  46392.9861     0.13810E+02 
  46425.2482     0.13790E+02 
  46457.5104     0.13769E+02 
  46489.7726     0.13748E+02 
  46522.0347     0.13727E+02 
  46554.2969     0.13706E+02 
  46586.5590     0.13684E+02 
  46618.8212     0.13663E+02 
  46651.0834     0.13641E+02 
  46683.3455     0.13618E+02 
  46715.6077     0.13596E+02 
  46747.8698     0.13573E+02 
  46780.1320     0.13550E+02 
  46812.3942     0.13527E+02 
  46844.6563     0.13504E+02 
  46876.9185     0.13480E+02 
  46909.1806     0.13456E+02 
  46941.4428     0.13432E+02 
  46973.7050     0.13408E+02 
  47005.9671     0.13384E+02 
  47038.2293     0.13359E+02 
  47070.4914     0.13334E+02 
  47102.7536     0.13309E+02 
  47135.0158     0.13284E+02 
  47167.2779     0.13259E+02 
  47199.5401     0.13233E+02 
  47231.8022     0.13207E+02 
  47264.0644     0.13181E+02 
  47296.3266     0.13155E+02 
  47328.5887     0.13128E+02 
  47360.8509     0.13101E+02 
  47393.1130     0.13075E+02 
  47425.3752     0.13048E+02 
  47457.6374     0.13020E+02 
  47489.8995     0.12993E+02 
  47522.1617     0.12965E+02 
  47554.4238     0.12937E+02 
  47586.6860     0.12909E+02 
  47618.9482     0.12881E+02 
  47651.2103     0.12853E+02 
  47683.4725     0.12824E+02 
  47715.7346     0.12796E+02 
  47747.9968     0.12767E+02 
  47780.2590     0.12738E+02 
  47812.5211     0.12708E+02 
  47844.7833     0.12679E+02 
  47877.0454     0.12649E+02 
  47909.3076     0.12620E+02 
  47941.5698     0.12590E+02 
  47973.8319     0.12560E+02 
  48006.0941     0.12529E+02 
  48038.3562     0.12499E+02 
  48070.6184     0.12468E+02 
  48102.8806     0.12438E+02 
  48135.1427     0.12407E+02 
  48167.4049     0.12376E+02 
  48199.6670     0.12344E+02 
  48231.9292     0.12313E+02 
  48264.1914     0.12281E+02 
  48296.4535     0.12250E+02 
  48328.7157     0.12218E+02 
  48360.9778     0.12186E+02 
  48393.2400     0.12154E+02 
  48425.5022     0.12122E+02 
  48457.7643     0.12089E+02 
  48490.0265     0.12057E+02 
  48522.2886     0.12024E+02 
  48554.5508     0.11991E+02 
  48586.8130     0.11958E+02 
  48619.0751     0.11925E+02 
  48651.3373     0.11892E+02 
  48683.5994     0.11859E+02 
  48715.8616     0.11825E+02 
  48748.1238     0.11791E+02 
  48780.3859     0.11758E+02 
  48812.6481     0.11724E+02 
  48844.9102     0.11690E+02 
  48877.1724     0.11656E+02 
  48909.4346     0.11622E+02 
  48941.6967     0.11587E+02 
  48973.9589     0.11553E+02 
  49006.2210     0.11518E+02 
  49038.4832     0.11483E+02 
  49070.7454     0.11449E+02 
  49103.0075     0.11414E+02 
  49135.2697     0.11379E+02 
  49167.5318     0.11344E+02 
  49199.7940     0.11308E+02 
  49232.0562     0.11273E+02 
  49264.3183     0.11238E+02 
  49296.5805     0.11202E+02 
  49328.8426     0.11166E+02 
  49361.1048     0.11131E+02 
  49393.3670     0.11095E+02 
  49425.6291     0.11059E+02 
  49457.8913     0.11023E+02 
  49490.1534     0.10987E+02 
  49522.4156     0.10951E+02 
  49554.6778     0.10914E+02 
  49586.9399     0.10878E+02 
  49619.2021     0.10842E+02 
  49651.4642     0.10805E+02 
  49683.7264     0.10768E+02 
  49715.9886     0.10732E+02 
  49748.2507     0.10695E+02 
  49780.5129     0.10658E+02 
  49812.7750     0.10621E+02 
  49845.0372     0.10584E+02 
  49877.2994     0.10547E+02 
  49909.5615     0.10510E+02 
  49941.8237     0.10473E+02 
  49974.0858     0.10436E+02 
  50006.3480     0.10398E+02 
  50038.6102     0.10361E+02 
  50070.8723     0.10323E+02 
  50103.1345     0.10286E+02 
  50135.3966     0.10248E+02 
  50167.6588     0.10211E+02 
  50199.9210     0.10173E+02 
  50232.1831     0.10135E+02 
  50264.4453     0.10097E+02 
  50296.7074     0.10059E+02 
  50328.9696     0.10021E+02 
  50361.2318     0.99835E+01 
  50393.4939     0.99455E+01 
  50425.7561     0.99074E+01 
  50458.0182     0.98693E+01 
  50490.2804     0.98312E+01 
  50522.5426     0.97930E+01 
  50554.8047     0.97548E+01 
  50587.0669     0.97165E+01 
  50619.3290     0.96782E+01 
  50651.5912     0.96399E+01 
  50683.8534     0.96015E+01 
  50716.1155     0.95631E+01 
  50748.3777     0.95246E+01 
  50780.6398     0.94862E+01 
  50812.9020     0.94477E+01 
  50845.1642     0.94091E+01 
  50877.4263     0.93706E+01 
  50909.6885     0.93320E+01 
  50941.9506     0.92934E+01 
  50974.2128     0.92548E+01 
  51006.4750     0.92161E+01 
  51038.7371     0.91775E+01 
  51070.9993     0.91388E+01 
  51103.2614     0.91001E+01 
  51135.5236     0.90614E+01 
  51167.7858     0.90227E+01 
  51200.0479     0.89839E+01 
  51232.3101     0.89452E+01 
  51264.5722     0.89064E+01 
  51296.8344     0.88676E+01 
  51329.0966     0.88289E+01 
  51361.3587     0.87901E+01 
  51393.6209     0.87513E+01 
  51425.8830     0.87125E+01 
  51458.1452     0.86737E+01 
  51490.4074     0.86349E+01 
  51522.6695     0.85961E+01 
  51554.9317     0.85573E+01 
  51587.1938     0.85185E+01 
  51619.4560     0.84797E+01 
  51651.7182     0.84410E+01 
  51683.9803     0.84022E+01 
  51716.2425     0.83634E+01 
  51748.5046     0.83247E+01 
  51780.7668     0.82859E+01 
  51813.0290     0.82472E+01 
  51845.2911     0.82085E+01 
  51877.5533     0.81698E+01 
  51909.8154     0.81311E+01 
  51942.0776     0.80924E+01 
  51974.3398     0.80537E+01 
  52006.6019     0.80151E+01 
  52038.8641     0.79765E+01 
  52071.1262     0.79379E+01 
  52103.3884     0.78993E+01 
  52135.6506     0.78607E+01 
  52167.9127     0.78222E+01 
  52200.1749     0.77837E+01 
  52232.4370     0.77452E+01 
  52264.6992     0.77068E+01 
  52296.9614     0.76683E+01 
  52329.2235     0.76300E+01 
  52361.4857     0.75916E+01 
  52393.7478     0.75533E+01 
  52426.0100     0.75150E+01 
  52458.2722     0.74767E+01 
  52490.5343     0.74385E+01 
  52522.7965     0.74003E+01 
  52555.0586     0.73621E+01 
  52587.3208     0.73240E+01 
  52619.5830     0.72859E+01 
  52651.8451     0.72479E+01 
  52684.1073     0.72099E+01 
  52716.3694     0.71719E+01 
  52748.6316     0.71340E+01 
  52780.8938     0.70962E+01 
  52813.1559     0.70583E+01 
  52845.4181     0.70205E+01 
  52877.6802     0.69828E+01 
  52909.9424     0.69451E+01 
  52942.2046     0.69075E+01 
  52974.4667     0.68699E+01 
  53006.7289     0.68324E+01 
  53038.9910     0.67949E+01 
  53071.2532     0.67575E+01 
  53103.5154     0.67201E+01 
  53135.7775     0.66828E+01 
  53168.0397     0.66455E+01 
  53200.3018     0.66083E+01 
  53232.5640     0.65711E+01 
  53264.8262     0.65340E+01 
  53297.0883     0.64970E+01 
  53329.3505     0.64600E+01 
  53361.6126     0.64231E+01 
  53393.8748     0.63862E+01 
  53426.1370     0.63494E+01 
  53458.3991     0.63127E+01 
  53490.6613     0.62760E+01 
  53522.9234     0.62394E+01 
  53555.1856     0.62029E+01 
  53587.4478     0.61664E+01 
  53619.7099     0.61300E+01 
  53651.9721     0.60937E+01 
  53684.2342     0.60574E+01 
  53716.4964     0.60212E+01 
  53748.7586     0.59850E+01 
  53781.0207     0.59490E+01 
  53813.2829     0.59130E+01 
  53845.5450     0.58771E+01 
  53877.8072     0.58412E+01 
  53910.0694     0.58054E+01 
  53942.3315     0.57697E+01 
  53974.5937     0.57341E+01 
  54006.8558     0.56986E+01 
  54039.1180     0.56631E+01 
  54071.3802     0.56277E+01 
  54103.6423     0.55924E+01 
  54135.9045     0.55571E+01 
  54168.1666     0.55219E+01 
  54200.4288     0.54869E+01 
  54232.6910     0.54518E+01 
  54264.9531     0.54169E+01 
  54297.2153     0.53821E+01 
  54329.4774     0.53473E+01 
  54361.7396     0.53126E+01 
  54394.0018     0.52780E+01 
  54426.2639     0.52435E+01 
  54458.5261     0.52091E+01 
  54490.7882     0.51747E+01 
  54523.0504     0.51405E+01 
  54555.3126     0.51063E+01 
  54587.5747     0.50722E+01 
  54619.8369     0.50382E+01 
  54652.0990     0.50043E+01 
  54684.3612     0.49705E+01 
  54716.6234     0.49367E+01 
  54748.8855     0.49031E+01 
  54781.1477     0.48695E+01 
  54813.4098     0.48360E+01 
  54845.6720     0.48027E+01 
  54877.9342     0.47694E+01 
  54910.1963     0.47362E+01 
  54942.4585     0.47031E+01 
  54974.7206     0.46701E+01 
  55006.9828     0.46371E+01 
  55039.2450     0.46043E+01 
  55071.5071     0.45716E+01 
  55103.7693     0.45389E+01 
  55136.0314     0.45064E+01 
  55168.2936     0.44740E+01 
  55200.5558     0.44416E+01 
  55232.8179     0.44094E+01 
  55265.0801     0.43772E+01 
  55297.3422     0.43451E+01 
  55329.6044     0.43132E+01 
  55361.8666     0.42813E+01 
  55394.1287     0.42495E+01 
  55426.3909     0.42179E+01 
  55458.6530     0.41863E+01 
  55490.9152     0.41548E+01 
  55523.1774     0.41235E+01 
  55555.4395     0.40922E+01 
  55587.7017     0.40610E+01 
  55619.9638     0.40300E+01 
  55652.2260     0.39990E+01 
  55684.4882     0.39681E+01 
  55716.7503     0.39374E+01 
  55749.0125     0.39067E+01 
  55781.2746     0.38762E+01 
  55813.5368     0.38457E+01 
  55845.7990     0.38154E+01 
  55878.0611     0.37851E+01 
  55910.3233     0.37550E+01 
  55942.5854     0.37250E+01 
  55974.8476     0.36950E+01 
  56007.1098     0.36652E+01 
  56039.3719     0.36355E+01 
  56071.6341     0.36059E+01 
  56103.8962     0.35764E+01 
  56136.1584     0.35470E+01 
  56168.4206     0.35177E+01 
  56200.6827     0.34885E+01 
  56232.9449     0.34594E+01 
  56265.2070     0.34305E+01 
  56297.4692     0.34016E+01 
  56329.7314     0.33728E+01 
  56361.9935     0.33442E+01 
  56394.2557     0.33157E+01 
  56426.5178     0.32873E+01 
  56458.7800     0.32589E+01 
  56491.0422     0.32307E+01 
  56523.3043     0.32026E+01 
  56555.5665     0.31747E+01 
  56587.8286     0.31468E+01 
  56620.0908     0.31190E+01 
  56652.3530     0.30914E+01 
  56684.6151     0.30639E+01 
  56716.8773     0.30364E+01 
  56749.1394     0.30091E+01 
  56781.4016     0.29819E+01 
  56813.6638     0.29548E+01 
  56845.9259     0.29279E+01 
  56878.1881     0.29010E+01 
  56910.4502     0.28743E+01 
  56942.7124     0.28476E+01 
  56974.9746     0.28211E+01 
  57007.2367     0.27947E+01 
  57039.4989     0.27684E+01 
  57071.7610     0.27423E+01 
  57104.0232     0.27162E+01 
  57136.2854     0.26903E+01 
  57168.5475     0.26644E+01 
  57200.8097     0.26387E+01 
  57233.0718     0.26131E+01 
  57265.3340     0.25877E+01 
  57297.5962     0.25623E+01 
  57329.8583     0.25371E+01 
  57362.1205     0.25120E+01 
  57394.3826     0.24870E+01 
  57426.6448     0.24621E+01 
  57458.9070     0.24373E+01 
  57491.1691     0.24127E+01 
  57523.4313     0.23881E+01 
  57555.6934     0.23637E+01 
  57587.9556     0.23394E+01 
  57620.2178     0.23153E+01 
  57652.4799     0.22912E+01 
  57684.7421     0.22673E+01 
  57717.0042     0.22435E+01 
  57749.2664     0.22198E+01 
  57781.5286     0.21962E+01 
  57813.7907     0.21728E+01 
  57846.0529     0.21495E+01 
  57878.3150     0.21263E+01 
  57910.5772     0.21032E+01 
  57942.8394     0.20803E+01 
  57975.1015     0.20574E+01 
  58007.3637     0.20347E+01 
  58039.6258     0.20122E+01 
  58071.8880     0.19897E+01 
  58104.1502     0.19674E+01 
  58136.4123     0.19452E+01 
  58168.6745     0.19231E+01 
  58200.9366     0.19011E+01 
  58233.1988     0.18793E+01 
  58265.4610     0.18576E+01 
  58297.7231     0.18361E+01 
  58329.9853     0.18146E+01 
  58362.2474     0.17933E+01 
  58394.5096     0.17721E+01 
  58426.7718     0.17511E+01 
  58459.0339     0.17301E+01 
  58491.2961     0.17093E+01 
  58523.5582     0.16887E+01 
  58555.8204     0.16681E+01 
  58588.0826     0.16477E+01 
  58620.3447     0.16274E+01 
  58652.6069     0.16073E+01 
  58684.8690     0.15873E+01 
  58717.1312     0.15674E+01 
  58749.3934     0.15477E+01 
  58781.6555     0.15281E+01 
  58813.9177     0.15086E+01 
  58846.1798     0.14892E+01 
  58878.4420     0.14700E+01 
  58910.7042     0.14510E+01 
  58942.9663     0.14320E+01 
  58975.2285     0.14133E+01 
  59007.4906     0.13946E+01 
  59039.7528     0.13761E+01 
  59072.0150     0.13577E+01 
  59104.2771     0.13395E+01 
  59136.5393     0.13214E+01 
  59168.8014     0.13034E+01 
  59201.0636     0.12856E+01 
  59233.3258     0.12679E+01 
  59265.5879     0.12504E+01 
  59297.8501     0.12330E+01 
  59330.1122     0.12158E+01 
  59362.3744     0.11987E+01 
  59394.6366     0.11817E+01 
  59426.8987     0.11649E+01 
  59459.1609     0.11482E+01 
  59491.4230     0.11317E+01 
  59523.6852     0.11154E+01 
  59555.9474     0.10992E+01 
  59588.2095     0.10831E+01 
  59620.4717     0.10672E+01 
  59652.7338     0.10514E+01 
  59684.9960     0.10358E+01 
  59717.2582     0.10204E+01 
  59749.5203     0.10051E+01 
  59781.7825     0.98993E+00 
  59814.0446     0.97495E+00 
  59846.3068     0.96012E+00 
  59878.5690     0.94545E+00 
  59910.8311     0.93094E+00 
  59943.0933     0.91659E+00 
  59975.3554     0.90240E+00 
  60007.6176     0.88838E+00 
  60039.8798     0.87452E+00 
  60072.1419     0.86082E+00 
  60104.4041     0.84729E+00 
  60136.6662     0.83393E+00 
  60168.9284     0.82073E+00 
  60201.1906     0.80770E+00 
  60233.4527     0.79484E+00 
  60265.7149     0.78216E+00 
  60297.9770     0.76965E+00 
  60330.2392     0.75731E+00 
  60362.5014     0.74515E+00 
  60394.7635     0.73316E+00 
  60427.0257     0.72135E+00 
  60459.2878     0.70972E+00 
  60491.5500     0.69827E+00 
  60523.8122     0.68700E+00 
  60556.0743     0.67592E+00 
  60588.3365     0.66502E+00 
  60620.5986     0.65431E+00 
  60652.8608     0.64378E+00 
  60685.1230     0.63345E+00 
  60717.3851     0.62330E+00 
  60749.6473     0.61335E+00 
  60781.9094     0.60359E+00 
  60814.1716     0.59403E+00 
  60846.4338     0.58467E+00 
  60878.6959     0.57550E+00 
  60910.9581     0.56653E+00 
  60943.2202     0.55777E+00 
  60975.4824     0.54921E+00 
  61007.7446     0.54086E+00 
  61040.0067     0.53271E+00 
  61072.2689     0.52478E+00 
  61104.5310     0.51705E+00 
  61136.7932     0.50954E+00 
  61169.0554     0.50224E+00 
  61201.3175     0.49517E+00 
  61233.5797     0.48831E+00 
  61265.8418     0.48167E+00 
  61298.1040     0.47525E+00 
  61330.3662     0.46906E+00 
  61362.6283     0.46310E+00 
  61394.8905     0.45737E+00 
  61427.1526     0.45187E+00 
  61459.4148     0.44660E+00 
  61491.6770     0.44157E+00 
  61523.9391     0.43678E+00 
  61556.2013     0.43223E+00 
  61588.4634     0.42793E+00 
  61620.7256     0.42387E+00 
  61652.9878     0.42006E+00 
  61685.2499     0.41650E+00 
  61717.5121     0.41319E+00 
  61749.7742     0.41014E+00 
  61782.0364     0.40734E+00 
  61814.2986     0.40481E+00 
  61846.5607     0.40254E+00 
  61878.8229     0.40054E+00 
  61911.0850     0.39881E+00 
  61943.3472     0.39735E+00 
  61975.6094     0.39616E+00 
  62007.8715     0.39526E+00 
  62040.1337     0.39463E+00 
  62072.3958     0.39429E+00 
  62104.6580     0.39423E+00 
  62136.9202     0.39446E+00 
  62169.1823     0.39499E+00 
  62201.4445     0.39581E+00 
  62233.7066     0.39693E+00 
  62265.9688     0.39836E+00 
  62298.2310     0.40009E+00 
  62330.4931     0.40212E+00 
  62362.7553     0.40447E+00 
  62395.0174     0.40714E+00 
  62427.2796     0.41013E+00 
  62459.5418     0.41343E+00 
  62491.8039     0.41707E+00 
  62524.0661     0.42103E+00 
  62556.3282     0.42532E+00 
  62588.5904     0.42996E+00 
  62620.8526     0.43493E+00 
  62653.1147     0.44025E+00 
  62685.3769     0.44592E+00 
  62717.6390     0.45193E+00 
  62749.9012     0.45831E+00 
  62782.1634     0.46504E+00 
  62814.4255     0.47214E+00 
  62846.6877     0.47961E+00 
  62878.9498     0.48744E+00 
  62911.2120     0.49566E+00 
  62943.4742     0.50425E+00 
  62975.7363     0.51323E+00 
  63007.9985     0.52260E+00 
  63040.2606     0.53236E+00 
  63072.5228     0.54252E+00 
  63104.7850     0.55308E+00 
  63137.0471     0.56405E+00 
  63169.3093     0.57543E+00 
  63201.5714     0.58723E+00 
  63233.8336     0.59944E+00 
  63266.0958     0.61209E+00 
  63298.3579     0.62516E+00 
  63330.6201     0.63867E+00 
  63362.8822     0.65261E+00 
  63395.1444     0.66700E+00 
  63427.4066     0.68185E+00 
  63459.6687     0.69714E+00 
  63491.9309     0.71290E+00 
  63524.1930     0.72912E+00 
  63556.4552     0.74582E+00 
  63588.7174     0.76298E+00 
  63620.9795     0.78063E+00 
  63653.2417     0.79877E+00 
  63685.5038     0.81740E+00 
  63717.7660     0.83652E+00 
  63750.0282     0.85615E+00 
  63782.2903     0.87629E+00 
  63814.5525     0.89694E+00 
  63846.8146     0.91812E+00 
  63879.0768     0.93981E+00 
  63911.3390     0.96205E+00 
  63943.6011     0.98481E+00 
  63975.8633     0.10081E+01 
  64008.1254     0.10320E+01 
  64040.3876     0.10564E+01 
  64072.6498     0.10814E+01 
  64104.9119     0.11069E+01 
  64137.1741     0.11331E+01 
  64169.4362     0.11598E+01 
  64201.6984     0.11871E+01 
  64233.9606     0.12149E+01 
  64266.2227     0.12434E+01 
  64298.4849     0.12725E+01 
  64330.7470     0.13022E+01 
  64363.0092     0.13326E+01 
  64395.2714     0.13635E+01 
  64427.5335     0.13951E+01 
  64459.7957     0.14273E+01 
  64492.0578     0.14602E+01 
  64524.3200     0.14937E+01 
  64556.5822     0.15279E+01 
  64588.8443     0.15628E+01 
  64621.1065     0.15983E+01 
  64653.3686     0.16346E+01 
  64685.6308     0.16715E+01 
  64717.8930     0.17091E+01 
  64750.1551     0.17474E+01 
  64782.4173     0.17864E+01 
  64814.6794     0.18262E+01 
  64846.9416     0.18667E+01 
  64879.2038     0.19079E+01 
  64911.4659     0.19499E+01 
  64943.7281     0.19926E+01 
  64975.9902     0.20360E+01 
  65008.2524     0.20803E+01 
  65040.5146     0.21253E+01 
  65072.7767     0.21711E+01 
  65105.0389     0.22177E+01 
  65137.3010     0.22651E+01 
  65169.5632     0.23133E+01 
  65201.8254     0.23623E+01 
  65234.0875     0.24122E+01 
  65266.3497     0.24628E+01 
  65298.6118     0.25144E+01 
  65330.8740     0.25667E+01 
  65363.1362     0.26200E+01 
  65395.3983     0.26741E+01 
  65427.6605     0.27290E+01 
  65459.9226     0.27849E+01 
  65492.1848     0.28417E+01 
  65524.4470     0.28993E+01 
  65556.7091     0.29579E+01 
  65588.9713     0.30174E+01 
  65621.2334     0.30778E+01 
  65653.4956     0.31392E+01 
  65685.7578     0.32015E+01 
  65718.0199     0.32647E+01 
  65750.2821     0.33290E+01 
  65782.5442     0.33942E+01 
  65814.8064     0.34604E+01 
  65847.0686     0.35276E+01 
  65879.3307     0.35958E+01 
  65911.5929     0.36650E+01 
  65943.8550     0.37352E+01 
  65976.1172     0.38065E+01 
  66008.3794     0.38788E+01 
  66040.6415     0.39522E+01 
  66072.9037     0.40266E+01 
  66105.1658     0.41021E+01 
  66137.4280     0.41787E+01 
  66169.6902     0.42564E+01 
  66201.9523     0.43352E+01 
  66234.2145     0.44151E+01 
  66266.4766     0.44961E+01 
  66298.7388     0.45783E+01 
  66331.0010     0.46616E+01 
  66363.2631     0.47460E+01 
  66395.5253     0.48317E+01 
  66427.7874     0.49185E+01 
  66460.0496     0.50064E+01 
  66492.3118     0.50956E+01 
  66524.5739     0.51860E+01 
  66556.8361     0.52776E+01 
  66589.0982     0.53704E+01 
  66621.3604     0.54645E+01 
  66653.6226     0.55598E+01 
  66685.8847     0.56564E+01 
  66718.1469     0.57543E+01 
  66750.4090     0.58534E+01 
  66782.6712     0.59538E+01 
  66814.9334     0.60556E+01 
  66847.1955     0.61586E+01 
  66879.4577     0.62630E+01 
  66911.7198     0.63687E+01 
  66943.9820     0.64757E+01 
  66976.2442     0.65841E+01 
  67008.5063     0.66939E+01 
  67040.7685     0.68051E+01 
  67073.0306     0.69176E+01 
  67105.2928     0.70316E+01 
  67137.5550     0.71470E+01 
  67169.8171     0.72638E+01 
  67202.0793     0.73820E+01 
  67234.3414     0.75017E+01 
  67266.6036     0.76228E+01 
  67298.8658     0.77454E+01 
  67331.1279     0.78695E+01 
  67363.3901     0.79951E+01 
  67395.6522     0.81222E+01 
  67427.9144     0.82508E+01 
  67460.1766     0.83809E+01 
  67492.4387     0.85126E+01 
  67524.7009     0.86458E+01 
  67556.9630     0.87806E+01 
  67589.2252     0.89170E+01 
  67621.4874     0.90549E+01 
  67653.7495     0.91945E+01 
  67686.0117     0.93356E+01 
  67718.2738     0.94784E+01 
  67750.5360     0.96228E+01 
  67782.7982     0.97689E+01 
  67815.0603     0.99166E+01 
  67847.3225     0.10066E+02 
  67879.5846     0.10217E+02 
  67911.8468     0.10370E+02 
  67944.1090     0.10524E+02 
  67976.3711     0.10680E+02 
  68008.6333     0.10838E+02 
  68040.8954     0.10998E+02 
  68073.1576     0.11159E+02 
  68105.4198     0.11322E+02 
  68137.6819     0.11487E+02 
  68169.9441     0.11654E+02 
  68202.2062     0.11822E+02 
  68234.4684     0.11993E+02 
  68266.7306     0.12165E+02 
  68298.9927     0.12338E+02 
  68331.2549     0.12514E+02 
  68363.5170     0.12692E+02 
  68395.7792     0.12871E+02 
  68428.0414     0.13053E+02 
  68460.3035     0.13236E+02 
  68492.5657     0.13421E+02 
  68524.8278     0.13608E+02 
  68557.0900     0.13797E+02 
  68589.3522     0.13988E+02 
  68621.6143     0.14181E+02 
  68653.8765     0.14375E+02 
  68686.1386     0.14572E+02 
  68718.4008     0.14771E+02 
  68750.6630     0.14971E+02 
  68782.9251     0.15174E+02 
  68815.1873     0.15379E+02 
  68847.4494     0.15585E+02 
  68879.7116     0.15794E+02 
  68911.9738     0.16005E+02 
  68944.2359     0.16218E+02 
  68976.4981     0.16433E+02 
  69008.7602     0.16650E+02 
  69041.0224     0.16869E+02 
  69073.2846     0.17090E+02 
  69105.5467     0.17313E+02 
  69137.8089     0.17538E+02 
  69170.0710     0.17766E+02 
  69202.3332     0.17995E+02 
  69234.5954     0.18227E+02 
  69266.8575     0.18461E+02 
  69299.1197     0.18697E+02 
  69331.3818     0.18935E+02 
  69363.6440     0.19176E+02 
  69395.9062     0.19419E+02 
  69428.1683     0.19663E+02 
  69460.4305     0.19910E+02 
  69492.6926     0.20160E+02 
  69524.9548     0.20411E+02 
  69557.2170     0.20665E+02 
  69589.4791     0.20921E+02 
  69621.7413     0.21179E+02 
  69654.0034     0.21440E+02 
  69686.2656     0.21703E+02 
  69718.5278     0.21968E+02 
  69750.7899     0.22235E+02 
  69783.0521     0.22505E+02 
  69815.3142     0.22777E+02 
  69847.5764     0.23051E+02 
  69879.8386     0.23328E+02 
  69912.1007     0.23607E+02 
  69944.3629     0.23889E+02 
  69976.6250     0.24172E+02 
  70008.8872     0.24458E+02 
  70041.1494     0.24747E+02 
  70073.4115     0.25038E+02 
  70105.6737     0.25331E+02 
  70137.9358     0.25627E+02 
  70170.1980     0.25925E+02 
  70202.4602     0.26225E+02 
  70234.7223     0.26528E+02 
  70266.9845     0.26834E+02 
  70299.2466     0.27141E+02 
  70331.5088     0.27452E+02 
  70363.7710     0.27764E+02 
  70396.0331     0.28080E+02 
  70428.2953     0.28397E+02 
  70460.5574     0.28717E+02 
  70492.8196     0.29040E+02 
  70525.0818     0.29365E+02 
  70557.3439     0.29692E+02 
  70589.6061     0.30022E+02 
  70621.8682     0.30355E+02 
  70654.1304     0.30690E+02 
  70686.3926     0.31027E+02 
  70718.6547     0.31367E+02 
  70750.9169     0.31710E+02 
  70783.1790     0.32055E+02 
  70815.4412     0.32403E+02 
  70847.7034     0.32753E+02 
  70879.9655     0.33106E+02 
  70912.2277     0.33461E+02 
  70944.4898     0.33819E+02 
  70976.7520     0.34179E+02 
  71009.0142     0.34542E+02 
  71041.2763     0.34908E+02 
  71073.5385     0.35276E+02 
  71105.8006     0.35646E+02 
  71138.0628     0.36019E+02 
  71170.3250     0.36395E+02 
  71202.5871     0.36773E+02 
  71234.8493     0.37154E+02 
  71267.1114     0.37538E+02 
  71299.3736     0.37924E+02 
  71331.6358     0.38313E+02 
  71363.8979     0.38704E+02 
  71396.1601     0.39098E+02 
  71428.4222     0.39494E+02 
  71460.6844     0.39893E+02 
  71492.9466     0.40295E+02 
  71525.2087     0.40699E+02 
  71557.4709     0.41106E+02 
  71589.7330     0.41515E+02 
  71621.9952     0.41927E+02 
  71654.2574     0.42342E+02 
  71686.5195     0.42759E+02 
  71718.7817     0.43179E+02 
  71751.0438     0.43602E+02 
  71783.3060     0.44027E+02 
  71815.5682     0.44454E+02 
  71847.8303     0.44884E+02 
  71880.0925     0.45317E+02 
  71912.3546     0.45753E+02 
  71944.6168     0.46191E+02 
  71976.8790     0.46631E+02 
  72009.1411     0.47074E+02 
  72041.4033     0.47520E+02 
  72073.6654     0.47968E+02 
  72105.9276     0.48419E+02 
  72138.1898     0.48873E+02 
  72170.4519     0.49329E+02 
  72202.7141     0.49788E+02 
  72234.9762     0.50249E+02 
  72267.2384     0.50713E+02 
  72299.5006     0.51179E+02 
  72331.7627     0.51648E+02 
  72364.0249     0.52119E+02 
  72396.2870     0.52593E+02 
  72428.5492     0.53070E+02 
  72460.8114     0.53549E+02 
  72493.0735     0.54030E+02 
  72525.3357     0.54515E+02 
  72557.5978     0.55001E+02 
  72589.8600     0.55490E+02 
