  32262.1600     0.12089E+00 
  32294.4222     0.12138E+00 
  32326.6843     0.12188E+00 
  32358.9465     0.12238E+00 
  32391.2086     0.12288E+00 
  32423.4708     0.12338E+00 
  32455.7330     0.12388E+00 
  32487.9951     0.12439E+00 
  32520.2573     0.12489E+00 
  32552.5194     0.12540E+00 
  32584.7816     0.12590E+00 
  32617.0438     0.12641E+00 
  32649.3059     0.12692E+00 
  32681.5681     0.12743E+00 
  32713.8302     0.12794E+00 
  32746.0924     0.12846E+00 
  32778.3546     0.12897E+00 
  32810.6167     0.12949E+00 
  32842.8789     0.13000E+00 
  32875.1410     0.13052E+00 
  32907.4032     0.13104E+00 
  32939.6654     0.13156E+00 
  32971.9275     0.13208E+00 
  33004.1897     0.13261E+00 
  33036.4518     0.13313E+00 
  33068.7140     0.13365E+00 
  33100.9762     0.13418E+00 
  33133.2383     0.13471E+00 
  33165.5005     0.13524E+00 
  33197.7626     0.13577E+00 
  33230.0248     0.13630E+00 
  33262.2870     0.13683E+00 
  33294.5491     0.13736E+00 
  33326.8113     0.13790E+00 
  33359.0734     0.13843E+00 
  33391.3356     0.13897E+00 
  33423.5978     0.13951E+00 
  33455.8599     0.14004E+00 
  33488.1221     0.14058E+00 
  33520.3842     0.14113E+00 
  33552.6464     0.14167E+00 
  33584.9086     0.14221E+00 
  33617.1707     0.14276E+00 
  33649.4329     0.14330E+00 
  33681.6950     0.14385E+00 
  33713.9572     0.14440E+00 
  33746.2194     0.14495E+00 
  33778.4815     0.14550E+00 
  33810.7437     0.14605E+00 
  33843.0058     0.14660E+00 
  33875.2680     0.14715E+00 
  33907.5302     0.14771E+00 
  33939.7923     0.14827E+00 
  33972.0545     0.14882E+00 
  34004.3166     0.14938E+00 
  34036.5788     0.14994E+00 
  34068.8410     0.15050E+00 
  34101.1031     0.15106E+00 
  34133.3653     0.15163E+00 
  34165.6274     0.15219E+00 
  34197.8896     0.15275E+00 
  34230.1518     0.15332E+00 
  34262.4139     0.15389E+00 
  34294.6761     0.15446E+00 
  34326.9382     0.15503E+00 
  34359.2004     0.15560E+00 
  34391.4626     0.15617E+00 
  34423.7247     0.15674E+00 
  34455.9869     0.15731E+00 
  34488.2490     0.15789E+00 
  34520.5112     0.15847E+00 
  34552.7734     0.15904E+00 
  34585.0355     0.15962E+00 
  34617.2977     0.16020E+00 
  34649.5598     0.16078E+00 
  34681.8220     0.16136E+00 
  34714.0842     0.16195E+00 
  34746.3463     0.16253E+00 
  34778.6085     0.16311E+00 
  34810.8706     0.16370E+00 
  34843.1328     0.16429E+00 
  34875.3950     0.16487E+00 
  34907.6571     0.16546E+00 
  34939.9193     0.16605E+00 
  34972.1814     0.16665E+00 
  35004.4436     0.16724E+00 
  35036.7058     0.16783E+00 
  35068.9679     0.16843E+00 
  35101.2301     0.16902E+00 
  35133.4922     0.16962E+00 
  35165.7544     0.17022E+00 
  35198.0166     0.17081E+00 
  35230.2787     0.17141E+00 
  35262.5409     0.17201E+00 
  35294.8030     0.17262E+00 
  35327.0652     0.17322E+00 
  35359.3274     0.17382E+00 
  35391.5895     0.17443E+00 
  35423.8517     0.17503E+00 
  35456.1138     0.17564E+00 
  35488.3760     0.17625E+00 
  35520.6382     0.17686E+00 
  35552.9003     0.17747E+00 
  35585.1625     0.17808E+00 
  35617.4246     0.17869E+00 
  35649.6868     0.17931E+00 
  35681.9490     0.17992E+00 
  35714.2111     0.18053E+00 
  35746.4733     0.18115E+00 
  35778.7354     0.18177E+00 
  35810.9976     0.18239E+00 
  35843.2598     0.18301E+00 
  35875.5219     0.18363E+00 
  35907.7841     0.18425E+00 
  35940.0462     0.18487E+00 
  35972.3084     0.18549E+00 
  36004.5706     0.18612E+00 
  36036.8327     0.18674E+00 
  36069.0949     0.18737E+00 
  36101.3570     0.18800E+00 
  36133.6192     0.18862E+00 
  36165.8814     0.18925E+00 
  36198.1435     0.18988E+00 
  36230.4057     0.19052E+00 
  36262.6678     0.19115E+00 
  36294.9300     0.19178E+00 
  36327.1922     0.19242E+00 
  36359.4543     0.19305E+00 
  36391.7165     0.19369E+00 
  36423.9786     0.19432E+00 
  36456.2408     0.19496E+00 
  36488.5030     0.19560E+00 
  36520.7651     0.19624E+00 
  36553.0273     0.19688E+00 
  36585.2894     0.19752E+00 
  36617.5516     0.19817E+00 
  36649.8138     0.19881E+00 
  36682.0759     0.19946E+00 
  36714.3381     0.20010E+00 
  36746.6002     0.20075E+00 
  36778.8624     0.20140E+00 
  36811.1246     0.20204E+00 
  36843.3867     0.20269E+00 
  36875.6489     0.20334E+00 
  36907.9110     0.20400E+00 
  36940.1732     0.20465E+00 
  36972.4354     0.20530E+00 
  37004.6975     0.20596E+00 
  37036.9597     0.20661E+00 
  37069.2218     0.20727E+00 
  37101.4840     0.20792E+00 
  37133.7462     0.20858E+00 
  37166.0083     0.20924E+00 
  37198.2705     0.20990E+00 
  37230.5326     0.21056E+00 
  37262.7948     0.21122E+00 
  37295.0570     0.21189E+00 
  37327.3191     0.21255E+00 
  37359.5813     0.21321E+00 
  37391.8434     0.21388E+00 
  37424.1056     0.21454E+00 
  37456.3678     0.21521E+00 
  37488.6299     0.21588E+00 
  37520.8921     0.21655E+00 
  37553.1542     0.21722E+00 
  37585.4164     0.21789E+00 
  37617.6786     0.21856E+00 
  37649.9407     0.21923E+00 
  37682.2029     0.21991E+00 
  37714.4650     0.22058E+00 
  37746.7272     0.22125E+00 
  37778.9894     0.22193E+00 
  37811.2515     0.22261E+00 
  37843.5137     0.22329E+00 
  37875.7758     0.22396E+00 
  37908.0380     0.22464E+00 
  37940.3002     0.22532E+00 
  37972.5623     0.22600E+00 
  38004.8245     0.22669E+00 
  38037.0866     0.22737E+00 
  38069.3488     0.22805E+00 
  38101.6110     0.22874E+00 
  38133.8731     0.22942E+00 
  38166.1353     0.23011E+00 
  38198.3974     0.23080E+00 
  38230.6596     0.23148E+00 
  38262.9218     0.23217E+00 
  38295.1839     0.23286E+00 
  38327.4461     0.23355E+00 
  38359.7082     0.23424E+00 
  38391.9704     0.23494E+00 
  38424.2326     0.23563E+00 
  38456.4947     0.23632E+00 
  38488.7569     0.23702E+00 
  38521.0190     0.23771E+00 
  38553.2812     0.23841E+00 
  38585.5434     0.23911E+00 
  38617.8055     0.23980E+00 
  38650.0677     0.24050E+00 
  38682.3298     0.24120E+00 
  38714.5920     0.24190E+00 
  38746.8542     0.24260E+00 
  38779.1163     0.24331E+00 
  38811.3785     0.24401E+00 
  38843.6406     0.24471E+00 
  38875.9028     0.24542E+00 
  38908.1650     0.24612E+00 
  38940.4271     0.24683E+00 
  38972.6893     0.24754E+00 
  39004.9514     0.24824E+00 
  39037.2136     0.24895E+00 
  39069.4758     0.24966E+00 
  39101.7379     0.25037E+00 
  39134.0001     0.25108E+00 
  39166.2622     0.25179E+00 
  39198.5244     0.25251E+00 
  39230.7866     0.25322E+00 
  39263.0487     0.25393E+00 
  39295.3109     0.25465E+00 
  39327.5730     0.25536E+00 
  39359.8352     0.25608E+00 
  39392.0974     0.25680E+00 
  39424.3595     0.25752E+00 
  39456.6217     0.25824E+00 
  39488.8838     0.25895E+00 
  39521.1460     0.25968E+00 
  39553.4082     0.26040E+00 
  39585.6703     0.26112E+00 
  39617.9325     0.26184E+00 
  39650.1946     0.26256E+00 
  39682.4568     0.26329E+00 
  39714.7190     0.26401E+00 
  39746.9811     0.26474E+00 
  39779.2433     0.26547E+00 
  39811.5054     0.26619E+00 
  39843.7676     0.26692E+00 
  39876.0298     0.26765E+00 
  39908.2919     0.26838E+00 
  39940.5541     0.26911E+00 
  39972.8162     0.26984E+00 
  40005.0784     0.27057E+00 
  40037.3406     0.27131E+00 
  40069.6027     0.27204E+00 
  40101.8649     0.27277E+00 
  40134.1270     0.27351E+00 
  40166.3892     0.27425E+00 
  40198.6514     0.27498E+00 
  40230.9135     0.27572E+00 
  40263.1757     0.27646E+00 
  40295.4378     0.27720E+00 
  40327.7000     0.27794E+00 
  40359.9622     0.27868E+00 
  40392.2243     0.27942E+00 
  40424.4865     0.28016E+00 
  40456.7486     0.28090E+00 
  40489.0108     0.28164E+00 
  40521.2730     0.28239E+00 
  40553.5351     0.28313E+00 
  40585.7973     0.28388E+00 
  40618.0594     0.28463E+00 
  40650.3216     0.28537E+00 
  40682.5838     0.28612E+00 
  40714.8459     0.28687E+00 
  40747.1081     0.28762E+00 
  40779.3702     0.28837E+00 
  40811.6324     0.28912E+00 
  40843.8946     0.28987E+00 
  40876.1567     0.29062E+00 
  40908.4189     0.29138E+00 
  40940.6810     0.29213E+00 
  40972.9432     0.29288E+00 
  41005.2054     0.29364E+00 
  41037.4675     0.29440E+00 
  41069.7297     0.29515E+00 
  41101.9918     0.29591E+00 
  41134.2540     0.29667E+00 
  41166.5162     0.29743E+00 
  41198.7783     0.29819E+00 
  41231.0405     0.29895E+00 
  41263.3026     0.29971E+00 
  41295.5648     0.30047E+00 
  41327.8270     0.30123E+00 
  41360.0891     0.30200E+00 
  41392.3513     0.30276E+00 
  41424.6134     0.30353E+00 
  41456.8756     0.30429E+00 
  41489.1378     0.30506E+00 
  41521.3999     0.30583E+00 
  41553.6621     0.30659E+00 
  41585.9242     0.30736E+00 
  41618.1864     0.30813E+00 
  41650.4486     0.30890E+00 
  41682.7107     0.30967E+00 
  41714.9729     0.31045E+00 
  41747.2350     0.31122E+00 
  41779.4972     0.31199E+00 
  41811.7594     0.31277E+00 
  41844.0215     0.31354E+00 
  41876.2837     0.31432E+00 
  41908.5458     0.31509E+00 
  41940.8080     0.31587E+00 
  41973.0702     0.31665E+00 
  42005.3323     0.31743E+00 
  42037.5945     0.31821E+00 
  42069.8566     0.31899E+00 
  42102.1188     0.31977E+00 
  42134.3810     0.32055E+00 
  42166.6431     0.32133E+00 
  42198.9053     0.32212E+00 
  42231.1674     0.32290E+00 
  42263.4296     0.32369E+00 
  42295.6918     0.32447E+00 
  42327.9539     0.32526E+00 
  42360.2161     0.32605E+00 
  42392.4782     0.32683E+00 
  42424.7404     0.32762E+00 
  42457.0026     0.32841E+00 
  42489.2647     0.32920E+00 
  42521.5269     0.32999E+00 
  42553.7890     0.33079E+00 
  42586.0512     0.33158E+00 
  42618.3134     0.33237E+00 
  42650.5755     0.33317E+00 
  42682.8377     0.33396E+00 
  42715.0998     0.33476E+00 
  42747.3620     0.33555E+00 
  42779.6242     0.33635E+00 
  42811.8863     0.33715E+00 
  42844.1485     0.33795E+00 
  42876.4106     0.33875E+00 
  42908.6728     0.33955E+00 
  42940.9350     0.34035E+00 
  42973.1971     0.34116E+00 
  43005.4593     0.34196E+00 
  43037.7214     0.34276E+00 
  43069.9836     0.34357E+00 
  43102.2458     0.34437E+00 
  43134.5079     0.34518E+00 
  43166.7701     0.34599E+00 
  43199.0322     0.34680E+00 
  43231.2944     0.34761E+00 
  43263.5566     0.34842E+00 
  43295.8187     0.34923E+00 
  43328.0809     0.35004E+00 
  43360.3430     0.35085E+00 
  43392.6052     0.35167E+00 
  43424.8674     0.35248E+00 
  43457.1295     0.35330E+00 
  43489.3917     0.35411E+00 
  43521.6538     0.35493E+00 
  43553.9160     0.35575E+00 
  43586.1782     0.35657E+00 
  43618.4403     0.35739E+00 
  43650.7025     0.35821E+00 
  43682.9646     0.35903E+00 
  43715.2268     0.35985E+00 
  43747.4890     0.36067E+00 
  43779.7511     0.36150E+00 
  43812.0133     0.36232E+00 
  43844.2754     0.36315E+00 
  43876.5376     0.36398E+00 
  43908.7998     0.36481E+00 
  43941.0619     0.36563E+00 
  43973.3241     0.36646E+00 
  44005.5862     0.36729E+00 
  44037.8484     0.36813E+00 
  44070.1106     0.36896E+00 
  44102.3727     0.36979E+00 
  44134.6349     0.37063E+00 
  44166.8970     0.37146E+00 
  44199.1592     0.37230E+00 
  44231.4214     0.37314E+00 
  44263.6835     0.37398E+00 
  44295.9457     0.37482E+00 
  44328.2078     0.37566E+00 
  44360.4700     0.37650E+00 
  44392.7322     0.37734E+00 
  44424.9943     0.37818E+00 
  44457.2565     0.37903E+00 
  44489.5186     0.37987E+00 
  44521.7808     0.38072E+00 
  44554.0430     0.38157E+00 
  44586.3051     0.38242E+00 
  44618.5673     0.38327E+00 
  44650.8294     0.38412E+00 
  44683.0916     0.38497E+00 
  44715.3538     0.38582E+00 
  44747.6159     0.38668E+00 
  44779.8781     0.38753E+00 
  44812.1402     0.38839E+00 
  44844.4024     0.38924E+00 
  44876.6646     0.39010E+00 
  44908.9267     0.39096E+00 
  44941.1889     0.39182E+00 
  44973.4510     0.39268E+00 
  45005.7132     0.39355E+00 
  45037.9754     0.39441E+00 
  45070.2375     0.39528E+00 
  45102.4997     0.39614E+00 
  45134.7618     0.39701E+00 
  45167.0240     0.39788E+00 
  45199.2862     0.39875E+00 
  45231.5483     0.39962E+00 
  45263.8105     0.40049E+00 
  45296.0726     0.40136E+00 
  45328.3348     0.40224E+00 
  45360.5970     0.40311E+00 
  45392.8591     0.40399E+00 
  45425.1213     0.40487E+00 
  45457.3834     0.40575E+00 
  45489.6456     0.40663E+00 
  45521.9078     0.40751E+00 
  45554.1699     0.40839E+00 
  45586.4321     0.40927E+00 
  45618.6942     0.41016E+00 
  45650.9564     0.41105E+00 
  45683.2186     0.41193E+00 
  45715.4807     0.41282E+00 
  45747.7429     0.41371E+00 
  45780.0050     0.41460E+00 
  45812.2672     0.41550E+00 
  45844.5294     0.41639E+00 
  45876.7915     0.41729E+00 
  45909.0537     0.41818E+00 
  45941.3158     0.41908E+00 
  45973.5780     0.41998E+00 
  46005.8402     0.42088E+00 
  46038.1023     0.42178E+00 
  46070.3645     0.42269E+00 
  46102.6266     0.42359E+00 
  46134.8888     0.42450E+00 
  46167.1510     0.42541E+00 
  46199.4131     0.42632E+00 
  46231.6753     0.42723E+00 
  46263.9374     0.42814E+00 
  46296.1996     0.42905E+00 
  46328.4618     0.42997E+00 
  46360.7239     0.43088E+00 
  46392.9861     0.43180E+00 
  46425.2482     0.43272E+00 
  46457.5104     0.43364E+00 
  46489.7726     0.43457E+00 
  46522.0347     0.43549E+00 
  46554.2969     0.43641E+00 
  46586.5590     0.43734E+00 
  46618.8212     0.43827E+00 
  46651.0834     0.43920E+00 
  46683.3455     0.44013E+00 
  46715.6077     0.44106E+00 
  46747.8698     0.44200E+00 
  46780.1320     0.44294E+00 
  46812.3942     0.44387E+00 
  46844.6563     0.44481E+00 
  46876.9185     0.44575E+00 
  46909.1806     0.44670E+00 
  46941.4428     0.44764E+00 
  46973.7050     0.44859E+00 
  47005.9671     0.44954E+00 
  47038.2293     0.45048E+00 
  47070.4914     0.45144E+00 
  47102.7536     0.45239E+00 
  47135.0158     0.45334E+00 
  47167.2779     0.45430E+00 
  47199.5401     0.45526E+00 
  47231.8022     0.45622E+00 
  47264.0644     0.45718E+00 
  47296.3266     0.45814E+00 
  47328.5887     0.45911E+00 
  47360.8509     0.46007E+00 
  47393.1130     0.46104E+00 
  47425.3752     0.46201E+00 
  47457.6374     0.46298E+00 
  47489.8995     0.46396E+00 
  47522.1617     0.46493E+00 
  47554.4238     0.46591E+00 
  47586.6860     0.46689E+00 
  47618.9482     0.46787E+00 
  47651.2103     0.46886E+00 
  47683.4725     0.46984E+00 
  47715.7346     0.47083E+00 
  47747.9968     0.47182E+00 
  47780.2590     0.47281E+00 
  47812.5211     0.47380E+00 
  47844.7833     0.47480E+00 
  47877.0454     0.47580E+00 
  47909.3076     0.47680E+00 
  47941.5698     0.47780E+00 
  47973.8319     0.47880E+00 
  48006.0941     0.47981E+00 
  48038.3562     0.48081E+00 
  48070.6184     0.48182E+00 
  48102.8806     0.48283E+00 
  48135.1427     0.48385E+00 
  48167.4049     0.48486E+00 
  48199.6670     0.48588E+00 
  48231.9292     0.48690E+00 
  48264.1914     0.48792E+00 
  48296.4535     0.48895E+00 
  48328.7157     0.48997E+00 
  48360.9778     0.49100E+00 
  48393.2400     0.49203E+00 
  48425.5022     0.49307E+00 
  48457.7643     0.49410E+00 
  48490.0265     0.49514E+00 
  48522.2886     0.49618E+00 
  48554.5508     0.49722E+00 
  48586.8130     0.49827E+00 
  48619.0751     0.49931E+00 
  48651.3373     0.50036E+00 
  48683.5994     0.50142E+00 
  48715.8616     0.50247E+00 
  48748.1238     0.50353E+00 
  48780.3859     0.50459E+00 
  48812.6481     0.50565E+00 
  48844.9102     0.50671E+00 
  48877.1724     0.50778E+00 
  48909.4346     0.50884E+00 
  48941.6967     0.50992E+00 
  48973.9589     0.51099E+00 
  49006.2210     0.51207E+00 
  49038.4832     0.51314E+00 
  49070.7454     0.51423E+00 
  49103.0075     0.51531E+00 
  49135.2697     0.51640E+00 
  49167.5318     0.51748E+00 
  49199.7940     0.51858E+00 
  49232.0562     0.51967E+00 
  49264.3183     0.52077E+00 
  49296.5805     0.52187E+00 
  49328.8426     0.52297E+00 
  49361.1048     0.52407E+00 
  49393.3670     0.52518E+00 
  49425.6291     0.52629E+00 
  49457.8913     0.52740E+00 
  49490.1534     0.52852E+00 
  49522.4156     0.52964E+00 
  49554.6778     0.53076E+00 
  49586.9399     0.53188E+00 
  49619.2021     0.53301E+00 
  49651.4642     0.53414E+00 
  49683.7264     0.53527E+00 
  49715.9886     0.53641E+00 
  49748.2507     0.53755E+00 
  49780.5129     0.53869E+00 
  49812.7750     0.53983E+00 
  49845.0372     0.54098E+00 
  49877.2994     0.54213E+00 
  49909.5615     0.54328E+00 
  49941.8237     0.54444E+00 
  49974.0858     0.54560E+00 
  50006.3480     0.54676E+00 
  50038.6102     0.54793E+00 
  50070.8723     0.54909E+00 
  50103.1345     0.55027E+00 
  50135.3966     0.55144E+00 
  50167.6588     0.55262E+00 
  50199.9210     0.55380E+00 
  50232.1831     0.55498E+00 
  50264.4453     0.55617E+00 
  50296.7074     0.55736E+00 
  50328.9696     0.55856E+00 
  50361.2318     0.55975E+00 
  50393.4939     0.56095E+00 
  50425.7561     0.56216E+00 
  50458.0182     0.56336E+00 
  50490.2804     0.56457E+00 
  50522.5426     0.56579E+00 
  50554.8047     0.56700E+00 
  50587.0669     0.56822E+00 
  50619.3290     0.56945E+00 
  50651.5912     0.57068E+00 
  50683.8534     0.57191E+00 
  50716.1155     0.57314E+00 
  50748.3777     0.57438E+00 
  50780.6398     0.57562E+00 
  50812.9020     0.57686E+00 
  50845.1642     0.57811E+00 
  50877.4263     0.57936E+00 
  50909.6885     0.58062E+00 
  50941.9506     0.58188E+00 
  50974.2128     0.58314E+00 
  51006.4750     0.58441E+00 
  51038.7371     0.58568E+00 
  51070.9993     0.58695E+00 
  51103.2614     0.58823E+00 
  51135.5236     0.58951E+00 
  51167.7858     0.59079E+00 
  51200.0479     0.59208E+00 
  51232.3101     0.59337E+00 
  51264.5722     0.59467E+00 
  51296.8344     0.59597E+00 
  51329.0966     0.59727E+00 
  51361.3587     0.59858E+00 
  51393.6209     0.59989E+00 
  51425.8830     0.60121E+00 
  51458.1452     0.60253E+00 
  51490.4074     0.60385E+00 
  51522.6695     0.60518E+00 
  51554.9317     0.60651E+00 
  51587.1938     0.60785E+00 
  51619.4560     0.60919E+00 
  51651.7182     0.61053E+00 
  51683.9803     0.61188E+00 
  51716.2425     0.61323E+00 
  51748.5046     0.61459E+00 
  51780.7668     0.61595E+00 
  51813.0290     0.61731E+00 
  51845.2911     0.61868E+00 
  51877.5533     0.62005E+00 
  51909.8154     0.62143E+00 
  51942.0776     0.62281E+00 
  51974.3398     0.62420E+00 
  52006.6019     0.62558E+00 
  52038.8641     0.62698E+00 
  52071.1262     0.62838E+00 
  52103.3884     0.62978E+00 
  52135.6506     0.63119E+00 
  52167.9127     0.63260E+00 
  52200.1749     0.63402E+00 
  52232.4370     0.63544E+00 
  52264.6992     0.63686E+00 
  52296.9614     0.63829E+00 
  52329.2235     0.63973E+00 
  52361.4857     0.64116E+00 
  52393.7478     0.64261E+00 
  52426.0100     0.64406E+00 
  52458.2722     0.64551E+00 
  52490.5343     0.64697E+00 
  52522.7965     0.64843E+00 
  52555.0586     0.64989E+00 
  52587.3208     0.65137E+00 
  52619.5830     0.65284E+00 
  52651.8451     0.65432E+00 
  52684.1073     0.65581E+00 
  52716.3694     0.65730E+00 
  52748.6316     0.65879E+00 
  52780.8938     0.66029E+00 
  52813.1559     0.66180E+00 
  52845.4181     0.66331E+00 
  52877.6802     0.66482E+00 
  52909.9424     0.66634E+00 
  52942.2046     0.66787E+00 
  52974.4667     0.66940E+00 
  53006.7289     0.67093E+00 
  53038.9910     0.67247E+00 
  53071.2532     0.67402E+00 
  53103.5154     0.67557E+00 
  53135.7775     0.67712E+00 
  53168.0397     0.67868E+00 
  53200.3018     0.68025E+00 
  53232.5640     0.68182E+00 
  53264.8262     0.68340E+00 
  53297.0883     0.68498E+00 
  53329.3505     0.68656E+00 
  53361.6126     0.68816E+00 
  53393.8748     0.68975E+00 
  53426.1370     0.69136E+00 
  53458.3991     0.69296E+00 
  53490.6613     0.69458E+00 
  53522.9234     0.69619E+00 
  53555.1856     0.69782E+00 
  53587.4478     0.69945E+00 
  53619.7099     0.70108E+00 
  53651.9721     0.70272E+00 
  53684.2342     0.70437E+00 
  53716.4964     0.70602E+00 
  53748.7586     0.70768E+00 
  53781.0207     0.70934E+00 
  53813.2829     0.71101E+00 
  53845.5450     0.71268E+00 
  53877.8072     0.71436E+00 
  53910.0694     0.71605E+00 
  53942.3315     0.71774E+00 
  53974.5937     0.71943E+00 
  54006.8558     0.72114E+00 
  54039.1180     0.72285E+00 
  54071.3802     0.72456E+00 
  54103.6423     0.72628E+00 
  54135.9045     0.72801E+00 
  54168.1666     0.72974E+00 
  54200.4288     0.73147E+00 
  54232.6910     0.73322E+00 
  54264.9531     0.73497E+00 
  54297.2153     0.73672E+00 
  54329.4774     0.73848E+00 
  54361.7396     0.74025E+00 
  54394.0018     0.74203E+00 
  54426.2639     0.74381E+00 
  54458.5261     0.74559E+00 
  54490.7882     0.74738E+00 
  54523.0504     0.74918E+00 
  54555.3126     0.75099E+00 
  54587.5747     0.75280E+00 
  54619.8369     0.75461E+00 
  54652.0990     0.75644E+00 
  54684.3612     0.75827E+00 
  54716.6234     0.76010E+00 
  54748.8855     0.76194E+00 
  54781.1477     0.76379E+00 
  54813.4098     0.76565E+00 
  54845.6720     0.76751E+00 
  54877.9342     0.76938E+00 
  54910.1963     0.77125E+00 
  54942.4585     0.77313E+00 
  54974.7206     0.77502E+00 
  55006.9828     0.77691E+00 
  55039.2450     0.77881E+00 
  55071.5071     0.78072E+00 
  55103.7693     0.78263E+00 
  55136.0314     0.78455E+00 
  55168.2936     0.78648E+00 
  55200.5558     0.78841E+00 
  55232.8179     0.79035E+00 
  55265.0801     0.79230E+00 
  55297.3422     0.79425E+00 
  55329.6044     0.79621E+00 
  55361.8666     0.79818E+00 
  55394.1287     0.80015E+00 
  55426.3909     0.80213E+00 
  55458.6530     0.80412E+00 
  55490.9152     0.80611E+00 
  55523.1774     0.80811E+00 
  55555.4395     0.81012E+00 
  55587.7017     0.81214E+00 
  55619.9638     0.81416E+00 
  55652.2260     0.81619E+00 
  55684.4882     0.81823E+00 
  55716.7503     0.82027E+00 
  55749.0125     0.82232E+00 
  55781.2746     0.82438E+00 
  55813.5368     0.82644E+00 
  55845.7990     0.82851E+00 
  55878.0611     0.83059E+00 
  55910.3233     0.83268E+00 
  55942.5854     0.83477E+00 
  55974.8476     0.83687E+00 
  56007.1098     0.83898E+00 
  56039.3719     0.84110E+00 
  56071.6341     0.84322E+00 
  56103.8962     0.84535E+00 
  56136.1584     0.84749E+00 
  56168.4206     0.84963E+00 
  56200.6827     0.85178E+00 
  56232.9449     0.85394E+00 
  56265.2070     0.85611E+00 
  56297.4692     0.85828E+00 
  56329.7314     0.86047E+00 
  56361.9935     0.86266E+00 
  56394.2557     0.86485E+00 
  56426.5178     0.86706E+00 
  56458.7800     0.86927E+00 
  56491.0422     0.87149E+00 
  56523.3043     0.87372E+00 
  56555.5665     0.87595E+00 
  56587.8286     0.87820E+00 
  56620.0908     0.88045E+00 
  56652.3530     0.88271E+00 
  56684.6151     0.88497E+00 
  56716.8773     0.88725E+00 
  56749.1394     0.88953E+00 
  56781.4016     0.89182E+00 
  56813.6638     0.89412E+00 
  56845.9259     0.89642E+00 
  56878.1881     0.89874E+00 
  56910.4502     0.90106E+00 
  56942.7124     0.90339E+00 
  56974.9746     0.90572E+00 
  57007.2367     0.90807E+00 
  57039.4989     0.91042E+00 
  57071.7610     0.91278E+00 
  57104.0232     0.91515E+00 
  57136.2854     0.91753E+00 
  57168.5475     0.91992E+00 
  57200.8097     0.92231E+00 
  57233.0718     0.92471E+00 
  57265.3340     0.92712E+00 
  57297.5962     0.92954E+00 
  57329.8583     0.93197E+00 
  57362.1205     0.93440E+00 
  57394.3826     0.93685E+00 
  57426.6448     0.93930E+00 
  57458.9070     0.94176E+00 
  57491.1691     0.94422E+00 
  57523.4313     0.94670E+00 
  57555.6934     0.94919E+00 
  57587.9556     0.95168E+00 
  57620.2178     0.95418E+00 
  57652.4799     0.95669E+00 
  57684.7421     0.95921E+00 
  57717.0042     0.96174E+00 
  57749.2664     0.96427E+00 
  57781.5286     0.96682E+00 
  57813.7907     0.96937E+00 
  57846.0529     0.97193E+00 
  57878.3150     0.97450E+00 
  57910.5772     0.97708E+00 
  57942.8394     0.97966E+00 
  57975.1015     0.98226E+00 
  58007.3637     0.98486E+00 
  58039.6258     0.98748E+00 
  58071.8880     0.99010E+00 
  58104.1502     0.99273E+00 
  58136.4123     0.99537E+00 
  58168.6745     0.99802E+00 
  58200.9366     0.10007E+01 
  58233.1988     0.10033E+01 
  58265.4610     0.10060E+01 
  58297.7231     0.10087E+01 
  58329.9853     0.10114E+01 
  58362.2474     0.10141E+01 
  58394.5096     0.10168E+01 
  58426.7718     0.10195E+01 
  58459.0339     0.10222E+01 
  58491.2961     0.10250E+01 
  58523.5582     0.10277E+01 
  58555.8204     0.10305E+01 
  58588.0826     0.10332E+01 
  58620.3447     0.10360E+01 
  58652.6069     0.10388E+01 
  58684.8690     0.10416E+01 
  58717.1312     0.10444E+01 
  58749.3934     0.10472E+01 
  58781.6555     0.10500E+01 
  58813.9177     0.10528E+01 
  58846.1798     0.10557E+01 
  58878.4420     0.10585E+01 
  58910.7042     0.10614E+01 
  58942.9663     0.10642E+01 
  58975.2285     0.10671E+01 
  59007.4906     0.10700E+01 
  59039.7528     0.10729E+01 
  59072.0150     0.10758E+01 
  59104.2771     0.10787E+01 
  59136.5393     0.10816E+01 
  59168.8014     0.10846E+01 
  59201.0636     0.10875E+01 
  59233.3258     0.10904E+01 
  59265.5879     0.10934E+01 
  59297.8501     0.10964E+01 
  59330.1122     0.10993E+01 
  59362.3744     0.11023E+01 
  59394.6366     0.11053E+01 
  59426.8987     0.11083E+01 
  59459.1609     0.11113E+01 
  59491.4230     0.11144E+01 
  59523.6852     0.11174E+01 
  59555.9474     0.11204E+01 
  59588.2095     0.11235E+01 
  59620.4717     0.11266E+01 
  59652.7338     0.11296E+01 
  59684.9960     0.11327E+01 
  59717.2582     0.11358E+01 
  59749.5203     0.11389E+01 
  59781.7825     0.11420E+01 
  59814.0446     0.11451E+01 
  59846.3068     0.11483E+01 
  59878.5690     0.11514E+01 
  59910.8311     0.11545E+01 
  59943.0933     0.11577E+01 
  59975.3554     0.11609E+01 
  60007.6176     0.11640E+01 
  60039.8798     0.11672E+01 
  60072.1419     0.11704E+01 
  60104.4041     0.11736E+01 
  60136.6662     0.11769E+01 
  60168.9284     0.11801E+01 
  60201.1906     0.11833E+01 
  60233.4527     0.11866E+01 
  60265.7149     0.11898E+01 
  60297.9770     0.11931E+01 
  60330.2392     0.11964E+01 
  60362.5014     0.11996E+01 
  60394.7635     0.12029E+01 
  60427.0257     0.12062E+01 
  60459.2878     0.12096E+01 
  60491.5500     0.12129E+01 
  60523.8122     0.12162E+01 
  60556.0743     0.12196E+01 
  60588.3365     0.12229E+01 
  60620.5986     0.12263E+01 
  60652.8608     0.12297E+01 
  60685.1230     0.12330E+01 
  60717.3851     0.12364E+01 
  60749.6473     0.12398E+01 
  60781.9094     0.12433E+01 
  60814.1716     0.12467E+01 
  60846.4338     0.12501E+01 
  60878.6959     0.12536E+01 
  60910.9581     0.12570E+01 
  60943.2202     0.12605E+01 
  60975.4824     0.12640E+01 
  61007.7446     0.12674E+01 
  61040.0067     0.12709E+01 
  61072.2689     0.12745E+01 
  61104.5310     0.12780E+01 
  61136.7932     0.12815E+01 
  61169.0554     0.12850E+01 
  61201.3175     0.12886E+01 
  61233.5797     0.12921E+01 
  61265.8418     0.12957E+01 
  61298.1040     0.12993E+01 
  61330.3662     0.13029E+01 
  61362.6283     0.13065E+01 
  61394.8905     0.13101E+01 
  61427.1526     0.13137E+01 
  61459.4148     0.13173E+01 
  61491.6770     0.13209E+01 
  61523.9391     0.13246E+01 
  61556.2013     0.13283E+01 
  61588.4634     0.13319E+01 
  61620.7256     0.13356E+01 
  61652.9878     0.13393E+01 
  61685.2499     0.13430E+01 
  61717.5121     0.13467E+01 
  61749.7742     0.13504E+01 
  61782.0364     0.13541E+01 
  61814.2986     0.13579E+01 
  61846.5607     0.13616E+01 
  61878.8229     0.13654E+01 
  61911.0850     0.13692E+01 
  61943.3472     0.13729E+01 
  61975.6094     0.13767E+01 
  62007.8715     0.13805E+01 
  62040.1337     0.13844E+01 
  62072.3958     0.13882E+01 
  62104.6580     0.13920E+01 
  62136.9202     0.13958E+01 
  62169.1823     0.13997E+01 
  62201.4445     0.14036E+01 
  62233.7066     0.14074E+01 
  62265.9688     0.14113E+01 
  62298.2310     0.14152E+01 
  62330.4931     0.14191E+01 
  62362.7553     0.14230E+01 
  62395.0174     0.14270E+01 
  62427.2796     0.14309E+01 
  62459.5418     0.14348E+01 
  62491.8039     0.14388E+01 
  62524.0661     0.14428E+01 
  62556.3282     0.14467E+01 
  62588.5904     0.14507E+01 
  62620.8526     0.14547E+01 
  62653.1147     0.14587E+01 
  62685.3769     0.14628E+01 
  62717.6390     0.14668E+01 
  62749.9012     0.14708E+01 
  62782.1634     0.14749E+01 
  62814.4255     0.14789E+01 
  62846.6877     0.14830E+01 
  62878.9498     0.14871E+01 
  62911.2120     0.14912E+01 
  62943.4742     0.14953E+01 
  62975.7363     0.14994E+01 
  63007.9985     0.15035E+01 
  63040.2606     0.15076E+01 
  63072.5228     0.15118E+01 
  63104.7850     0.15159E+01 
  63137.0471     0.15201E+01 
  63169.3093     0.15243E+01 
  63201.5714     0.15285E+01 
  63233.8336     0.15326E+01 
  63266.0958     0.15368E+01 
  63298.3579     0.15411E+01 
  63330.6201     0.15453E+01 
  63362.8822     0.15495E+01 
  63395.1444     0.15538E+01 
  63427.4066     0.15580E+01 
  63459.6687     0.15623E+01 
  63491.9309     0.15666E+01 
  63524.1930     0.15708E+01 
  63556.4552     0.15751E+01 
  63588.7174     0.15795E+01 
  63620.9795     0.15838E+01 
  63653.2417     0.15881E+01 
  63685.5038     0.15924E+01 
  63717.7660     0.15968E+01 
  63750.0282     0.16011E+01 
  63782.2903     0.16055E+01 
  63814.5525     0.16099E+01 
  63846.8146     0.16143E+01 
  63879.0768     0.16187E+01 
  63911.3390     0.16231E+01 
  63943.6011     0.16275E+01 
  63975.8633     0.16319E+01 
  64008.1254     0.16364E+01 
  64040.3876     0.16408E+01 
  64072.6498     0.16453E+01 
  64104.9119     0.16497E+01 
  64137.1741     0.16542E+01 
  64169.4362     0.16587E+01 
  64201.6984     0.16632E+01 
  64233.9606     0.16677E+01 
  64266.2227     0.16722E+01 
  64298.4849     0.16768E+01 
  64330.7470     0.16813E+01 
  64363.0092     0.16859E+01 
  64395.2714     0.16904E+01 
  64427.5335     0.16950E+01 
  64459.7957     0.16996E+01 
  64492.0578     0.17042E+01 
  64524.3200     0.17088E+01 
  64556.5822     0.17134E+01 
  64588.8443     0.17180E+01 
  64621.1065     0.17226E+01 
  64653.3686     0.17273E+01 
  64685.6308     0.17319E+01 
  64717.8930     0.17366E+01 
  64750.1551     0.17413E+01 
  64782.4173     0.17459E+01 
  64814.6794     0.17506E+01 
  64846.9416     0.17553E+01 
  64879.2038     0.17600E+01 
  64911.4659     0.17648E+01 
  64943.7281     0.17695E+01 
  64975.9902     0.17742E+01 
  65008.2524     0.17790E+01 
  65040.5146     0.17837E+01 
  65072.7767     0.17885E+01 
  65105.0389     0.17933E+01 
  65137.3010     0.17981E+01 
  65169.5632     0.18029E+01 
  65201.8254     0.18077E+01 
  65234.0875     0.18125E+01 
  65266.3497     0.18173E+01 
  65298.6118     0.18222E+01 
  65330.8740     0.18270E+01 
  65363.1362     0.18319E+01 
  65395.3983     0.18367E+01 
  65427.6605     0.18416E+01 
  65459.9226     0.18465E+01 
  65492.1848     0.18514E+01 
  65524.4470     0.18563E+01 
  65556.7091     0.18612E+01 
  65588.9713     0.18661E+01 
  65621.2334     0.18711E+01 
  65653.4956     0.18760E+01 
  65685.7578     0.18810E+01 
  65718.0199     0.18859E+01 
  65750.2821     0.18909E+01 
  65782.5442     0.18959E+01 
  65814.8064     0.19009E+01 
  65847.0686     0.19059E+01 
  65879.3307     0.19109E+01 
  65911.5929     0.19159E+01 
  65943.8550     0.19209E+01 
  65976.1172     0.19260E+01 
  66008.3794     0.19310E+01 
  66040.6415     0.19361E+01 
  66072.9037     0.19411E+01 
  66105.1658     0.19462E+01 
  66137.4280     0.19513E+01 
  66169.6902     0.19564E+01 
  66201.9523     0.19615E+01 
  66234.2145     0.19666E+01 
  66266.4766     0.19717E+01 
  66298.7388     0.19768E+01 
  66331.0010     0.19820E+01 
  66363.2631     0.19871E+01 
  66395.5253     0.19923E+01 
  66427.7874     0.19974E+01 
  66460.0496     0.20026E+01 
  66492.3118     0.20078E+01 
  66524.5739     0.20130E+01 
  66556.8361     0.20182E+01 
  66589.0982     0.20234E+01 
  66621.3604     0.20286E+01 
  66653.6226     0.20338E+01 
  66685.8847     0.20391E+01 
  66718.1469     0.20443E+01 
  66750.4090     0.20496E+01 
  66782.6712     0.20548E+01 
  66814.9334     0.20601E+01 
  66847.1955     0.20654E+01 
  66879.4577     0.20707E+01 
  66911.7198     0.20760E+01 
  66943.9820     0.20813E+01 
  66976.2442     0.20866E+01 
  67008.5063     0.20919E+01 
  67040.7685     0.20972E+01 
  67073.0306     0.21026E+01 
  67105.2928     0.21079E+01 
  67137.5550     0.21133E+01 
  67169.8171     0.21186E+01 
  67202.0793     0.21240E+01 
  67234.3414     0.21294E+01 
  67266.6036     0.21348E+01 
  67298.8658     0.21402E+01 
  67331.1279     0.21456E+01 
  67363.3901     0.21510E+01 
  67395.6522     0.21564E+01 
  67427.9144     0.21619E+01 
  67460.1766     0.21673E+01 
  67492.4387     0.21728E+01 
  67524.7009     0.21782E+01 
  67556.9630     0.21837E+01 
  67589.2252     0.21891E+01 
  67621.4874     0.21946E+01 
  67653.7495     0.22001E+01 
  67686.0117     0.22056E+01 
  67718.2738     0.22111E+01 
  67750.5360     0.22166E+01 
  67782.7982     0.22221E+01 
  67815.0603     0.22277E+01 
  67847.3225     0.22332E+01 
  67879.5846     0.22387E+01 
  67911.8468     0.22443E+01 
  67944.1090     0.22499E+01 
  67976.3711     0.22554E+01 
  68008.6333     0.22610E+01 
  68040.8954     0.22666E+01 
  68073.1576     0.22722E+01 
  68105.4198     0.22778E+01 
  68137.6819     0.22834E+01 
  68169.9441     0.22890E+01 
  68202.2062     0.22946E+01 
  68234.4684     0.23002E+01 
  68266.7306     0.23059E+01 
  68298.9927     0.23115E+01 
  68331.2549     0.23171E+01 
  68363.5170     0.23228E+01 
  68395.7792     0.23285E+01 
  68428.0414     0.23341E+01 
  68460.3035     0.23398E+01 
  68492.5657     0.23455E+01 
  68524.8278     0.23512E+01 
  68557.0900     0.23569E+01 
  68589.3522     0.23626E+01 
  68621.6143     0.23683E+01 
  68653.8765     0.23740E+01 
  68686.1386     0.23797E+01 
  68718.4008     0.23855E+01 
  68750.6630     0.23912E+01 
  68782.9251     0.23970E+01 
  68815.1873     0.24027E+01 
  68847.4494     0.24085E+01 
  68879.7116     0.24142E+01 
  68911.9738     0.24200E+01 
  68944.2359     0.24258E+01 
  68976.4981     0.24316E+01 
  69008.7602     0.24374E+01 
  69041.0224     0.24432E+01 
  69073.2846     0.24490E+01 
  69105.5467     0.24548E+01 
  69137.8089     0.24606E+01 
  69170.0710     0.24664E+01 
  69202.3332     0.24723E+01 
  69234.5954     0.24781E+01 
  69266.8575     0.24840E+01 
  69299.1197     0.24898E+01 
  69331.3818     0.24957E+01 
  69363.6440     0.25015E+01 
  69395.9062     0.25074E+01 
  69428.1683     0.25133E+01 
  69460.4305     0.25192E+01 
  69492.6926     0.25250E+01 
  69524.9548     0.25309E+01 
  69557.2170     0.25368E+01 
  69589.4791     0.25427E+01 
  69621.7413     0.25486E+01 
  69654.0034     0.25546E+01 
  69686.2656     0.25605E+01 
  69718.5278     0.25664E+01 
  69750.7899     0.25723E+01 
  69783.0521     0.25783E+01 
  69815.3142     0.25842E+01 
  69847.5764     0.25902E+01 
  69879.8386     0.25961E+01 
  69912.1007     0.26021E+01 
  69944.3629     0.26081E+01 
  69976.6250     0.26140E+01 
  70008.8872     0.26200E+01 
  70041.1494     0.26260E+01 
  70073.4115     0.26320E+01 
  70105.6737     0.26380E+01 
  70137.9358     0.26440E+01 
  70170.1980     0.26500E+01 
  70202.4602     0.26560E+01 
  70234.7223     0.26620E+01 
  70266.9845     0.26680E+01 
  70299.2466     0.26740E+01 
  70331.5088     0.26801E+01 
  70363.7710     0.26861E+01 
  70396.0331     0.26921E+01 
  70428.2953     0.26982E+01 
  70460.5574     0.27042E+01 
  70492.8196     0.27103E+01 
  70525.0818     0.27163E+01 
  70557.3439     0.27224E+01 
  70589.6061     0.27285E+01 
  70621.8682     0.27345E+01 
  70654.1304     0.27406E+01 
  70686.3926     0.27467E+01 
  70718.6547     0.27528E+01 
  70750.9169     0.27589E+01 
  70783.1790     0.27650E+01 
  70815.4412     0.27711E+01 
  70847.7034     0.27772E+01 
  70879.9655     0.27833E+01 
  70912.2277     0.27894E+01 
  70944.4898     0.27955E+01 
  70976.7520     0.28016E+01 
  71009.0142     0.28077E+01 
  71041.2763     0.28138E+01 
  71073.5385     0.28200E+01 
  71105.8006     0.28261E+01 
  71138.0628     0.28322E+01 
  71170.3250     0.28384E+01 
  71202.5871     0.28445E+01 
  71234.8493     0.28507E+01 
  71267.1114     0.28568E+01 
  71299.3736     0.28630E+01 
  71331.6358     0.28691E+01 
  71363.8979     0.28753E+01 
  71396.1601     0.28815E+01 
  71428.4222     0.28876E+01 
  71460.6844     0.28938E+01 
  71492.9466     0.29000E+01 
  71525.2087     0.29062E+01 
  71557.4709     0.29123E+01 
  71589.7330     0.29185E+01 
  71621.9952     0.29247E+01 
  71654.2574     0.29309E+01 
  71686.5195     0.29371E+01 
  71718.7817     0.29433E+01 
  71751.0438     0.29495E+01 
  71783.3060     0.29557E+01 
  71815.5682     0.29619E+01 
  71847.8303     0.29681E+01 
  71880.0925     0.29743E+01 
  71912.3546     0.29805E+01 
  71944.6168     0.29868E+01 
  71976.8790     0.29930E+01 
  72009.1411     0.29992E+01 
  72041.4033     0.30054E+01 
  72073.6654     0.30116E+01 
  72105.9276     0.30179E+01 
  72138.1898     0.30241E+01 
  72170.4519     0.30303E+01 
  72202.7141     0.30366E+01 
  72234.9762     0.30428E+01 
  72267.2384     0.30490E+01 
  72299.5006     0.30553E+01 
  72331.7627     0.30615E+01 
  72364.0249     0.30678E+01 
  72396.2870     0.30740E+01 
  72428.5492     0.30803E+01 
  72460.8114     0.30865E+01 
  72493.0735     0.30928E+01 
  72525.3357     0.30990E+01 
  72557.5978     0.31053E+01 
  72589.8600     0.31116E+01 
