  32262.1600     0.36647E+02 
  32294.4222     0.37025E+02 
  32326.6843     0.37405E+02 
  32358.9465     0.37787E+02 
  32391.2086     0.38172E+02 
  32423.4708     0.38560E+02 
  32455.7330     0.38950E+02 
  32487.9951     0.39342E+02 
  32520.2573     0.39736E+02 
  32552.5194     0.40133E+02 
  32584.7816     0.40533E+02 
  32617.0438     0.40935E+02 
  32649.3059     0.41339E+02 
  32681.5681     0.41746E+02 
  32713.8302     0.42155E+02 
  32746.0924     0.42567E+02 
  32778.3546     0.42981E+02 
  32810.6167     0.43397E+02 
  32842.8789     0.43816E+02 
  32875.1410     0.44237E+02 
  32907.4032     0.44661E+02 
  32939.6654     0.45087E+02 
  32971.9275     0.45515E+02 
  33004.1897     0.45945E+02 
  33036.4518     0.46378E+02 
  33068.7140     0.46814E+02 
  33100.9762     0.47251E+02 
  33133.2383     0.47691E+02 
  33165.5005     0.48134E+02 
  33197.7626     0.48578E+02 
  33230.0248     0.49025E+02 
  33262.2870     0.49474E+02 
  33294.5491     0.49926E+02 
  33326.8113     0.50379E+02 
  33359.0734     0.50836E+02 
  33391.3356     0.51294E+02 
  33423.5978     0.51754E+02 
  33455.8599     0.52217E+02 
  33488.1221     0.52682E+02 
  33520.3842     0.53149E+02 
  33552.6464     0.53619E+02 
  33584.9086     0.54090E+02 
  33617.1707     0.54564E+02 
  33649.4329     0.55040E+02 
  33681.6950     0.55518E+02 
  33713.9572     0.55998E+02 
  33746.2194     0.56480E+02 
  33778.4815     0.56965E+02 
  33810.7437     0.57451E+02 
  33843.0058     0.57940E+02 
  33875.2680     0.58431E+02 
  33907.5302     0.58923E+02 
  33939.7923     0.59418E+02 
  33972.0545     0.59915E+02 
  34004.3166     0.60414E+02 
  34036.5788     0.60915E+02 
  34068.8410     0.61418E+02 
  34101.1031     0.61922E+02 
  34133.3653     0.62429E+02 
  34165.6274     0.62938E+02 
  34197.8896     0.63448E+02 
  34230.1518     0.63961E+02 
  34262.4139     0.64475E+02 
  34294.6761     0.64991E+02 
  34326.9382     0.65509E+02 
  34359.2004     0.66029E+02 
  34391.4626     0.66551E+02 
  34423.7247     0.67075E+02 
  34455.9869     0.67600E+02 
  34488.2490     0.68127E+02 
  34520.5112     0.68656E+02 
  34552.7734     0.69186E+02 
  34585.0355     0.69718E+02 
  34617.2977     0.70252E+02 
  34649.5598     0.70788E+02 
  34681.8220     0.71325E+02 
  34714.0842     0.71864E+02 
  34746.3463     0.72404E+02 
  34778.6085     0.72946E+02 
  34810.8706     0.73490E+02 
  34843.1328     0.74035E+02 
  34875.3950     0.74581E+02 
  34907.6571     0.75129E+02 
  34939.9193     0.75679E+02 
  34972.1814     0.76230E+02 
  35004.4436     0.76782E+02 
  35036.7058     0.77336E+02 
  35068.9679     0.77891E+02 
  35101.2301     0.78448E+02 
  35133.4922     0.79005E+02 
  35165.7544     0.79564E+02 
  35198.0166     0.80125E+02 
  35230.2787     0.80687E+02 
  35262.5409     0.81249E+02 
  35294.8030     0.81813E+02 
  35327.0652     0.82379E+02 
  35359.3274     0.82945E+02 
  35391.5895     0.83513E+02 
  35423.8517     0.84081E+02 
  35456.1138     0.84651E+02 
  35488.3760     0.85222E+02 
  35520.6382     0.85794E+02 
  35552.9003     0.86366E+02 
  35585.1625     0.86940E+02 
  35617.4246     0.87515E+02 
  35649.6868     0.88091E+02 
  35681.9490     0.88667E+02 
  35714.2111     0.89244E+02 
  35746.4733     0.89823E+02 
  35778.7354     0.90402E+02 
  35810.9976     0.90982E+02 
  35843.2598     0.91562E+02 
  35875.5219     0.92143E+02 
  35907.7841     0.92725E+02 
  35940.0462     0.93308E+02 
  35972.3084     0.93891E+02 
  36004.5706     0.94475E+02 
  36036.8327     0.95060E+02 
  36069.0949     0.95645E+02 
  36101.3570     0.96230E+02 
  36133.6192     0.96816E+02 
  36165.8814     0.97403E+02 
  36198.1435     0.97990E+02 
  36230.4057     0.98577E+02 
  36262.6678     0.99165E+02 
  36294.9300     0.99753E+02 
  36327.1922     0.10034E+03 
  36359.4543     0.10093E+03 
  36391.7165     0.10152E+03 
  36423.9786     0.10211E+03 
  36456.2408     0.10270E+03 
  36488.5030     0.10329E+03 
  36520.7651     0.10388E+03 
  36553.0273     0.10447E+03 
  36585.2894     0.10506E+03 
  36617.5516     0.10565E+03 
  36649.8138     0.10623E+03 
  36682.0759     0.10682E+03 
  36714.3381     0.10741E+03 
  36746.6002     0.10800E+03 
  36778.8624     0.10859E+03 
  36811.1246     0.10918E+03 
  36843.3867     0.10977E+03 
  36875.6489     0.11036E+03 
  36907.9110     0.11095E+03 
  36940.1732     0.11154E+03 
  36972.4354     0.11213E+03 
  37004.6975     0.11271E+03 
  37036.9597     0.11330E+03 
  37069.2218     0.11389E+03 
  37101.4840     0.11447E+03 
  37133.7462     0.11506E+03 
  37166.0083     0.11564E+03 
  37198.2705     0.11623E+03 
  37230.5326     0.11681E+03 
  37262.7948     0.11740E+03 
  37295.0570     0.11798E+03 
  37327.3191     0.11856E+03 
  37359.5813     0.11914E+03 
  37391.8434     0.11973E+03 
  37424.1056     0.12031E+03 
  37456.3678     0.12088E+03 
  37488.6299     0.12146E+03 
  37520.8921     0.12204E+03 
  37553.1542     0.12262E+03 
  37585.4164     0.12319E+03 
  37617.6786     0.12377E+03 
  37649.9407     0.12434E+03 
  37682.2029     0.12491E+03 
  37714.4650     0.12549E+03 
  37746.7272     0.12606E+03 
  37778.9894     0.12663E+03 
  37811.2515     0.12719E+03 
  37843.5137     0.12776E+03 
  37875.7758     0.12833E+03 
  37908.0380     0.12889E+03 
  37940.3002     0.12945E+03 
  37972.5623     0.13001E+03 
  38004.8245     0.13058E+03 
  38037.0866     0.13113E+03 
  38069.3488     0.13169E+03 
  38101.6110     0.13225E+03 
  38133.8731     0.13280E+03 
  38166.1353     0.13336E+03 
  38198.3974     0.13391E+03 
  38230.6596     0.13446E+03 
  38262.9218     0.13500E+03 
  38295.1839     0.13555E+03 
  38327.4461     0.13610E+03 
  38359.7082     0.13664E+03 
  38391.9704     0.13718E+03 
  38424.2326     0.13772E+03 
  38456.4947     0.13826E+03 
  38488.7569     0.13879E+03 
  38521.0190     0.13933E+03 
  38553.2812     0.13986E+03 
  38585.5434     0.14039E+03 
  38617.8055     0.14092E+03 
  38650.0677     0.14144E+03 
  38682.3298     0.14197E+03 
  38714.5920     0.14249E+03 
  38746.8542     0.14301E+03 
  38779.1163     0.14353E+03 
  38811.3785     0.14404E+03 
  38843.6406     0.14455E+03 
  38875.9028     0.14507E+03 
  38908.1650     0.14557E+03 
  38940.4271     0.14608E+03 
  38972.6893     0.14658E+03 
  39004.9514     0.14709E+03 
  39037.2136     0.14759E+03 
  39069.4758     0.14808E+03 
  39101.7379     0.14858E+03 
  39134.0001     0.14907E+03 
  39166.2622     0.14956E+03 
  39198.5244     0.15005E+03 
  39230.7866     0.15053E+03 
  39263.0487     0.15101E+03 
  39295.3109     0.15149E+03 
  39327.5730     0.15197E+03 
  39359.8352     0.15244E+03 
  39392.0974     0.15291E+03 
  39424.3595     0.15338E+03 
  39456.6217     0.15385E+03 
  39488.8838     0.15431E+03 
  39521.1460     0.15477E+03 
  39553.4082     0.15523E+03 
  39585.6703     0.15568E+03 
  39617.9325     0.15613E+03 
  39650.1946     0.15658E+03 
  39682.4568     0.15703E+03 
  39714.7190     0.15747E+03 
  39746.9811     0.15791E+03 
  39779.2433     0.15835E+03 
  39811.5054     0.15878E+03 
  39843.7676     0.15921E+03 
  39876.0298     0.15964E+03 
  39908.2919     0.16006E+03 
  39940.5541     0.16048E+03 
  39972.8162     0.16090E+03 
  40005.0784     0.16131E+03 
  40037.3406     0.16173E+03 
  40069.6027     0.16213E+03 
  40101.8649     0.16254E+03 
  40134.1270     0.16294E+03 
  40166.3892     0.16334E+03 
  40198.6514     0.16373E+03 
  40230.9135     0.16413E+03 
  40263.1757     0.16451E+03 
  40295.4378     0.16490E+03 
  40327.7000     0.16528E+03 
  40359.9622     0.16566E+03 
  40392.2243     0.16603E+03 
  40424.4865     0.16640E+03 
  40456.7486     0.16677E+03 
  40489.0108     0.16713E+03 
  40521.2730     0.16749E+03 
  40553.5351     0.16785E+03 
  40585.7973     0.16820E+03 
  40618.0594     0.16855E+03 
  40650.3216     0.16890E+03 
  40682.5838     0.16924E+03 
  40714.8459     0.16958E+03 
  40747.1081     0.16992E+03 
  40779.3702     0.17025E+03 
  40811.6324     0.17057E+03 
  40843.8946     0.17090E+03 
  40876.1567     0.17122E+03 
  40908.4189     0.17153E+03 
  40940.6810     0.17185E+03 
  40972.9432     0.17216E+03 
  41005.2054     0.17246E+03 
  41037.4675     0.17276E+03 
  41069.7297     0.17306E+03 
  41101.9918     0.17335E+03 
  41134.2540     0.17364E+03 
  41166.5162     0.17393E+03 
  41198.7783     0.17421E+03 
  41231.0405     0.17449E+03 
  41263.3026     0.17476E+03 
  41295.5648     0.17503E+03 
  41327.8270     0.17529E+03 
  41360.0891     0.17556E+03 
  41392.3513     0.17581E+03 
  41424.6134     0.17607E+03 
  41456.8756     0.17632E+03 
  41489.1378     0.17656E+03 
  41521.3999     0.17681E+03 
  41553.6621     0.17704E+03 
  41585.9242     0.17728E+03 
  41618.1864     0.17751E+03 
  41650.4486     0.17773E+03 
  41682.7107     0.17795E+03 
  41714.9729     0.17817E+03 
  41747.2350     0.17838E+03 
  41779.4972     0.17859E+03 
  41811.7594     0.17880E+03 
  41844.0215     0.17900E+03 
  41876.2837     0.17919E+03 
  41908.5458     0.17939E+03 
  41940.8080     0.17957E+03 
  41973.0702     0.17976E+03 
  42005.3323     0.17994E+03 
  42037.5945     0.18011E+03 
  42069.8566     0.18028E+03 
  42102.1188     0.18045E+03 
  42134.3810     0.18061E+03 
  42166.6431     0.18077E+03 
  42198.9053     0.18093E+03 
  42231.1674     0.18108E+03 
  42263.4296     0.18122E+03 
  42295.6918     0.18137E+03 
  42327.9539     0.18150E+03 
  42360.2161     0.18164E+03 
  42392.4782     0.18177E+03 
  42424.7404     0.18189E+03 
  42457.0026     0.18201E+03 
  42489.2647     0.18213E+03 
  42521.5269     0.18224E+03 
  42553.7890     0.18235E+03 
  42586.0512     0.18245E+03 
  42618.3134     0.18255E+03 
  42650.5755     0.18265E+03 
  42682.8377     0.18274E+03 
  42715.0998     0.18282E+03 
  42747.3620     0.18290E+03 
  42779.6242     0.18298E+03 
  42811.8863     0.18306E+03 
  42844.1485     0.18313E+03 
  42876.4106     0.18319E+03 
  42908.6728     0.18325E+03 
  42940.9350     0.18331E+03 
  42973.1971     0.18336E+03 
  43005.4593     0.18341E+03 
  43037.7214     0.18345E+03 
  43069.9836     0.18349E+03 
  43102.2458     0.18353E+03 
  43134.5079     0.18356E+03 
  43166.7701     0.18359E+03 
  43199.0322     0.18361E+03 
  43231.2944     0.18363E+03 
  43263.5566     0.18364E+03 
  43295.8187     0.18365E+03 
  43328.0809     0.18366E+03 
  43360.3430     0.18366E+03 
  43392.6052     0.18366E+03 
  43424.8674     0.18365E+03 
  43457.1295     0.18364E+03 
  43489.3917     0.18362E+03 
  43521.6538     0.18361E+03 
  43553.9160     0.18358E+03 
  43586.1782     0.18355E+03 
  43618.4403     0.18352E+03 
  43650.7025     0.18349E+03 
  43682.9646     0.18345E+03 
  43715.2268     0.18340E+03 
  43747.4890     0.18335E+03 
  43779.7511     0.18330E+03 
  43812.0133     0.18324E+03 
  43844.2754     0.18318E+03 
  43876.5376     0.18312E+03 
  43908.7998     0.18305E+03 
  43941.0619     0.18298E+03 
  43973.3241     0.18290E+03 
  44005.5862     0.18282E+03 
  44037.8484     0.18273E+03 
  44070.1106     0.18264E+03 
  44102.3727     0.18255E+03 
  44134.6349     0.18245E+03 
  44166.8970     0.18235E+03 
  44199.1592     0.18225E+03 
  44231.4214     0.18214E+03 
  44263.6835     0.18203E+03 
  44295.9457     0.18191E+03 
  44328.2078     0.18179E+03 
  44360.4700     0.18166E+03 
  44392.7322     0.18153E+03 
  44424.9943     0.18140E+03 
  44457.2565     0.18126E+03 
  44489.5186     0.18112E+03 
  44521.7808     0.18098E+03 
  44554.0430     0.18083E+03 
  44586.3051     0.18068E+03 
  44618.5673     0.18052E+03 
  44650.8294     0.18036E+03 
  44683.0916     0.18020E+03 
  44715.3538     0.18003E+03 
  44747.6159     0.17986E+03 
  44779.8781     0.17969E+03 
  44812.1402     0.17951E+03 
  44844.4024     0.17933E+03 
  44876.6646     0.17914E+03 
  44908.9267     0.17895E+03 
  44941.1889     0.17876E+03 
  44973.4510     0.17856E+03 
  45005.7132     0.17836E+03 
  45037.9754     0.17816E+03 
  45070.2375     0.17795E+03 
  45102.4997     0.17774E+03 
  45134.7618     0.17752E+03 
  45167.0240     0.17731E+03 
  45199.2862     0.17708E+03 
  45231.5483     0.17686E+03 
  45263.8105     0.17663E+03 
  45296.0726     0.17640E+03 
  45328.3348     0.17616E+03 
  45360.5970     0.17592E+03 
  45392.8591     0.17568E+03 
  45425.1213     0.17543E+03 
  45457.3834     0.17519E+03 
  45489.6456     0.17493E+03 
  45521.9078     0.17468E+03 
  45554.1699     0.17442E+03 
  45586.4321     0.17416E+03 
  45618.6942     0.17389E+03 
  45650.9564     0.17362E+03 
  45683.2186     0.17335E+03 
  45715.4807     0.17307E+03 
  45747.7429     0.17279E+03 
  45780.0050     0.17251E+03 
  45812.2672     0.17223E+03 
  45844.5294     0.17194E+03 
  45876.7915     0.17165E+03 
  45909.0537     0.17135E+03 
  45941.3158     0.17106E+03 
  45973.5780     0.17076E+03 
  46005.8402     0.17045E+03 
  46038.1023     0.17015E+03 
  46070.3645     0.16984E+03 
  46102.6266     0.16953E+03 
  46134.8888     0.16921E+03 
  46167.1510     0.16889E+03 
  46199.4131     0.16857E+03 
  46231.6753     0.16825E+03 
  46263.9374     0.16792E+03 
  46296.1996     0.16759E+03 
  46328.4618     0.16726E+03 
  46360.7239     0.16692E+03 
  46392.9861     0.16659E+03 
  46425.2482     0.16624E+03 
  46457.5104     0.16590E+03 
  46489.7726     0.16556E+03 
  46522.0347     0.16521E+03 
  46554.2969     0.16486E+03 
  46586.5590     0.16450E+03 
  46618.8212     0.16414E+03 
  46651.0834     0.16379E+03 
  46683.3455     0.16342E+03 
  46715.6077     0.16306E+03 
  46747.8698     0.16269E+03 
  46780.1320     0.16232E+03 
  46812.3942     0.16195E+03 
  46844.6563     0.16158E+03 
  46876.9185     0.16120E+03 
  46909.1806     0.16082E+03 
  46941.4428     0.16044E+03 
  46973.7050     0.16006E+03 
  47005.9671     0.15967E+03 
  47038.2293     0.15928E+03 
  47070.4914     0.15889E+03 
  47102.7536     0.15850E+03 
  47135.0158     0.15811E+03 
  47167.2779     0.15771E+03 
  47199.5401     0.15731E+03 
  47231.8022     0.15691E+03 
  47264.0644     0.15651E+03 
  47296.3266     0.15610E+03 
  47328.5887     0.15569E+03 
  47360.8509     0.15528E+03 
  47393.1130     0.15487E+03 
  47425.3752     0.15446E+03 
  47457.6374     0.15404E+03 
  47489.8995     0.15362E+03 
  47522.1617     0.15320E+03 
  47554.4238     0.15278E+03 
  47586.6860     0.15236E+03 
  47618.9482     0.15193E+03 
  47651.2103     0.15151E+03 
  47683.4725     0.15108E+03 
  47715.7346     0.15065E+03 
  47747.9968     0.15022E+03 
  47780.2590     0.14978E+03 
  47812.5211     0.14935E+03 
  47844.7833     0.14891E+03 
  47877.0454     0.14847E+03 
  47909.3076     0.14803E+03 
  47941.5698     0.14758E+03 
  47973.8319     0.14714E+03 
  48006.0941     0.14670E+03 
  48038.3562     0.14625E+03 
  48070.6184     0.14580E+03 
  48102.8806     0.14535E+03 
  48135.1427     0.14490E+03 
  48167.4049     0.14444E+03 
  48199.6670     0.14399E+03 
  48231.9292     0.14353E+03 
  48264.1914     0.14308E+03 
  48296.4535     0.14262E+03 
  48328.7157     0.14216E+03 
  48360.9778     0.14170E+03 
  48393.2400     0.14123E+03 
  48425.5022     0.14077E+03 
  48457.7643     0.14031E+03 
  48490.0265     0.13984E+03 
  48522.2886     0.13937E+03 
  48554.5508     0.13890E+03 
  48586.8130     0.13843E+03 
  48619.0751     0.13796E+03 
  48651.3373     0.13749E+03 
  48683.5994     0.13702E+03 
  48715.8616     0.13654E+03 
  48748.1238     0.13607E+03 
  48780.3859     0.13559E+03 
  48812.6481     0.13511E+03 
  48844.9102     0.13464E+03 
  48877.1724     0.13416E+03 
  48909.4346     0.13368E+03 
  48941.6967     0.13320E+03 
  48973.9589     0.13271E+03 
  49006.2210     0.13223E+03 
  49038.4832     0.13175E+03 
  49070.7454     0.13126E+03 
  49103.0075     0.13078E+03 
  49135.2697     0.13029E+03 
  49167.5318     0.12981E+03 
  49199.7940     0.12932E+03 
  49232.0562     0.12883E+03 
  49264.3183     0.12834E+03 
  49296.5805     0.12785E+03 
  49328.8426     0.12736E+03 
  49361.1048     0.12687E+03 
  49393.3670     0.12638E+03 
  49425.6291     0.12589E+03 
  49457.8913     0.12540E+03 
  49490.1534     0.12491E+03 
  49522.4156     0.12441E+03 
  49554.6778     0.12392E+03 
  49586.9399     0.12343E+03 
  49619.2021     0.12293E+03 
  49651.4642     0.12244E+03 
  49683.7264     0.12194E+03 
  49715.9886     0.12145E+03 
  49748.2507     0.12095E+03 
  49780.5129     0.12045E+03 
  49812.7750     0.11996E+03 
  49845.0372     0.11946E+03 
  49877.2994     0.11896E+03 
  49909.5615     0.11846E+03 
  49941.8237     0.11797E+03 
  49974.0858     0.11747E+03 
  50006.3480     0.11697E+03 
  50038.6102     0.11647E+03 
  50070.8723     0.11597E+03 
  50103.1345     0.11547E+03 
  50135.3966     0.11498E+03 
  50167.6588     0.11448E+03 
  50199.9210     0.11398E+03 
  50232.1831     0.11348E+03 
  50264.4453     0.11298E+03 
  50296.7074     0.11248E+03 
  50328.9696     0.11198E+03 
  50361.2318     0.11148E+03 
  50393.4939     0.11098E+03 
  50425.7561     0.11049E+03 
  50458.0182     0.10999E+03 
  50490.2804     0.10949E+03 
  50522.5426     0.10899E+03 
  50554.8047     0.10849E+03 
  50587.0669     0.10799E+03 
  50619.3290     0.10749E+03 
  50651.5912     0.10700E+03 
  50683.8534     0.10650E+03 
  50716.1155     0.10600E+03 
  50748.3777     0.10550E+03 
  50780.6398     0.10501E+03 
  50812.9020     0.10451E+03 
  50845.1642     0.10401E+03 
  50877.4263     0.10352E+03 
  50909.6885     0.10302E+03 
  50941.9506     0.10252E+03 
  50974.2128     0.10203E+03 
  51006.4750     0.10153E+03 
  51038.7371     0.10104E+03 
  51070.9993     0.10054E+03 
  51103.2614     0.10005E+03 
  51135.5236     0.99557E+02 
  51167.7858     0.99064E+02 
  51200.0479     0.98571E+02 
  51232.3101     0.98079E+02 
  51264.5722     0.97588E+02 
  51296.8344     0.97097E+02 
  51329.0966     0.96606E+02 
  51361.3587     0.96116E+02 
  51393.6209     0.95626E+02 
  51425.8830     0.95137E+02 
  51458.1452     0.94649E+02 
  51490.4074     0.94161E+02 
  51522.6695     0.93674E+02 
  51554.9317     0.93187E+02 
  51587.1938     0.92702E+02 
  51619.4560     0.92216E+02 
  51651.7182     0.91731E+02 
  51683.9803     0.91247E+02 
  51716.2425     0.90764E+02 
  51748.5046     0.90282E+02 
  51780.7668     0.89800E+02 
  51813.0290     0.89318E+02 
  51845.2911     0.88838E+02 
  51877.5533     0.88358E+02 
  51909.8154     0.87879E+02 
  51942.0776     0.87401E+02 
  51974.3398     0.86924E+02 
  52006.6019     0.86447E+02 
  52038.8641     0.85971E+02 
  52071.1262     0.85496E+02 
  52103.3884     0.85022E+02 
  52135.6506     0.84549E+02 
  52167.9127     0.84076E+02 
  52200.1749     0.83605E+02 
  52232.4370     0.83134E+02 
  52264.6992     0.82664E+02 
  52296.9614     0.82195E+02 
  52329.2235     0.81727E+02 
  52361.4857     0.81260E+02 
  52393.7478     0.80794E+02 
  52426.0100     0.80329E+02 
  52458.2722     0.79864E+02 
  52490.5343     0.79401E+02 
  52522.7965     0.78939E+02 
  52555.0586     0.78477E+02 
  52587.3208     0.78017E+02 
  52619.5830     0.77558E+02 
  52651.8451     0.77099E+02 
  52684.1073     0.76642E+02 
  52716.3694     0.76186E+02 
  52748.6316     0.75730E+02 
  52780.8938     0.75276E+02 
  52813.1559     0.74823E+02 
  52845.4181     0.74371E+02 
  52877.6802     0.73920E+02 
  52909.9424     0.73470E+02 
  52942.2046     0.73021E+02 
  52974.4667     0.72574E+02 
  53006.7289     0.72127E+02 
  53038.9910     0.71681E+02 
  53071.2532     0.71237E+02 
  53103.5154     0.70794E+02 
  53135.7775     0.70352E+02 
  53168.0397     0.69911E+02 
  53200.3018     0.69471E+02 
  53232.5640     0.69033E+02 
  53264.8262     0.68595E+02 
  53297.0883     0.68159E+02 
  53329.3505     0.67724E+02 
  53361.6126     0.67290E+02 
  53393.8748     0.66857E+02 
  53426.1370     0.66426E+02 
  53458.3991     0.65996E+02 
  53490.6613     0.65567E+02 
  53522.9234     0.65139E+02 
  53555.1856     0.64712E+02 
  53587.4478     0.64287E+02 
  53619.7099     0.63863E+02 
  53651.9721     0.63440E+02 
  53684.2342     0.63019E+02 
  53716.4964     0.62598E+02 
  53748.7586     0.62180E+02 
  53781.0207     0.61762E+02 
  53813.2829     0.61345E+02 
  53845.5450     0.60930E+02 
  53877.8072     0.60516E+02 
  53910.0694     0.60104E+02 
  53942.3315     0.59693E+02 
  53974.5937     0.59283E+02 
  54006.8558     0.58874E+02 
  54039.1180     0.58467E+02 
  54071.3802     0.58061E+02 
  54103.6423     0.57656E+02 
  54135.9045     0.57253E+02 
  54168.1666     0.56851E+02 
  54200.4288     0.56450E+02 
  54232.6910     0.56051E+02 
  54264.9531     0.55653E+02 
  54297.2153     0.55257E+02 
  54329.4774     0.54862E+02 
  54361.7396     0.54468E+02 
  54394.0018     0.54075E+02 
  54426.2639     0.53684E+02 
  54458.5261     0.53294E+02 
  54490.7882     0.52906E+02 
  54523.0504     0.52519E+02 
  54555.3126     0.52134E+02 
  54587.5747     0.51749E+02 
  54619.8369     0.51367E+02 
  54652.0990     0.50985E+02 
  54684.3612     0.50605E+02 
  54716.6234     0.50227E+02 
  54748.8855     0.49850E+02 
  54781.1477     0.49474E+02 
  54813.4098     0.49099E+02 
  54845.6720     0.48727E+02 
  54877.9342     0.48355E+02 
  54910.1963     0.47985E+02 
  54942.4585     0.47616E+02 
  54974.7206     0.47249E+02 
  55006.9828     0.46883E+02 
  55039.2450     0.46519E+02 
  55071.5071     0.46156E+02 
  55103.7693     0.45794E+02 
  55136.0314     0.45434E+02 
  55168.2936     0.45075E+02 
  55200.5558     0.44718E+02 
  55232.8179     0.44362E+02 
  55265.0801     0.44008E+02 
  55297.3422     0.43655E+02 
  55329.6044     0.43303E+02 
  55361.8666     0.42953E+02 
  55394.1287     0.42605E+02 
  55426.3909     0.42258E+02 
  55458.6530     0.41912E+02 
  55490.9152     0.41568E+02 
  55523.1774     0.41225E+02 
  55555.4395     0.40884E+02 
  55587.7017     0.40544E+02 
  55619.9638     0.40205E+02 
  55652.2260     0.39868E+02 
  55684.4882     0.39533E+02 
  55716.7503     0.39199E+02 
  55749.0125     0.38866E+02 
  55781.2746     0.38535E+02 
  55813.5368     0.38205E+02 
  55845.7990     0.37877E+02 
  55878.0611     0.37550E+02 
  55910.3233     0.37225E+02 
  55942.5854     0.36901E+02 
  55974.8476     0.36578E+02 
  56007.1098     0.36257E+02 
  56039.3719     0.35938E+02 
  56071.6341     0.35620E+02 
  56103.8962     0.35303E+02 
  56136.1584     0.34988E+02 
  56168.4206     0.34674E+02 
  56200.6827     0.34362E+02 
  56232.9449     0.34052E+02 
  56265.2070     0.33742E+02 
  56297.4692     0.33434E+02 
  56329.7314     0.33128E+02 
  56361.9935     0.32823E+02 
  56394.2557     0.32520E+02 
  56426.5178     0.32218E+02 
  56458.7800     0.31917E+02 
  56491.0422     0.31618E+02 
  56523.3043     0.31320E+02 
  56555.5665     0.31024E+02 
  56587.8286     0.30730E+02 
  56620.0908     0.30436E+02 
  56652.3530     0.30145E+02 
  56684.6151     0.29854E+02 
  56716.8773     0.29565E+02 
  56749.1394     0.29278E+02 
  56781.4016     0.28992E+02 
  56813.6638     0.28707E+02 
  56845.9259     0.28424E+02 
  56878.1881     0.28143E+02 
  56910.4502     0.27862E+02 
  56942.7124     0.27584E+02 
  56974.9746     0.27306E+02 
  57007.2367     0.27031E+02 
  57039.4989     0.26756E+02 
  57071.7610     0.26483E+02 
  57104.0232     0.26212E+02 
  57136.2854     0.25942E+02 
  57168.5475     0.25673E+02 
  57200.8097     0.25406E+02 
  57233.0718     0.25140E+02 
  57265.3340     0.24876E+02 
  57297.5962     0.24613E+02 
  57329.8583     0.24352E+02 
  57362.1205     0.24092E+02 
  57394.3826     0.23833E+02 
  57426.6448     0.23576E+02 
  57458.9070     0.23320E+02 
  57491.1691     0.23066E+02 
  57523.4313     0.22813E+02 
  57555.6934     0.22562E+02 
  57587.9556     0.22312E+02 
  57620.2178     0.22063E+02 
  57652.4799     0.21816E+02 
  57684.7421     0.21571E+02 
  57717.0042     0.21326E+02 
  57749.2664     0.21084E+02 
  57781.5286     0.20842E+02 
  57813.7907     0.20602E+02 
  57846.0529     0.20364E+02 
  57878.3150     0.20127E+02 
  57910.5772     0.19891E+02 
  57942.8394     0.19657E+02 
  57975.1015     0.19424E+02 
  58007.3637     0.19192E+02 
  58039.6258     0.18962E+02 
  58071.8880     0.18734E+02 
  58104.1502     0.18507E+02 
  58136.4123     0.18281E+02 
  58168.6745     0.18056E+02 
  58200.9366     0.17833E+02 
  58233.1988     0.17612E+02 
  58265.4610     0.17392E+02 
  58297.7231     0.17173E+02 
  58329.9853     0.16956E+02 
  58362.2474     0.16740E+02 
  58394.5096     0.16526E+02 
  58426.7718     0.16313E+02 
  58459.0339     0.16101E+02 
  58491.2961     0.15891E+02 
  58523.5582     0.15682E+02 
  58555.8204     0.15475E+02 
  58588.0826     0.15269E+02 
  58620.3447     0.15064E+02 
  58652.6069     0.14861E+02 
  58684.8690     0.14659E+02 
  58717.1312     0.14459E+02 
  58749.3934     0.14260E+02 
  58781.6555     0.14063E+02 
  58813.9177     0.13867E+02 
  58846.1798     0.13672E+02 
  58878.4420     0.13479E+02 
  58910.7042     0.13287E+02 
  58942.9663     0.13096E+02 
  58975.2285     0.12907E+02 
  59007.4906     0.12720E+02 
  59039.7528     0.12534E+02 
  59072.0150     0.12349E+02 
  59104.2771     0.12166E+02 
  59136.5393     0.11984E+02 
  59168.8014     0.11803E+02 
  59201.0636     0.11624E+02 
  59233.3258     0.11447E+02 
  59265.5879     0.11271E+02 
  59297.8501     0.11096E+02 
  59330.1122     0.10923E+02 
  59362.3744     0.10751E+02 
  59394.6366     0.10580E+02 
  59426.8987     0.10411E+02 
  59459.1609     0.10244E+02 
  59491.4230     0.10078E+02 
  59523.6852     0.99133E+01 
  59555.9474     0.97501E+01 
  59588.2095     0.95884E+01 
  59620.4717     0.94281E+01 
  59652.7338     0.92693E+01 
  59684.9960     0.91119E+01 
  59717.2582     0.89561E+01 
  59749.5203     0.88017E+01 
  59781.7825     0.86487E+01 
  59814.0446     0.84973E+01 
  59846.3068     0.83473E+01 
  59878.5690     0.81989E+01 
  59910.8311     0.80519E+01 
  59943.0933     0.79064E+01 
  59975.3554     0.77624E+01 
  60007.6176     0.76199E+01 
  60039.8798     0.74789E+01 
  60072.1419     0.73395E+01 
  60104.4041     0.72015E+01 
  60136.6662     0.70651E+01 
  60168.9284     0.69303E+01 
  60201.1906     0.67969E+01 
  60233.4527     0.66651E+01 
  60265.7149     0.65349E+01 
  60297.9770     0.64062E+01 
  60330.2392     0.62791E+01 
  60362.5014     0.61536E+01 
  60394.7635     0.60296E+01 
  60427.0257     0.59072E+01 
  60459.2878     0.57864E+01 
  60491.5500     0.56673E+01 
  60523.8122     0.55497E+01 
  60556.0743     0.54338E+01 
  60588.3365     0.53194E+01 
  60620.5986     0.52068E+01 
  60652.8608     0.50957E+01 
  60685.1230     0.49863E+01 
  60717.3851     0.48786E+01 
  60749.6473     0.47726E+01 
  60781.9094     0.46682E+01 
  60814.1716     0.45655E+01 
  60846.4338     0.44646E+01 
  60878.6959     0.43653E+01 
  60910.9581     0.42678E+01 
  60943.2202     0.41721E+01 
  60975.4824     0.40780E+01 
  61007.7446     0.39858E+01 
  61040.0067     0.38953E+01 
  61072.2689     0.38066E+01 
  61104.5310     0.37197E+01 
  61136.7932     0.36346E+01 
  61169.0554     0.35514E+01 
  61201.3175     0.34700E+01 
  61233.5797     0.33904E+01 
  61265.8418     0.33128E+01 
  61298.1040     0.32370E+01 
  61330.3662     0.31631E+01 
  61362.6283     0.30911E+01 
  61394.8905     0.30211E+01 
  61427.1526     0.29530E+01 
  61459.4148     0.28869E+01 
  61491.6770     0.28228E+01 
  61523.9391     0.27607E+01 
  61556.2013     0.27006E+01 
  61588.4634     0.26425E+01 
  61620.7256     0.25865E+01 
  61652.9878     0.25326E+01 
  61685.2499     0.24807E+01 
  61717.5121     0.24310E+01 
  61749.7742     0.23834E+01 
  61782.0364     0.23380E+01 
  61814.2986     0.22948E+01 
  61846.5607     0.22537E+01 
  61878.8229     0.22149E+01 
  61911.0850     0.21783E+01 
  61943.3472     0.21440E+01 
  61975.6094     0.21120E+01 
  62007.8715     0.20823E+01 
  62040.1337     0.20550E+01 
  62072.3958     0.20300E+01 
  62104.6580     0.20074E+01 
  62136.9202     0.19872E+01 
  62169.1823     0.19695E+01 
  62201.4445     0.19542E+01 
  62233.7066     0.19415E+01 
  62265.9688     0.19312E+01 
  62298.2310     0.19236E+01 
  62330.4931     0.19185E+01 
  62362.7553     0.19160E+01 
  62395.0174     0.19161E+01 
  62427.2796     0.19190E+01 
  62459.5418     0.19245E+01 
  62491.8039     0.19328E+01 
  62524.0661     0.19439E+01 
  62556.3282     0.19577E+01 
  62588.5904     0.19744E+01 
  62620.8526     0.19940E+01 
  62653.1147     0.20165E+01 
  62685.3769     0.20419E+01 
  62717.6390     0.20703E+01 
  62749.9012     0.21017E+01 
  62782.1634     0.21362E+01 
  62814.4255     0.21737E+01 
  62846.6877     0.22144E+01 
  62878.9498     0.22582E+01 
  62911.2120     0.23053E+01 
  62943.4742     0.23556E+01 
  62975.7363     0.24092E+01 
  63007.9985     0.24661E+01 
  63040.2606     0.25265E+01 
  63072.5228     0.25902E+01 
  63104.7850     0.26574E+01 
  63137.0471     0.27281E+01 
  63169.3093     0.28023E+01 
  63201.5714     0.28802E+01 
  63233.8336     0.29617E+01 
  63266.0958     0.30469E+01 
  63298.3579     0.31358E+01 
  63330.6201     0.32285E+01 
  63362.8822     0.33251E+01 
  63395.1444     0.34255E+01 
  63427.4066     0.35300E+01 
  63459.6687     0.36384E+01 
  63491.9309     0.37508E+01 
  63524.1930     0.38674E+01 
  63556.4552     0.39881E+01 
  63588.7174     0.41130E+01 
  63620.9795     0.42422E+01 
  63653.2417     0.43758E+01 
  63685.5038     0.45137E+01 
  63717.7660     0.46560E+01 
  63750.0282     0.48029E+01 
  63782.2903     0.49543E+01 
  63814.5525     0.51104E+01 
  63846.8146     0.52712E+01 
  63879.0768     0.54367E+01 
  63911.3390     0.56070E+01 
  63943.6011     0.57822E+01 
  63975.8633     0.59624E+01 
  64008.1254     0.61476E+01 
  64040.3876     0.63378E+01 
  64072.6498     0.65332E+01 
  64104.9119     0.67339E+01 
  64137.1741     0.69398E+01 
  64169.4362     0.71511E+01 
  64201.6984     0.73678E+01 
  64233.9606     0.75901E+01 
  64266.2227     0.78179E+01 
  64298.4849     0.80514E+01 
  64330.7470     0.82907E+01 
  64363.0092     0.85357E+01 
  64395.2714     0.87867E+01 
  64427.5335     0.90436E+01 
  64459.7957     0.93066E+01 
  64492.0578     0.95757E+01 
  64524.3200     0.98510E+01 
  64556.5822     0.10133E+02 
  64588.8443     0.10421E+02 
  64621.1065     0.10715E+02 
  64653.3686     0.11016E+02 
  64685.6308     0.11324E+02 
  64717.8930     0.11638E+02 
  64750.1551     0.11960E+02 
  64782.4173     0.12288E+02 
  64814.6794     0.12623E+02 
  64846.9416     0.12965E+02 
  64879.2038     0.13315E+02 
  64911.4659     0.13671E+02 
  64943.7281     0.14036E+02 
  64975.9902     0.14407E+02 
  65008.2524     0.14786E+02 
  65040.5146     0.15173E+02 
  65072.7767     0.15568E+02 
  65105.0389     0.15971E+02 
  65137.3010     0.16381E+02 
  65169.5632     0.16800E+02 
  65201.8254     0.17227E+02 
  65234.0875     0.17662E+02 
  65266.3497     0.18105E+02 
  65298.6118     0.18558E+02 
  65330.8740     0.19018E+02 
  65363.1362     0.19488E+02 
  65395.3983     0.19966E+02 
  65427.6605     0.20453E+02 
  65459.9226     0.20950E+02 
  65492.1848     0.21455E+02 
  65524.4470     0.21970E+02 
  65556.7091     0.22494E+02 
  65588.9713     0.23028E+02 
  65621.2334     0.23572E+02 
  65653.4956     0.24125E+02 
  65685.7578     0.24688E+02 
  65718.0199     0.25262E+02 
  65750.2821     0.25845E+02 
  65782.5442     0.26439E+02 
  65814.8064     0.27043E+02 
  65847.0686     0.27657E+02 
  65879.3307     0.28283E+02 
  65911.5929     0.28919E+02 
  65943.8550     0.29566E+02 
  65976.1172     0.30224E+02 
  66008.3794     0.30893E+02 
  66040.6415     0.31574E+02 
  66072.9037     0.32266E+02 
  66105.1658     0.32970E+02 
  66137.4280     0.33685E+02 
  66169.6902     0.34413E+02 
  66201.9523     0.35152E+02 
  66234.2145     0.35904E+02 
  66266.4766     0.36668E+02 
  66298.7388     0.37444E+02 
  66331.0010     0.38233E+02 
  66363.2631     0.39035E+02 
  66395.5253     0.39849E+02 
  66427.7874     0.40677E+02 
  66460.0496     0.41518E+02 
  66492.3118     0.42372E+02 
  66524.5739     0.43239E+02 
  66556.8361     0.44121E+02 
  66589.0982     0.45016E+02 
  66621.3604     0.45925E+02 
  66653.6226     0.46848E+02 
  66685.8847     0.47786E+02 
  66718.1469     0.48738E+02 
  66750.4090     0.49704E+02 
  66782.6712     0.50685E+02 
  66814.9334     0.51682E+02 
  66847.1955     0.52693E+02 
  66879.4577     0.53719E+02 
  66911.7198     0.54761E+02 
  66943.9820     0.55819E+02 
  66976.2442     0.56892E+02 
  67008.5063     0.57981E+02 
  67040.7685     0.59086E+02 
  67073.0306     0.60207E+02 
  67105.2928     0.61345E+02 
  67137.5550     0.62500E+02 
  67169.8171     0.63671E+02 
  67202.0793     0.64859E+02 
  67234.3414     0.66064E+02 
  67266.6036     0.67287E+02 
  67298.8658     0.68527E+02 
  67331.1279     0.69784E+02 
  67363.3901     0.71060E+02 
  67395.6522     0.72353E+02 
  67427.9144     0.73665E+02 
  67460.1766     0.74994E+02 
  67492.4387     0.76343E+02 
  67524.7009     0.77710E+02 
  67556.9630     0.79096E+02 
  67589.2252     0.80501E+02 
  67621.4874     0.81926E+02 
  67653.7495     0.83369E+02 
  67686.0117     0.84833E+02 
  67718.2738     0.86316E+02 
  67750.5360     0.87819E+02 
  67782.7982     0.89343E+02 
  67815.0603     0.90887E+02 
  67847.3225     0.92451E+02 
  67879.5846     0.94036E+02 
  67911.8468     0.95642E+02 
  67944.1090     0.97270E+02 
  67976.3711     0.98918E+02 
  68008.6333     0.10059E+03 
  68040.8954     0.10228E+03 
  68073.1576     0.10399E+03 
  68105.4198     0.10573E+03 
  68137.6819     0.10749E+03 
  68169.9441     0.10927E+03 
  68202.2062     0.11107E+03 
  68234.4684     0.11290E+03 
  68266.7306     0.11475E+03 
  68298.9927     0.11662E+03 
  68331.2549     0.11852E+03 
  68363.5170     0.12044E+03 
  68395.7792     0.12238E+03 
  68428.0414     0.12435E+03 
  68460.3035     0.12634E+03 
  68492.5657     0.12835E+03 
  68524.8278     0.13040E+03 
  68557.0900     0.13246E+03 
  68589.3522     0.13455E+03 
  68621.6143     0.13667E+03 
  68653.8765     0.13881E+03 
  68686.1386     0.14098E+03 
  68718.4008     0.14317E+03 
  68750.6630     0.14539E+03 
  68782.9251     0.14763E+03 
  68815.1873     0.14990E+03 
  68847.4494     0.15220E+03 
  68879.7116     0.15453E+03 
  68911.9738     0.15688E+03 
  68944.2359     0.15926E+03 
  68976.4981     0.16166E+03 
  69008.7602     0.16410E+03 
  69041.0224     0.16656E+03 
  69073.2846     0.16905E+03 
  69105.5467     0.17157E+03 
  69137.8089     0.17411E+03 
  69170.0710     0.17669E+03 
  69202.3332     0.17929E+03 
  69234.5954     0.18192E+03 
  69266.8575     0.18459E+03 
  69299.1197     0.18728E+03 
  69331.3818     0.19000E+03 
  69363.6440     0.19275E+03 
  69395.9062     0.19553E+03 
  69428.1683     0.19834E+03 
  69460.4305     0.20118E+03 
  69492.6926     0.20405E+03 
  69524.9548     0.20695E+03 
  69557.2170     0.20988E+03 
  69589.4791     0.21284E+03 
  69621.7413     0.21584E+03 
  69654.0034     0.21887E+03 
  69686.2656     0.22192E+03 
  69718.5278     0.22501E+03 
  69750.7899     0.22813E+03 
  69783.0521     0.23129E+03 
  69815.3142     0.23447E+03 
  69847.5764     0.23769E+03 
  69879.8386     0.24094E+03 
  69912.1007     0.24422E+03 
  69944.3629     0.24754E+03 
  69976.6250     0.25089E+03 
  70008.8872     0.25427E+03 
  70041.1494     0.25769E+03 
  70073.4115     0.26114E+03 
  70105.6737     0.26462E+03 
  70137.9358     0.26814E+03 
  70170.1980     0.27169E+03 
  70202.4602     0.27528E+03 
  70234.7223     0.27890E+03 
  70266.9845     0.28255E+03 
  70299.2466     0.28624E+03 
  70331.5088     0.28997E+03 
  70363.7710     0.29373E+03 
  70396.0331     0.29752E+03 
  70428.2953     0.30135E+03 
  70460.5574     0.30522E+03 
  70492.8196     0.30912E+03 
  70525.0818     0.31306E+03 
  70557.3439     0.31703E+03 
  70589.6061     0.32104E+03 
  70621.8682     0.32509E+03 
  70654.1304     0.32917E+03 
  70686.3926     0.33329E+03 
  70718.6547     0.33745E+03 
  70750.9169     0.34164E+03 
  70783.1790     0.34587E+03 
  70815.4412     0.35014E+03 
  70847.7034     0.35444E+03 
  70879.9655     0.35878E+03 
  70912.2277     0.36316E+03 
  70944.4898     0.36757E+03 
  70976.7520     0.37203E+03 
  71009.0142     0.37652E+03 
  71041.2763     0.38105E+03 
  71073.5385     0.38561E+03 
  71105.8006     0.39022E+03 
  71138.0628     0.39486E+03 
  71170.3250     0.39954E+03 
  71202.5871     0.40426E+03 
  71234.8493     0.40902E+03 
  71267.1114     0.41382E+03 
  71299.3736     0.41865E+03 
  71331.6358     0.42352E+03 
  71363.8979     0.42844E+03 
  71396.1601     0.43339E+03 
  71428.4222     0.43838E+03 
  71460.6844     0.44341E+03 
  71492.9466     0.44847E+03 
  71525.2087     0.45358E+03 
  71557.4709     0.45873E+03 
  71589.7330     0.46391E+03 
  71621.9952     0.46914E+03 
  71654.2574     0.47440E+03 
  71686.5195     0.47971E+03 
  71718.7817     0.48505E+03 
  71751.0438     0.49043E+03 
  71783.3060     0.49585E+03 
  71815.5682     0.50132E+03 
  71847.8303     0.50682E+03 
  71880.0925     0.51236E+03 
  71912.3546     0.51794E+03 
  71944.6168     0.52356E+03 
  71976.8790     0.52922E+03 
  72009.1411     0.53492E+03 
  72041.4033     0.54066E+03 
  72073.6654     0.54644E+03 
  72105.9276     0.55225E+03 
  72138.1898     0.55811E+03 
  72170.4519     0.56401E+03 
  72202.7141     0.56995E+03 
  72234.9762     0.57593E+03 
  72267.2384     0.58194E+03 
  72299.5006     0.58800E+03 
  72331.7627     0.59410E+03 
  72364.0249     0.60023E+03 
  72396.2870     0.60641E+03 
  72428.5492     0.61262E+03 
  72460.8114     0.61888E+03 
  72493.0735     0.62517E+03 
  72525.3357     0.63150E+03 
  72557.5978     0.63788E+03 
  72589.8600     0.64429E+03 
