  32262.1600     0.39600E-02 
  32294.4222     0.40078E-02 
  32326.6843     0.40560E-02 
  32358.9465     0.41046E-02 
  32391.2086     0.41535E-02 
  32423.4708     0.42028E-02 
  32455.7330     0.42525E-02 
  32487.9951     0.43025E-02 
  32520.2573     0.43530E-02 
  32552.5194     0.44038E-02 
  32584.7816     0.44550E-02 
  32617.0438     0.45065E-02 
  32649.3059     0.45585E-02 
  32681.5681     0.46108E-02 
  32713.8302     0.46635E-02 
  32746.0924     0.47165E-02 
  32778.3546     0.47700E-02 
  32810.6167     0.48238E-02 
  32842.8789     0.48779E-02 
  32875.1410     0.49325E-02 
  32907.4032     0.49874E-02 
  32939.6654     0.50427E-02 
  32971.9275     0.50983E-02 
  33004.1897     0.51544E-02 
  33036.4518     0.52107E-02 
  33068.7140     0.52675E-02 
  33100.9762     0.53246E-02 
  33133.2383     0.53821E-02 
  33165.5005     0.54399E-02 
  33197.7626     0.54981E-02 
  33230.0248     0.55566E-02 
  33262.2870     0.56155E-02 
  33294.5491     0.56748E-02 
  33326.8113     0.57344E-02 
  33359.0734     0.57944E-02 
  33391.3356     0.58547E-02 
  33423.5978     0.59154E-02 
  33455.8599     0.59764E-02 
  33488.1221     0.60377E-02 
  33520.3842     0.60994E-02 
  33552.6464     0.61615E-02 
  33584.9086     0.62239E-02 
  33617.1707     0.62866E-02 
  33649.4329     0.63496E-02 
  33681.6950     0.64130E-02 
  33713.9572     0.64767E-02 
  33746.2194     0.65408E-02 
  33778.4815     0.66052E-02 
  33810.7437     0.66699E-02 
  33843.0058     0.67349E-02 
  33875.2680     0.68002E-02 
  33907.5302     0.68659E-02 
  33939.7923     0.69319E-02 
  33972.0545     0.69982E-02 
  34004.3166     0.70648E-02 
  34036.5788     0.71317E-02 
  34068.8410     0.71989E-02 
  34101.1031     0.72664E-02 
  34133.3653     0.73342E-02 
  34165.6274     0.74023E-02 
  34197.8896     0.74707E-02 
  34230.1518     0.75393E-02 
  34262.4139     0.76083E-02 
  34294.6761     0.76776E-02 
  34326.9382     0.77471E-02 
  34359.2004     0.78169E-02 
  34391.4626     0.78870E-02 
  34423.7247     0.79573E-02 
  34455.9869     0.80280E-02 
  34488.2490     0.80988E-02 
  34520.5112     0.81700E-02 
  34552.7734     0.82414E-02 
  34585.0355     0.83130E-02 
  34617.2977     0.83849E-02 
  34649.5598     0.84571E-02 
  34681.8220     0.85295E-02 
  34714.0842     0.86021E-02 
  34746.3463     0.86750E-02 
  34778.6085     0.87481E-02 
  34810.8706     0.88214E-02 
  34843.1328     0.88949E-02 
  34875.3950     0.89687E-02 
  34907.6571     0.90427E-02 
  34939.9193     0.91168E-02 
  34972.1814     0.91912E-02 
  35004.4436     0.92658E-02 
  35036.7058     0.93406E-02 
  35068.9679     0.94156E-02 
  35101.2301     0.94908E-02 
  35133.4922     0.95662E-02 
  35165.7544     0.96417E-02 
  35198.0166     0.97174E-02 
  35230.2787     0.97933E-02 
  35262.5409     0.98694E-02 
  35294.8030     0.99456E-02 
  35327.0652     0.10022E-01 
  35359.3274     0.10099E-01 
  35391.5895     0.10175E-01 
  35423.8517     0.10252E-01 
  35456.1138     0.10329E-01 
  35488.3760     0.10406E-01 
  35520.6382     0.10483E-01 
  35552.9003     0.10561E-01 
  35585.1625     0.10638E-01 
  35617.4246     0.10716E-01 
  35649.6868     0.10794E-01 
  35681.9490     0.10871E-01 
  35714.2111     0.10949E-01 
  35746.4733     0.11027E-01 
  35778.7354     0.11106E-01 
  35810.9976     0.11184E-01 
  35843.2598     0.11262E-01 
  35875.5219     0.11340E-01 
  35907.7841     0.11419E-01 
  35940.0462     0.11497E-01 
  35972.3084     0.11576E-01 
  36004.5706     0.11654E-01 
  36036.8327     0.11733E-01 
  36069.0949     0.11812E-01 
  36101.3570     0.11891E-01 
  36133.6192     0.11969E-01 
  36165.8814     0.12048E-01 
  36198.1435     0.12127E-01 
  36230.4057     0.12206E-01 
  36262.6678     0.12285E-01 
  36294.9300     0.12364E-01 
  36327.1922     0.12443E-01 
  36359.4543     0.12521E-01 
  36391.7165     0.12600E-01 
  36423.9786     0.12679E-01 
  36456.2408     0.12758E-01 
  36488.5030     0.12837E-01 
  36520.7651     0.12916E-01 
  36553.0273     0.12994E-01 
  36585.2894     0.13073E-01 
  36617.5516     0.13152E-01 
  36649.8138     0.13230E-01 
  36682.0759     0.13309E-01 
  36714.3381     0.13387E-01 
  36746.6002     0.13466E-01 
  36778.8624     0.13544E-01 
  36811.1246     0.13622E-01 
  36843.3867     0.13700E-01 
  36875.6489     0.13779E-01 
  36907.9110     0.13857E-01 
  36940.1732     0.13934E-01 
  36972.4354     0.14012E-01 
  37004.6975     0.14090E-01 
  37036.9597     0.14167E-01 
  37069.2218     0.14245E-01 
  37101.4840     0.14322E-01 
  37133.7462     0.14399E-01 
  37166.0083     0.14476E-01 
  37198.2705     0.14553E-01 
  37230.5326     0.14630E-01 
  37262.7948     0.14706E-01 
  37295.0570     0.14783E-01 
  37327.3191     0.14859E-01 
  37359.5813     0.14935E-01 
  37391.8434     0.15011E-01 
  37424.1056     0.15086E-01 
  37456.3678     0.15162E-01 
  37488.6299     0.15237E-01 
  37520.8921     0.15312E-01 
  37553.1542     0.15387E-01 
  37585.4164     0.15462E-01 
  37617.6786     0.15536E-01 
  37649.9407     0.15610E-01 
  37682.2029     0.15684E-01 
  37714.4650     0.15758E-01 
  37746.7272     0.15832E-01 
  37778.9894     0.15905E-01 
  37811.2515     0.15978E-01 
  37843.5137     0.16051E-01 
  37875.7758     0.16123E-01 
  37908.0380     0.16195E-01 
  37940.3002     0.16267E-01 
  37972.5623     0.16339E-01 
  38004.8245     0.16410E-01 
  38037.0866     0.16481E-01 
  38069.3488     0.16552E-01 
  38101.6110     0.16622E-01 
  38133.8731     0.16693E-01 
  38166.1353     0.16763E-01 
  38198.3974     0.16832E-01 
  38230.6596     0.16901E-01 
  38262.9218     0.16970E-01 
  38295.1839     0.17039E-01 
  38327.4461     0.17107E-01 
  38359.7082     0.17175E-01 
  38391.9704     0.17242E-01 
  38424.2326     0.17310E-01 
  38456.4947     0.17376E-01 
  38488.7569     0.17443E-01 
  38521.0190     0.17509E-01 
  38553.2812     0.17575E-01 
  38585.5434     0.17640E-01 
  38617.8055     0.17705E-01 
  38650.0677     0.17770E-01 
  38682.3298     0.17834E-01 
  38714.5920     0.17898E-01 
  38746.8542     0.17961E-01 
  38779.1163     0.18024E-01 
  38811.3785     0.18087E-01 
  38843.6406     0.18149E-01 
  38875.9028     0.18211E-01 
  38908.1650     0.18272E-01 
  38940.4271     0.18333E-01 
  38972.6893     0.18393E-01 
  39004.9514     0.18453E-01 
  39037.2136     0.18513E-01 
  39069.4758     0.18572E-01 
  39101.7379     0.18631E-01 
  39134.0001     0.18689E-01 
  39166.2622     0.18747E-01 
  39198.5244     0.18804E-01 
  39230.7866     0.18861E-01 
  39263.0487     0.18918E-01 
  39295.3109     0.18974E-01 
  39327.5730     0.19029E-01 
  39359.8352     0.19084E-01 
  39392.0974     0.19139E-01 
  39424.3595     0.19193E-01 
  39456.6217     0.19246E-01 
  39488.8838     0.19299E-01 
  39521.1460     0.19352E-01 
  39553.4082     0.19404E-01 
  39585.6703     0.19455E-01 
  39617.9325     0.19506E-01 
  39650.1946     0.19557E-01 
  39682.4568     0.19607E-01 
  39714.7190     0.19656E-01 
  39746.9811     0.19705E-01 
  39779.2433     0.19754E-01 
  39811.5054     0.19802E-01 
  39843.7676     0.19849E-01 
  39876.0298     0.19896E-01 
  39908.2919     0.19942E-01 
  39940.5541     0.19988E-01 
  39972.8162     0.20033E-01 
  40005.0784     0.20078E-01 
  40037.3406     0.20122E-01 
  40069.6027     0.20166E-01 
  40101.8649     0.20209E-01 
  40134.1270     0.20251E-01 
  40166.3892     0.20293E-01 
  40198.6514     0.20334E-01 
  40230.9135     0.20375E-01 
  40263.1757     0.20415E-01 
  40295.4378     0.20455E-01 
  40327.7000     0.20494E-01 
  40359.9622     0.20533E-01 
  40392.2243     0.20571E-01 
  40424.4865     0.20608E-01 
  40456.7486     0.20645E-01 
  40489.0108     0.20681E-01 
  40521.2730     0.20717E-01 
  40553.5351     0.20752E-01 
  40585.7973     0.20786E-01 
  40618.0594     0.20820E-01 
  40650.3216     0.20853E-01 
  40682.5838     0.20886E-01 
  40714.8459     0.20918E-01 
  40747.1081     0.20949E-01 
  40779.3702     0.20980E-01 
  40811.6324     0.21010E-01 
  40843.8946     0.21040E-01 
  40876.1567     0.21069E-01 
  40908.4189     0.21098E-01 
  40940.6810     0.21125E-01 
  40972.9432     0.21153E-01 
  41005.2054     0.21179E-01 
  41037.4675     0.21205E-01 
  41069.7297     0.21231E-01 
  41101.9918     0.21256E-01 
  41134.2540     0.21280E-01 
  41166.5162     0.21303E-01 
  41198.7783     0.21326E-01 
  41231.0405     0.21349E-01 
  41263.3026     0.21371E-01 
  41295.5648     0.21392E-01 
  41327.8270     0.21412E-01 
  41360.0891     0.21432E-01 
  41392.3513     0.21451E-01 
  41424.6134     0.21470E-01 
  41456.8756     0.21488E-01 
  41489.1378     0.21505E-01 
  41521.3999     0.21522E-01 
  41553.6621     0.21538E-01 
  41585.9242     0.21554E-01 
  41618.1864     0.21569E-01 
  41650.4486     0.21583E-01 
  41682.7107     0.21597E-01 
  41714.9729     0.21610E-01 
  41747.2350     0.21623E-01 
  41779.4972     0.21635E-01 
  41811.7594     0.21646E-01 
  41844.0215     0.21656E-01 
  41876.2837     0.21666E-01 
  41908.5458     0.21676E-01 
  41940.8080     0.21685E-01 
  41973.0702     0.21693E-01 
  42005.3323     0.21700E-01 
  42037.5945     0.21707E-01 
  42069.8566     0.21713E-01 
  42102.1188     0.21719E-01 
  42134.3810     0.21724E-01 
  42166.6431     0.21729E-01 
  42198.9053     0.21733E-01 
  42231.1674     0.21736E-01 
  42263.4296     0.21738E-01 
  42295.6918     0.21740E-01 
  42327.9539     0.21742E-01 
  42360.2161     0.21743E-01 
  42392.4782     0.21743E-01 
  42424.7404     0.21743E-01 
  42457.0026     0.21742E-01 
  42489.2647     0.21740E-01 
  42521.5269     0.21738E-01 
  42553.7890     0.21735E-01 
  42586.0512     0.21731E-01 
  42618.3134     0.21727E-01 
  42650.5755     0.21723E-01 
  42682.8377     0.21718E-01 
  42715.0998     0.21712E-01 
  42747.3620     0.21706E-01 
  42779.6242     0.21699E-01 
  42811.8863     0.21691E-01 
  42844.1485     0.21683E-01 
  42876.4106     0.21674E-01 
  42908.6728     0.21665E-01 
  42940.9350     0.21655E-01 
  42973.1971     0.21645E-01 
  43005.4593     0.21633E-01 
  43037.7214     0.21622E-01 
  43069.9836     0.21610E-01 
  43102.2458     0.21597E-01 
  43134.5079     0.21584E-01 
  43166.7701     0.21570E-01 
  43199.0322     0.21555E-01 
  43231.2944     0.21540E-01 
  43263.5566     0.21525E-01 
  43295.8187     0.21508E-01 
  43328.0809     0.21492E-01 
  43360.3430     0.21475E-01 
  43392.6052     0.21457E-01 
  43424.8674     0.21438E-01 
  43457.1295     0.21420E-01 
  43489.3917     0.21400E-01 
  43521.6538     0.21380E-01 
  43553.9160     0.21360E-01 
  43586.1782     0.21339E-01 
  43618.4403     0.21317E-01 
  43650.7025     0.21295E-01 
  43682.9646     0.21272E-01 
  43715.2268     0.21249E-01 
  43747.4890     0.21225E-01 
  43779.7511     0.21201E-01 
  43812.0133     0.21177E-01 
  43844.2754     0.21151E-01 
  43876.5376     0.21126E-01 
  43908.7998     0.21099E-01 
  43941.0619     0.21073E-01 
  43973.3241     0.21045E-01 
  44005.5862     0.21018E-01 
  44037.8484     0.20989E-01 
  44070.1106     0.20961E-01 
  44102.3727     0.20931E-01 
  44134.6349     0.20902E-01 
  44166.8970     0.20872E-01 
  44199.1592     0.20841E-01 
  44231.4214     0.20810E-01 
  44263.6835     0.20778E-01 
  44295.9457     0.20746E-01 
  44328.2078     0.20713E-01 
  44360.4700     0.20680E-01 
  44392.7322     0.20647E-01 
  44424.9943     0.20613E-01 
  44457.2565     0.20579E-01 
  44489.5186     0.20544E-01 
  44521.7808     0.20508E-01 
  44554.0430     0.20473E-01 
  44586.3051     0.20437E-01 
  44618.5673     0.20400E-01 
  44650.8294     0.20363E-01 
  44683.0916     0.20325E-01 
  44715.3538     0.20288E-01 
  44747.6159     0.20249E-01 
  44779.8781     0.20211E-01 
  44812.1402     0.20171E-01 
  44844.4024     0.20132E-01 
  44876.6646     0.20092E-01 
  44908.9267     0.20051E-01 
  44941.1889     0.20011E-01 
  44973.4510     0.19969E-01 
  45005.7132     0.19928E-01 
  45037.9754     0.19886E-01 
  45070.2375     0.19844E-01 
  45102.4997     0.19801E-01 
  45134.7618     0.19758E-01 
  45167.0240     0.19714E-01 
  45199.2862     0.19670E-01 
  45231.5483     0.19626E-01 
  45263.8105     0.19582E-01 
  45296.0726     0.19537E-01 
  45328.3348     0.19491E-01 
  45360.5970     0.19446E-01 
  45392.8591     0.19400E-01 
  45425.1213     0.19353E-01 
  45457.3834     0.19306E-01 
  45489.6456     0.19259E-01 
  45521.9078     0.19212E-01 
  45554.1699     0.19164E-01 
  45586.4321     0.19116E-01 
  45618.6942     0.19068E-01 
  45650.9564     0.19019E-01 
  45683.2186     0.18970E-01 
  45715.4807     0.18921E-01 
  45747.7429     0.18871E-01 
  45780.0050     0.18821E-01 
  45812.2672     0.18771E-01 
  45844.5294     0.18721E-01 
  45876.7915     0.18670E-01 
  45909.0537     0.18619E-01 
  45941.3158     0.18567E-01 
  45973.5780     0.18516E-01 
  46005.8402     0.18464E-01 
  46038.1023     0.18411E-01 
  46070.3645     0.18359E-01 
  46102.6266     0.18306E-01 
  46134.8888     0.18253E-01 
  46167.1510     0.18200E-01 
  46199.4131     0.18146E-01 
  46231.6753     0.18093E-01 
  46263.9374     0.18038E-01 
  46296.1996     0.17984E-01 
  46328.4618     0.17930E-01 
  46360.7239     0.17875E-01 
  46392.9861     0.17820E-01 
  46425.2482     0.17765E-01 
  46457.5104     0.17709E-01 
  46489.7726     0.17654E-01 
  46522.0347     0.17598E-01 
  46554.2969     0.17542E-01 
  46586.5590     0.17485E-01 
  46618.8212     0.17429E-01 
  46651.0834     0.17372E-01 
  46683.3455     0.17315E-01 
  46715.6077     0.17258E-01 
  46747.8698     0.17201E-01 
  46780.1320     0.17143E-01 
  46812.3942     0.17086E-01 
  46844.6563     0.17028E-01 
  46876.9185     0.16970E-01 
  46909.1806     0.16911E-01 
  46941.4428     0.16853E-01 
  46973.7050     0.16795E-01 
  47005.9671     0.16736E-01 
  47038.2293     0.16677E-01 
  47070.4914     0.16618E-01 
  47102.7536     0.16559E-01 
  47135.0158     0.16499E-01 
  47167.2779     0.16440E-01 
  47199.5401     0.16380E-01 
  47231.8022     0.16321E-01 
  47264.0644     0.16261E-01 
  47296.3266     0.16201E-01 
  47328.5887     0.16141E-01 
  47360.8509     0.16080E-01 
  47393.1130     0.16020E-01 
  47425.3752     0.15960E-01 
  47457.6374     0.15899E-01 
  47489.8995     0.15838E-01 
  47522.1617     0.15777E-01 
  47554.4238     0.15717E-01 
  47586.6860     0.15655E-01 
  47618.9482     0.15594E-01 
  47651.2103     0.15533E-01 
  47683.4725     0.15472E-01 
  47715.7346     0.15411E-01 
  47747.9968     0.15349E-01 
  47780.2590     0.15288E-01 
  47812.5211     0.15226E-01 
  47844.7833     0.15164E-01 
  47877.0454     0.15102E-01 
  47909.3076     0.15041E-01 
  47941.5698     0.14979E-01 
  47973.8319     0.14917E-01 
  48006.0941     0.14855E-01 
  48038.3562     0.14793E-01 
  48070.6184     0.14731E-01 
  48102.8806     0.14669E-01 
  48135.1427     0.14606E-01 
  48167.4049     0.14544E-01 
  48199.6670     0.14482E-01 
  48231.9292     0.14420E-01 
  48264.1914     0.14357E-01 
  48296.4535     0.14295E-01 
  48328.7157     0.14232E-01 
  48360.9778     0.14170E-01 
  48393.2400     0.14108E-01 
  48425.5022     0.14045E-01 
  48457.7643     0.13983E-01 
  48490.0265     0.13920E-01 
  48522.2886     0.13858E-01 
  48554.5508     0.13795E-01 
  48586.8130     0.13733E-01 
  48619.0751     0.13670E-01 
  48651.3373     0.13608E-01 
  48683.5994     0.13545E-01 
  48715.8616     0.13483E-01 
  48748.1238     0.13420E-01 
  48780.3859     0.13358E-01 
  48812.6481     0.13296E-01 
  48844.9102     0.13233E-01 
  48877.1724     0.13171E-01 
  48909.4346     0.13108E-01 
  48941.6967     0.13046E-01 
  48973.9589     0.12984E-01 
  49006.2210     0.12922E-01 
  49038.4832     0.12859E-01 
  49070.7454     0.12797E-01 
  49103.0075     0.12735E-01 
  49135.2697     0.12673E-01 
  49167.5318     0.12611E-01 
  49199.7940     0.12549E-01 
  49232.0562     0.12487E-01 
  49264.3183     0.12425E-01 
  49296.5805     0.12363E-01 
  49328.8426     0.12301E-01 
  49361.1048     0.12240E-01 
  49393.3670     0.12178E-01 
  49425.6291     0.12116E-01 
  49457.8913     0.12055E-01 
  49490.1534     0.11993E-01 
  49522.4156     0.11932E-01 
  49554.6778     0.11871E-01 
  49586.9399     0.11809E-01 
  49619.2021     0.11748E-01 
  49651.4642     0.11687E-01 
  49683.7264     0.11626E-01 
  49715.9886     0.11565E-01 
  49748.2507     0.11504E-01 
  49780.5129     0.11444E-01 
  49812.7750     0.11383E-01 
  49845.0372     0.11322E-01 
  49877.2994     0.11262E-01 
  49909.5615     0.11202E-01 
  49941.8237     0.11141E-01 
  49974.0858     0.11081E-01 
  50006.3480     0.11021E-01 
  50038.6102     0.10961E-01 
  50070.8723     0.10901E-01 
  50103.1345     0.10842E-01 
  50135.3966     0.10782E-01 
  50167.6588     0.10722E-01 
  50199.9210     0.10663E-01 
  50232.1831     0.10604E-01 
  50264.4453     0.10545E-01 
  50296.7074     0.10486E-01 
  50328.9696     0.10427E-01 
  50361.2318     0.10368E-01 
  50393.4939     0.10309E-01 
  50425.7561     0.10251E-01 
  50458.0182     0.10192E-01 
  50490.2804     0.10134E-01 
  50522.5426     0.10076E-01 
  50554.8047     0.10018E-01 
  50587.0669     0.99597E-02 
  50619.3290     0.99019E-02 
  50651.5912     0.98442E-02 
  50683.8534     0.97867E-02 
  50716.1155     0.97294E-02 
  50748.3777     0.96722E-02 
  50780.6398     0.96151E-02 
  50812.9020     0.95581E-02 
  50845.1642     0.95014E-02 
  50877.4263     0.94447E-02 
  50909.6885     0.93882E-02 
  50941.9506     0.93319E-02 
  50974.2128     0.92757E-02 
  51006.4750     0.92196E-02 
  51038.7371     0.91637E-02 
  51070.9993     0.91080E-02 
  51103.2614     0.90524E-02 
  51135.5236     0.89970E-02 
  51167.7858     0.89417E-02 
  51200.0479     0.88866E-02 
  51232.3101     0.88316E-02 
  51264.5722     0.87768E-02 
  51296.8344     0.87222E-02 
  51329.0966     0.86677E-02 
  51361.3587     0.86134E-02 
  51393.6209     0.85593E-02 
  51425.8830     0.85053E-02 
  51458.1452     0.84515E-02 
  51490.4074     0.83979E-02 
  51522.6695     0.83444E-02 
  51554.9317     0.82911E-02 
  51587.1938     0.82380E-02 
  51619.4560     0.81850E-02 
  51651.7182     0.81323E-02 
  51683.9803     0.80796E-02 
  51716.2425     0.80272E-02 
  51748.5046     0.79750E-02 
  51780.7668     0.79229E-02 
  51813.0290     0.78710E-02 
  51845.2911     0.78192E-02 
  51877.5533     0.77677E-02 
  51909.8154     0.77163E-02 
  51942.0776     0.76651E-02 
  51974.3398     0.76141E-02 
  52006.6019     0.75633E-02 
  52038.8641     0.75126E-02 
  52071.1262     0.74621E-02 
  52103.3884     0.74119E-02 
  52135.6506     0.73618E-02 
  52167.9127     0.73118E-02 
  52200.1749     0.72621E-02 
  52232.4370     0.72126E-02 
  52264.6992     0.71632E-02 
  52296.9614     0.71140E-02 
  52329.2235     0.70650E-02 
  52361.4857     0.70162E-02 
  52393.7478     0.69676E-02 
  52426.0100     0.69192E-02 
  52458.2722     0.68710E-02 
  52490.5343     0.68229E-02 
  52522.7965     0.67751E-02 
  52555.0586     0.67274E-02 
  52587.3208     0.66799E-02 
  52619.5830     0.66326E-02 
  52651.8451     0.65855E-02 
  52684.1073     0.65386E-02 
  52716.3694     0.64919E-02 
  52748.6316     0.64454E-02 
  52780.8938     0.63991E-02 
  52813.1559     0.63529E-02 
  52845.4181     0.63070E-02 
  52877.6802     0.62612E-02 
  52909.9424     0.62157E-02 
  52942.2046     0.61703E-02 
  52974.4667     0.61251E-02 
  53006.7289     0.60802E-02 
  53038.9910     0.60354E-02 
  53071.2532     0.59908E-02 
  53103.5154     0.59464E-02 
  53135.7775     0.59022E-02 
  53168.0397     0.58582E-02 
  53200.3018     0.58144E-02 
  53232.5640     0.57708E-02 
  53264.8262     0.57274E-02 
  53297.0883     0.56842E-02 
  53329.3505     0.56411E-02 
  53361.6126     0.55983E-02 
  53393.8748     0.55557E-02 
  53426.1370     0.55133E-02 
  53458.3991     0.54710E-02 
  53490.6613     0.54290E-02 
  53522.9234     0.53871E-02 
  53555.1856     0.53455E-02 
  53587.4478     0.53040E-02 
  53619.7099     0.52627E-02 
  53651.9721     0.52217E-02 
  53684.2342     0.51808E-02 
  53716.4964     0.51401E-02 
  53748.7586     0.50996E-02 
  53781.0207     0.50593E-02 
  53813.2829     0.50193E-02 
  53845.5450     0.49794E-02 
  53877.8072     0.49397E-02 
  53910.0694     0.49002E-02 
  53942.3315     0.48608E-02 
  53974.5937     0.48217E-02 
  54006.8558     0.47828E-02 
  54039.1180     0.47441E-02 
  54071.3802     0.47055E-02 
  54103.6423     0.46672E-02 
  54135.9045     0.46291E-02 
  54168.1666     0.45911E-02 
  54200.4288     0.45533E-02 
  54232.6910     0.45158E-02 
  54264.9531     0.44784E-02 
  54297.2153     0.44412E-02 
  54329.4774     0.44042E-02 
  54361.7396     0.43674E-02 
  54394.0018     0.43308E-02 
  54426.2639     0.42944E-02 
  54458.5261     0.42582E-02 
  54490.7882     0.42222E-02 
  54523.0504     0.41863E-02 
  54555.3126     0.41507E-02 
  54587.5747     0.41152E-02 
  54619.8369     0.40799E-02 
  54652.0990     0.40449E-02 
  54684.3612     0.40100E-02 
  54716.6234     0.39753E-02 
  54748.8855     0.39407E-02 
  54781.1477     0.39064E-02 
  54813.4098     0.38723E-02 
  54845.6720     0.38383E-02 
  54877.9342     0.38046E-02 
  54910.1963     0.37710E-02 
  54942.4585     0.37376E-02 
  54974.7206     0.37044E-02 
  55006.9828     0.36714E-02 
  55039.2450     0.36385E-02 
  55071.5071     0.36059E-02 
  55103.7693     0.35734E-02 
  55136.0314     0.35411E-02 
  55168.2936     0.35090E-02 
  55200.5558     0.34771E-02 
  55232.8179     0.34454E-02 
  55265.0801     0.34139E-02 
  55297.3422     0.33825E-02 
  55329.6044     0.33513E-02 
  55361.8666     0.33203E-02 
  55394.1287     0.32895E-02 
  55426.3909     0.32588E-02 
  55458.6530     0.32284E-02 
  55490.9152     0.31981E-02 
  55523.1774     0.31680E-02 
  55555.4395     0.31380E-02 
  55587.7017     0.31083E-02 
  55619.9638     0.30787E-02 
  55652.2260     0.30493E-02 
  55684.4882     0.30201E-02 
  55716.7503     0.29910E-02 
  55749.0125     0.29622E-02 
  55781.2746     0.29335E-02 
  55813.5368     0.29049E-02 
  55845.7990     0.28766E-02 
  55878.0611     0.28484E-02 
  55910.3233     0.28204E-02 
  55942.5854     0.27926E-02 
  55974.8476     0.27649E-02 
  56007.1098     0.27374E-02 
  56039.3719     0.27101E-02 
  56071.6341     0.26829E-02 
  56103.8962     0.26560E-02 
  56136.1584     0.26292E-02 
  56168.4206     0.26025E-02 
  56200.6827     0.25760E-02 
  56232.9449     0.25497E-02 
  56265.2070     0.25236E-02 
  56297.4692     0.24976E-02 
  56329.7314     0.24718E-02 
  56361.9935     0.24462E-02 
  56394.2557     0.24207E-02 
  56426.5178     0.23954E-02 
  56458.7800     0.23702E-02 
  56491.0422     0.23452E-02 
  56523.3043     0.23204E-02 
  56555.5665     0.22957E-02 
  56587.8286     0.22712E-02 
  56620.0908     0.22469E-02 
  56652.3530     0.22227E-02 
  56684.6151     0.21987E-02 
  56716.8773     0.21748E-02 
  56749.1394     0.21511E-02 
  56781.4016     0.21276E-02 
  56813.6638     0.21042E-02 
  56845.9259     0.20809E-02 
  56878.1881     0.20579E-02 
  56910.4502     0.20349E-02 
  56942.7124     0.20122E-02 
  56974.9746     0.19896E-02 
  57007.2367     0.19671E-02 
  57039.4989     0.19448E-02 
  57071.7610     0.19226E-02 
  57104.0232     0.19006E-02 
  57136.2854     0.18788E-02 
  57168.5475     0.18571E-02 
  57200.8097     0.18356E-02 
  57233.0718     0.18142E-02 
  57265.3340     0.17929E-02 
  57297.5962     0.17718E-02 
  57329.8583     0.17509E-02 
  57362.1205     0.17301E-02 
  57394.3826     0.17094E-02 
  57426.6448     0.16889E-02 
  57458.9070     0.16686E-02 
  57491.1691     0.16483E-02 
  57523.4313     0.16283E-02 
  57555.6934     0.16083E-02 
  57587.9556     0.15886E-02 
  57620.2178     0.15689E-02 
  57652.4799     0.15494E-02 
  57684.7421     0.15301E-02 
  57717.0042     0.15109E-02 
  57749.2664     0.14918E-02 
  57781.5286     0.14729E-02 
  57813.7907     0.14541E-02 
  57846.0529     0.14354E-02 
  57878.3150     0.14169E-02 
  57910.5772     0.13986E-02 
  57942.8394     0.13803E-02 
  57975.1015     0.13622E-02 
  58007.3637     0.13443E-02 
  58039.6258     0.13265E-02 
  58071.8880     0.13088E-02 
  58104.1502     0.12912E-02 
  58136.4123     0.12738E-02 
  58168.6745     0.12566E-02 
  58200.9366     0.12394E-02 
  58233.1988     0.12224E-02 
  58265.4610     0.12055E-02 
  58297.7231     0.11888E-02 
  58329.9853     0.11722E-02 
  58362.2474     0.11557E-02 
  58394.5096     0.11394E-02 
  58426.7718     0.11232E-02 
  58459.0339     0.11071E-02 
  58491.2961     0.10911E-02 
  58523.5582     0.10753E-02 
  58555.8204     0.10596E-02 
  58588.0826     0.10440E-02 
  58620.3447     0.10286E-02 
  58652.6069     0.10133E-02 
  58684.8690     0.99811E-03 
  58717.1312     0.98306E-03 
  58749.3934     0.96813E-03 
  58781.6555     0.95333E-03 
  58813.9177     0.93866E-03 
  58846.1798     0.92411E-03 
  58878.4420     0.90968E-03 
  58910.7042     0.89538E-03 
  58942.9663     0.88121E-03 
  58975.2285     0.86716E-03 
  59007.4906     0.85323E-03 
  59039.7528     0.83942E-03 
  59072.0150     0.82574E-03 
  59104.2771     0.81218E-03 
  59136.5393     0.79875E-03 
  59168.8014     0.78543E-03 
  59201.0636     0.77224E-03 
  59233.3258     0.75917E-03 
  59265.5879     0.74622E-03 
  59297.8501     0.73339E-03 
  59330.1122     0.72068E-03 
  59362.3744     0.70809E-03 
  59394.6366     0.69562E-03 
  59426.8987     0.68326E-03 
  59459.1609     0.67103E-03 
  59491.4230     0.65892E-03 
  59523.6852     0.64693E-03 
  59555.9474     0.63505E-03 
  59588.2095     0.62329E-03 
  59620.4717     0.61165E-03 
  59652.7338     0.60013E-03 
  59684.9960     0.58873E-03 
  59717.2582     0.57744E-03 
  59749.5203     0.56627E-03 
  59781.7825     0.55522E-03 
  59814.0446     0.54428E-03 
  59846.3068     0.53346E-03 
  59878.5690     0.52276E-03 
  59910.8311     0.51218E-03 
  59943.0933     0.50171E-03 
  59975.3554     0.49135E-03 
  60007.6176     0.48111E-03 
  60039.8798     0.47099E-03 
  60072.1419     0.46098E-03 
  60104.4041     0.45109E-03 
  60136.6662     0.44132E-03 
  60168.9284     0.43166E-03 
  60201.1906     0.42211E-03 
  60233.4527     0.41268E-03 
  60265.7149     0.40337E-03 
  60297.9770     0.39417E-03 
  60330.2392     0.38509E-03 
  60362.5014     0.37612E-03 
  60394.7635     0.36727E-03 
  60427.0257     0.35853E-03 
  60459.2878     0.34991E-03 
  60491.5500     0.34140E-03 
  60523.8122     0.33301E-03 
  60556.0743     0.32474E-03 
  60588.3365     0.31658E-03 
  60620.5986     0.30854E-03 
  60652.8608     0.30061E-03 
  60685.1230     0.29280E-03 
  60717.3851     0.28510E-03 
  60749.6473     0.27753E-03 
  60781.9094     0.27007E-03 
  60814.1716     0.26272E-03 
  60846.4338     0.25549E-03 
  60878.6959     0.24838E-03 
  60910.9581     0.24139E-03 
  60943.2202     0.23452E-03 
  60975.4824     0.22776E-03 
  61007.7446     0.22113E-03 
  61040.0067     0.21461E-03 
  61072.2689     0.20821E-03 
  61104.5310     0.20193E-03 
  61136.7932     0.19577E-03 
  61169.0554     0.18973E-03 
  61201.3175     0.18381E-03 
  61233.5797     0.17801E-03 
  61265.8418     0.17234E-03 
  61298.1040     0.16678E-03 
  61330.3662     0.16135E-03 
  61362.6283     0.15605E-03 
  61394.8905     0.15086E-03 
  61427.1526     0.14580E-03 
  61459.4148     0.14087E-03 
  61491.6770     0.13606E-03 
  61523.9391     0.13137E-03 
  61556.2013     0.12682E-03 
  61588.4634     0.12239E-03 
  61620.7256     0.11809E-03 
  61652.9878     0.11392E-03 
  61685.2499     0.10987E-03 
  61717.5121     0.10596E-03 
  61749.7742     0.10218E-03 
  61782.0364     0.98535E-04 
  61814.2986     0.95019E-04 
  61846.5607     0.91638E-04 
  61878.8229     0.88391E-04 
  61911.0850     0.85281E-04 
  61943.3472     0.82307E-04 
  61975.6094     0.79471E-04 
  62007.8715     0.76773E-04 
  62040.1337     0.74216E-04 
  62072.3958     0.71799E-04 
  62104.6580     0.69525E-04 
  62136.9202     0.67394E-04 
  62169.1823     0.65407E-04 
  62201.4445     0.63566E-04 
  62233.7066     0.61873E-04 
  62265.9688     0.60327E-04 
  62298.2310     0.58932E-04 
  62330.4931     0.57687E-04 
  62362.7553     0.56595E-04 
  62395.0174     0.55657E-04 
  62427.2796     0.54874E-04 
  62459.5418     0.54249E-04 
  62491.8039     0.53781E-04 
  62524.0661     0.53475E-04 
  62556.3282     0.53330E-04 
  62588.5904     0.53348E-04 
  62620.8526     0.53532E-04 
  62653.1147     0.53883E-04 
  62685.3769     0.54403E-04 
  62717.6390     0.55093E-04 
  62749.9012     0.55957E-04 
  62782.1634     0.56995E-04 
  62814.4255     0.58210E-04 
  62846.6877     0.59604E-04 
  62878.9498     0.61178E-04 
  62911.2120     0.62936E-04 
  62943.4742     0.64879E-04 
  62975.7363     0.67010E-04 
  63007.9985     0.69331E-04 
  63040.2606     0.71844E-04 
  63072.5228     0.74551E-04 
  63104.7850     0.77457E-04 
  63137.0471     0.80561E-04 
  63169.3093     0.83869E-04 
  63201.5714     0.87381E-04 
  63233.8336     0.91101E-04 
  63266.0958     0.95032E-04 
  63298.3579     0.99177E-04 
  63330.6201     0.10354E-03 
  63362.8822     0.10812E-03 
  63395.1444     0.11292E-03 
  63427.4066     0.11795E-03 
  63459.6687     0.12321E-03 
  63491.9309     0.12869E-03 
  63524.1930     0.13442E-03 
  63556.4552     0.14038E-03 
  63588.7174     0.14659E-03 
  63620.9795     0.15304E-03 
  63653.2417     0.15974E-03 
  63685.5038     0.16669E-03 
  63717.7660     0.17390E-03 
  63750.0282     0.18137E-03 
  63782.2903     0.18911E-03 
  63814.5525     0.19711E-03 
  63846.8146     0.20539E-03 
  63879.0768     0.21394E-03 
  63911.3390     0.22277E-03 
  63943.6011     0.23189E-03 
  63975.8633     0.24130E-03 
  64008.1254     0.25101E-03 
  64040.3876     0.26101E-03 
  64072.6498     0.27132E-03 
  64104.9119     0.28193E-03 
  64137.1741     0.29286E-03 
  64169.4362     0.30411E-03 
  64201.6984     0.31568E-03 
  64233.9606     0.32758E-03 
  64266.2227     0.33981E-03 
  64298.4849     0.35239E-03 
  64330.7470     0.36531E-03 
  64363.0092     0.37858E-03 
  64395.2714     0.39220E-03 
  64427.5335     0.40619E-03 
  64459.7957     0.42054E-03 
  64492.0578     0.43527E-03 
  64524.3200     0.45038E-03 
  64556.5822     0.46588E-03 
  64588.8443     0.48177E-03 
  64621.1065     0.49805E-03 
  64653.3686     0.51475E-03 
  64685.6308     0.53186E-03 
  64717.8930     0.54938E-03 
  64750.1551     0.56734E-03 
  64782.4173     0.58572E-03 
  64814.6794     0.60455E-03 
  64846.9416     0.62383E-03 
  64879.2038     0.64356E-03 
  64911.4659     0.66376E-03 
  64943.7281     0.68443E-03 
  64975.9902     0.70557E-03 
  65008.2524     0.72721E-03 
  65040.5146     0.74934E-03 
  65072.7767     0.77197E-03 
  65105.0389     0.79512E-03 
  65137.3010     0.81879E-03 
  65169.5632     0.84298E-03 
  65201.8254     0.86772E-03 
  65234.0875     0.89301E-03 
  65266.3497     0.91885E-03 
  65298.6118     0.94526E-03 
  65330.8740     0.97224E-03 
  65363.1362     0.99981E-03 
  65395.3983     0.10280E-02 
  65427.6605     0.10568E-02 
  65459.9226     0.10861E-02 
  65492.1848     0.11162E-02 
  65524.4470     0.11468E-02 
  65556.7091     0.11781E-02 
  65588.9713     0.12101E-02 
  65621.2334     0.12427E-02 
  65653.4956     0.12760E-02 
  65685.7578     0.13100E-02 
  65718.0199     0.13447E-02 
  65750.2821     0.13801E-02 
  65782.5442     0.14163E-02 
  65814.8064     0.14532E-02 
  65847.0686     0.14908E-02 
  65879.3307     0.15292E-02 
  65911.5929     0.15684E-02 
  65943.8550     0.16084E-02 
  65976.1172     0.16492E-02 
  66008.3794     0.16908E-02 
  66040.6415     0.17332E-02 
  66072.9037     0.17765E-02 
  66105.1658     0.18206E-02 
  66137.4280     0.18656E-02 
  66169.6902     0.19115E-02 
  66201.9523     0.19583E-02 
  66234.2145     0.20060E-02 
  66266.4766     0.20546E-02 
  66298.7388     0.21042E-02 
  66331.0010     0.21547E-02 
  66363.2631     0.22062E-02 
  66395.5253     0.22587E-02 
  66427.7874     0.23123E-02 
  66460.0496     0.23668E-02 
  66492.3118     0.24224E-02 
  66524.5739     0.24790E-02 
  66556.8361     0.25368E-02 
  66589.0982     0.25956E-02 
  66621.3604     0.26555E-02 
  66653.6226     0.27165E-02 
  66685.8847     0.27787E-02 
  66718.1469     0.28421E-02 
  66750.4090     0.29066E-02 
  66782.6712     0.29724E-02 
  66814.9334     0.30393E-02 
  66847.1955     0.31075E-02 
  66879.4577     0.31770E-02 
  66911.7198     0.32477E-02 
  66943.9820     0.33197E-02 
  66976.2442     0.33931E-02 
  67008.5063     0.34677E-02 
  67040.7685     0.35438E-02 
  67073.0306     0.36212E-02 
  67105.2928     0.37000E-02 
  67137.5550     0.37802E-02 
  67169.8171     0.38619E-02 
  67202.0793     0.39450E-02 
  67234.3414     0.40296E-02 
  67266.6036     0.41157E-02 
  67298.8658     0.42034E-02 
  67331.1279     0.42926E-02 
  67363.3901     0.43834E-02 
  67395.6522     0.44758E-02 
  67427.9144     0.45698E-02 
  67460.1766     0.46654E-02 
  67492.4387     0.47627E-02 
  67524.7009     0.48617E-02 
  67556.9630     0.49624E-02 
  67589.2252     0.50649E-02 
  67621.4874     0.51691E-02 
  67653.7495     0.52752E-02 
  67686.0117     0.53830E-02 
  67718.2738     0.54927E-02 
  67750.5360     0.56043E-02 
  67782.7982     0.57177E-02 
  67815.0603     0.58331E-02 
  67847.3225     0.59504E-02 
  67879.5846     0.60697E-02 
  67911.8468     0.61910E-02 
  67944.1090     0.63143E-02 
  67976.3711     0.64397E-02 
  68008.6333     0.65672E-02 
  68040.8954     0.66968E-02 
  68073.1576     0.68285E-02 
  68105.4198     0.69624E-02 
  68137.6819     0.70985E-02 
  68169.9441     0.72369E-02 
  68202.2062     0.73775E-02 
  68234.4684     0.75203E-02 
  68266.7306     0.76655E-02 
  68298.9927     0.78131E-02 
  68331.2549     0.79630E-02 
  68363.5170     0.81153E-02 
  68395.7792     0.82701E-02 
  68428.0414     0.84274E-02 
  68460.3035     0.85871E-02 
  68492.5657     0.87494E-02 
  68524.8278     0.89142E-02 
  68557.0900     0.90817E-02 
  68589.3522     0.92517E-02 
  68621.6143     0.94245E-02 
  68653.8765     0.95999E-02 
  68686.1386     0.97780E-02 
  68718.4008     0.99589E-02 
  68750.6630     0.10143E-01 
  68782.9251     0.10329E-01 
  68815.1873     0.10519E-01 
  68847.4494     0.10711E-01 
  68879.7116     0.10906E-01 
  68911.9738     0.11104E-01 
  68944.2359     0.11305E-01 
  68976.4981     0.11510E-01 
  69008.7602     0.11717E-01 
  69041.0224     0.11927E-01 
  69073.2846     0.12141E-01 
  69105.5467     0.12357E-01 
  69137.8089     0.12577E-01 
  69170.0710     0.12800E-01 
  69202.3332     0.13027E-01 
  69234.5954     0.13256E-01 
  69266.8575     0.13489E-01 
  69299.1197     0.13726E-01 
  69331.3818     0.13966E-01 
  69363.6440     0.14209E-01 
  69395.9062     0.14456E-01 
  69428.1683     0.14706E-01 
  69460.4305     0.14960E-01 
  69492.6926     0.15217E-01 
  69524.9548     0.15478E-01 
  69557.2170     0.15743E-01 
  69589.4791     0.16012E-01 
  69621.7413     0.16284E-01 
  69654.0034     0.16560E-01 
  69686.2656     0.16840E-01 
  69718.5278     0.17123E-01 
  69750.7899     0.17411E-01 
  69783.0521     0.17703E-01 
  69815.3142     0.17998E-01 
  69847.5764     0.18298E-01 
  69879.8386     0.18601E-01 
  69912.1007     0.18909E-01 
  69944.3629     0.19221E-01 
  69976.6250     0.19536E-01 
  70008.8872     0.19857E-01 
  70041.1494     0.20181E-01 
  70073.4115     0.20509E-01 
  70105.6737     0.20842E-01 
  70137.9358     0.21180E-01 
  70170.1980     0.21521E-01 
  70202.4602     0.21867E-01 
  70234.7223     0.22218E-01 
  70266.9845     0.22573E-01 
  70299.2466     0.22932E-01 
  70331.5088     0.23296E-01 
  70363.7710     0.23665E-01 
  70396.0331     0.24038E-01 
  70428.2953     0.24416E-01 
  70460.5574     0.24799E-01 
  70492.8196     0.25186E-01 
  70525.0818     0.25579E-01 
  70557.3439     0.25976E-01 
  70589.6061     0.26378E-01 
  70621.8682     0.26784E-01 
  70654.1304     0.27196E-01 
  70686.3926     0.27613E-01 
  70718.6547     0.28035E-01 
  70750.9169     0.28461E-01 
  70783.1790     0.28893E-01 
  70815.4412     0.29330E-01 
  70847.7034     0.29772E-01 
  70879.9655     0.30219E-01 
  70912.2277     0.30672E-01 
  70944.4898     0.31129E-01 
  70976.7520     0.31592E-01 
  71009.0142     0.32060E-01 
  71041.2763     0.32534E-01 
  71073.5385     0.33013E-01 
  71105.8006     0.33497E-01 
  71138.0628     0.33987E-01 
  71170.3250     0.34482E-01 
  71202.5871     0.34983E-01 
  71234.8493     0.35489E-01 
  71267.1114     0.36001E-01 
  71299.3736     0.36518E-01 
  71331.6358     0.37042E-01 
  71363.8979     0.37570E-01 
  71396.1601     0.38105E-01 
  71428.4222     0.38645E-01 
  71460.6844     0.39190E-01 
  71492.9466     0.39742E-01 
  71525.2087     0.40299E-01 
  71557.4709     0.40862E-01 
  71589.7330     0.41431E-01 
  71621.9952     0.42006E-01 
  71654.2574     0.42587E-01 
  71686.5195     0.43174E-01 
  71718.7817     0.43766E-01 
  71751.0438     0.44365E-01 
  71783.3060     0.44970E-01 
  71815.5682     0.45580E-01 
  71847.8303     0.46197E-01 
  71880.0925     0.46820E-01 
  71912.3546     0.47448E-01 
  71944.6168     0.48083E-01 
  71976.8790     0.48724E-01 
  72009.1411     0.49372E-01 
  72041.4033     0.50025E-01 
  72073.6654     0.50684E-01 
  72105.9276     0.51350E-01 
  72138.1898     0.52022E-01 
  72170.4519     0.52700E-01 
  72202.7141     0.53385E-01 
  72234.9762     0.54075E-01 
  72267.2384     0.54772E-01 
  72299.5006     0.55475E-01 
  72331.7627     0.56185E-01 
  72364.0249     0.56901E-01 
  72396.2870     0.57623E-01 
  72428.5492     0.58352E-01 
  72460.8114     0.59087E-01 
  72493.0735     0.59828E-01 
  72525.3357     0.60576E-01 
  72557.5978     0.61330E-01 
  72589.8600     0.62090E-01 
