  32262.1600     0.47698E-02 
  32294.4222     0.48290E-02 
  32326.6843     0.48886E-02 
  32358.9465     0.49487E-02 
  32391.2086     0.50093E-02 
  32423.4708     0.50704E-02 
  32455.7330     0.51320E-02 
  32487.9951     0.51941E-02 
  32520.2573     0.52567E-02 
  32552.5194     0.53197E-02 
  32584.7816     0.53833E-02 
  32617.0438     0.54473E-02 
  32649.3059     0.55119E-02 
  32681.5681     0.55769E-02 
  32713.8302     0.56424E-02 
  32746.0924     0.57084E-02 
  32778.3546     0.57749E-02 
  32810.6167     0.58418E-02 
  32842.8789     0.59093E-02 
  32875.1410     0.59772E-02 
  32907.4032     0.60456E-02 
  32939.6654     0.61145E-02 
  32971.9275     0.61839E-02 
  33004.1897     0.62538E-02 
  33036.4518     0.63241E-02 
  33068.7140     0.63950E-02 
  33100.9762     0.64663E-02 
  33133.2383     0.65381E-02 
  33165.5005     0.66103E-02 
  33197.7626     0.66830E-02 
  33230.0248     0.67563E-02 
  33262.2870     0.68299E-02 
  33294.5491     0.69041E-02 
  33326.8113     0.69787E-02 
  33359.0734     0.70538E-02 
  33391.3356     0.71293E-02 
  33423.5978     0.72053E-02 
  33455.8599     0.72818E-02 
  33488.1221     0.73587E-02 
  33520.3842     0.74361E-02 
  33552.6464     0.75139E-02 
  33584.9086     0.75922E-02 
  33617.1707     0.76709E-02 
  33649.4329     0.77501E-02 
  33681.6950     0.78297E-02 
  33713.9572     0.79098E-02 
  33746.2194     0.79903E-02 
  33778.4815     0.80712E-02 
  33810.7437     0.81526E-02 
  33843.0058     0.82344E-02 
  33875.2680     0.83166E-02 
  33907.5302     0.83993E-02 
  33939.7923     0.84823E-02 
  33972.0545     0.85658E-02 
  34004.3166     0.86497E-02 
  34036.5788     0.87340E-02 
  34068.8410     0.88188E-02 
  34101.1031     0.89039E-02 
  34133.3653     0.89894E-02 
  34165.6274     0.90754E-02 
  34197.8896     0.91617E-02 
  34230.1518     0.92484E-02 
  34262.4139     0.93355E-02 
  34294.6761     0.94230E-02 
  34326.9382     0.95109E-02 
  34359.2004     0.95991E-02 
  34391.4626     0.96877E-02 
  34423.7247     0.97767E-02 
  34455.9869     0.98660E-02 
  34488.2490     0.99557E-02 
  34520.5112     0.10046E-01 
  34552.7734     0.10136E-01 
  34585.0355     0.10227E-01 
  34617.2977     0.10318E-01 
  34649.5598     0.10409E-01 
  34681.8220     0.10501E-01 
  34714.0842     0.10593E-01 
  34746.3463     0.10686E-01 
  34778.6085     0.10778E-01 
  34810.8706     0.10871E-01 
  34843.1328     0.10965E-01 
  34875.3950     0.11058E-01 
  34907.6571     0.11152E-01 
  34939.9193     0.11247E-01 
  34972.1814     0.11341E-01 
  35004.4436     0.11436E-01 
  35036.7058     0.11531E-01 
  35068.9679     0.11626E-01 
  35101.2301     0.11722E-01 
  35133.4922     0.11818E-01 
  35165.7544     0.11914E-01 
  35198.0166     0.12010E-01 
  35230.2787     0.12107E-01 
  35262.5409     0.12204E-01 
  35294.8030     0.12301E-01 
  35327.0652     0.12398E-01 
  35359.3274     0.12496E-01 
  35391.5895     0.12593E-01 
  35423.8517     0.12691E-01 
  35456.1138     0.12789E-01 
  35488.3760     0.12888E-01 
  35520.6382     0.12986E-01 
  35552.9003     0.13085E-01 
  35585.1625     0.13184E-01 
  35617.4246     0.13283E-01 
  35649.6868     0.13382E-01 
  35681.9490     0.13481E-01 
  35714.2111     0.13581E-01 
  35746.4733     0.13681E-01 
  35778.7354     0.13780E-01 
  35810.9976     0.13880E-01 
  35843.2598     0.13980E-01 
  35875.5219     0.14081E-01 
  35907.7841     0.14181E-01 
  35940.0462     0.14281E-01 
  35972.3084     0.14382E-01 
  36004.5706     0.14482E-01 
  36036.8327     0.14583E-01 
  36069.0949     0.14684E-01 
  36101.3570     0.14785E-01 
  36133.6192     0.14885E-01 
  36165.8814     0.14986E-01 
  36198.1435     0.15087E-01 
  36230.4057     0.15188E-01 
  36262.6678     0.15289E-01 
  36294.9300     0.15390E-01 
  36327.1922     0.15492E-01 
  36359.4543     0.15593E-01 
  36391.7165     0.15694E-01 
  36423.9786     0.15795E-01 
  36456.2408     0.15896E-01 
  36488.5030     0.15997E-01 
  36520.7651     0.16098E-01 
  36553.0273     0.16199E-01 
  36585.2894     0.16300E-01 
  36617.5516     0.16401E-01 
  36649.8138     0.16502E-01 
  36682.0759     0.16603E-01 
  36714.3381     0.16704E-01 
  36746.6002     0.16804E-01 
  36778.8624     0.16905E-01 
  36811.1246     0.17006E-01 
  36843.3867     0.17106E-01 
  36875.6489     0.17206E-01 
  36907.9110     0.17307E-01 
  36940.1732     0.17407E-01 
  36972.4354     0.17507E-01 
  37004.6975     0.17606E-01 
  37036.9597     0.17706E-01 
  37069.2218     0.17806E-01 
  37101.4840     0.17905E-01 
  37133.7462     0.18004E-01 
  37166.0083     0.18103E-01 
  37198.2705     0.18202E-01 
  37230.5326     0.18301E-01 
  37262.7948     0.18399E-01 
  37295.0570     0.18498E-01 
  37327.3191     0.18596E-01 
  37359.5813     0.18694E-01 
  37391.8434     0.18791E-01 
  37424.1056     0.18889E-01 
  37456.3678     0.18986E-01 
  37488.6299     0.19083E-01 
  37520.8921     0.19180E-01 
  37553.1542     0.19276E-01 
  37585.4164     0.19372E-01 
  37617.6786     0.19468E-01 
  37649.9407     0.19564E-01 
  37682.2029     0.19659E-01 
  37714.4650     0.19754E-01 
  37746.7272     0.19849E-01 
  37778.9894     0.19943E-01 
  37811.2515     0.20037E-01 
  37843.5137     0.20131E-01 
  37875.7758     0.20224E-01 
  37908.0380     0.20317E-01 
  37940.3002     0.20410E-01 
  37972.5623     0.20502E-01 
  38004.8245     0.20594E-01 
  38037.0866     0.20686E-01 
  38069.3488     0.20777E-01 
  38101.6110     0.20868E-01 
  38133.8731     0.20959E-01 
  38166.1353     0.21049E-01 
  38198.3974     0.21138E-01 
  38230.6596     0.21228E-01 
  38262.9218     0.21317E-01 
  38295.1839     0.21405E-01 
  38327.4461     0.21493E-01 
  38359.7082     0.21581E-01 
  38391.9704     0.21668E-01 
  38424.2326     0.21754E-01 
  38456.4947     0.21841E-01 
  38488.7569     0.21926E-01 
  38521.0190     0.22012E-01 
  38553.2812     0.22096E-01 
  38585.5434     0.22181E-01 
  38617.8055     0.22265E-01 
  38650.0677     0.22348E-01 
  38682.3298     0.22431E-01 
  38714.5920     0.22513E-01 
  38746.8542     0.22595E-01 
  38779.1163     0.22676E-01 
  38811.3785     0.22757E-01 
  38843.6406     0.22837E-01 
  38875.9028     0.22917E-01 
  38908.1650     0.22996E-01 
  38940.4271     0.23074E-01 
  38972.6893     0.23152E-01 
  39004.9514     0.23230E-01 
  39037.2136     0.23307E-01 
  39069.4758     0.23383E-01 
  39101.7379     0.23459E-01 
  39134.0001     0.23534E-01 
  39166.2622     0.23609E-01 
  39198.5244     0.23683E-01 
  39230.7866     0.23756E-01 
  39263.0487     0.23829E-01 
  39295.3109     0.23901E-01 
  39327.5730     0.23972E-01 
  39359.8352     0.24043E-01 
  39392.0974     0.24114E-01 
  39424.3595     0.24183E-01 
  39456.6217     0.24252E-01 
  39488.8838     0.24321E-01 
  39521.1460     0.24388E-01 
  39553.4082     0.24455E-01 
  39585.6703     0.24522E-01 
  39617.9325     0.24587E-01 
  39650.1946     0.24652E-01 
  39682.4568     0.24717E-01 
  39714.7190     0.24781E-01 
  39746.9811     0.24844E-01 
  39779.2433     0.24906E-01 
  39811.5054     0.24968E-01 
  39843.7676     0.25029E-01 
  39876.0298     0.25089E-01 
  39908.2919     0.25149E-01 
  39940.5541     0.25207E-01 
  39972.8162     0.25266E-01 
  40005.0784     0.25323E-01 
  40037.3406     0.25380E-01 
  40069.6027     0.25436E-01 
  40101.8649     0.25491E-01 
  40134.1270     0.25546E-01 
  40166.3892     0.25600E-01 
  40198.6514     0.25653E-01 
  40230.9135     0.25705E-01 
  40263.1757     0.25757E-01 
  40295.4378     0.25808E-01 
  40327.7000     0.25858E-01 
  40359.9622     0.25907E-01 
  40392.2243     0.25956E-01 
  40424.4865     0.26004E-01 
  40456.7486     0.26051E-01 
  40489.0108     0.26097E-01 
  40521.2730     0.26143E-01 
  40553.5351     0.26187E-01 
  40585.7973     0.26232E-01 
  40618.0594     0.26275E-01 
  40650.3216     0.26317E-01 
  40682.5838     0.26359E-01 
  40714.8459     0.26400E-01 
  40747.1081     0.26440E-01 
  40779.3702     0.26480E-01 
  40811.6324     0.26518E-01 
  40843.8946     0.26556E-01 
  40876.1567     0.26593E-01 
  40908.4189     0.26629E-01 
  40940.6810     0.26665E-01 
  40972.9432     0.26700E-01 
  41005.2054     0.26733E-01 
  41037.4675     0.26767E-01 
  41069.7297     0.26799E-01 
  41101.9918     0.26830E-01 
  41134.2540     0.26861E-01 
  41166.5162     0.26891E-01 
  41198.7783     0.26920E-01 
  41231.0405     0.26948E-01 
  41263.3026     0.26976E-01 
  41295.5648     0.27002E-01 
  41327.8270     0.27028E-01 
  41360.0891     0.27053E-01 
  41392.3513     0.27078E-01 
  41424.6134     0.27101E-01 
  41456.8756     0.27124E-01 
  41489.1378     0.27146E-01 
  41521.3999     0.27167E-01 
  41553.6621     0.27187E-01 
  41585.9242     0.27206E-01 
  41618.1864     0.27225E-01 
  41650.4486     0.27243E-01 
  41682.7107     0.27260E-01 
  41714.9729     0.27276E-01 
  41747.2350     0.27291E-01 
  41779.4972     0.27306E-01 
  41811.7594     0.27320E-01 
  41844.0215     0.27332E-01 
  41876.2837     0.27345E-01 
  41908.5458     0.27356E-01 
  41940.8080     0.27366E-01 
  41973.0702     0.27376E-01 
  42005.3323     0.27385E-01 
  42037.5945     0.27393E-01 
  42069.8566     0.27401E-01 
  42102.1188     0.27407E-01 
  42134.3810     0.27413E-01 
  42166.6431     0.27418E-01 
  42198.9053     0.27422E-01 
  42231.1674     0.27425E-01 
  42263.4296     0.27428E-01 
  42295.6918     0.27429E-01 
  42327.9539     0.27430E-01 
  42360.2161     0.27430E-01 
  42392.4782     0.27430E-01 
  42424.7404     0.27428E-01 
  42457.0026     0.27426E-01 
  42489.2647     0.27423E-01 
  42521.5269     0.27419E-01 
  42553.7890     0.27415E-01 
  42586.0512     0.27409E-01 
  42618.3134     0.27403E-01 
  42650.5755     0.27396E-01 
  42682.8377     0.27389E-01 
  42715.0998     0.27380E-01 
  42747.3620     0.27371E-01 
  42779.6242     0.27361E-01 
  42811.8863     0.27350E-01 
  42844.1485     0.27339E-01 
  42876.4106     0.27327E-01 
  42908.6728     0.27314E-01 
  42940.9350     0.27300E-01 
  42973.1971     0.27285E-01 
  43005.4593     0.27270E-01 
  43037.7214     0.27254E-01 
  43069.9836     0.27237E-01 
  43102.2458     0.27220E-01 
  43134.5079     0.27201E-01 
  43166.7701     0.27182E-01 
  43199.0322     0.27163E-01 
  43231.2944     0.27142E-01 
  43263.5566     0.27121E-01 
  43295.8187     0.27099E-01 
  43328.0809     0.27077E-01 
  43360.3430     0.27053E-01 
  43392.6052     0.27029E-01 
  43424.8674     0.27004E-01 
  43457.1295     0.26979E-01 
  43489.3917     0.26953E-01 
  43521.6538     0.26926E-01 
  43553.9160     0.26898E-01 
  43586.1782     0.26870E-01 
  43618.4403     0.26841E-01 
  43650.7025     0.26812E-01 
  43682.9646     0.26781E-01 
  43715.2268     0.26750E-01 
  43747.4890     0.26719E-01 
  43779.7511     0.26686E-01 
  43812.0133     0.26653E-01 
  43844.2754     0.26620E-01 
  43876.5376     0.26585E-01 
  43908.7998     0.26550E-01 
  43941.0619     0.26515E-01 
  43973.3241     0.26479E-01 
  44005.5862     0.26442E-01 
  44037.8484     0.26404E-01 
  44070.1106     0.26366E-01 
  44102.3727     0.26327E-01 
  44134.6349     0.26288E-01 
  44166.8970     0.26248E-01 
  44199.1592     0.26207E-01 
  44231.4214     0.26166E-01 
  44263.6835     0.26124E-01 
  44295.9457     0.26081E-01 
  44328.2078     0.26038E-01 
  44360.4700     0.25995E-01 
  44392.7322     0.25950E-01 
  44424.9943     0.25905E-01 
  44457.2565     0.25860E-01 
  44489.5186     0.25814E-01 
  44521.7808     0.25767E-01 
  44554.0430     0.25720E-01 
  44586.3051     0.25673E-01 
  44618.5673     0.25624E-01 
  44650.8294     0.25575E-01 
  44683.0916     0.25526E-01 
  44715.3538     0.25476E-01 
  44747.6159     0.25426E-01 
  44779.8781     0.25375E-01 
  44812.1402     0.25323E-01 
  44844.4024     0.25271E-01 
  44876.6646     0.25218E-01 
  44908.9267     0.25165E-01 
  44941.1889     0.25112E-01 
  44973.4510     0.25058E-01 
  45005.7132     0.25003E-01 
  45037.9754     0.24948E-01 
  45070.2375     0.24892E-01 
  45102.4997     0.24836E-01 
  45134.7618     0.24780E-01 
  45167.0240     0.24723E-01 
  45199.2862     0.24665E-01 
  45231.5483     0.24607E-01 
  45263.8105     0.24549E-01 
  45296.0726     0.24490E-01 
  45328.3348     0.24430E-01 
  45360.5970     0.24371E-01 
  45392.8591     0.24310E-01 
  45425.1213     0.24250E-01 
  45457.3834     0.24188E-01 
  45489.6456     0.24127E-01 
  45521.9078     0.24065E-01 
  45554.1699     0.24003E-01 
  45586.4321     0.23940E-01 
  45618.6942     0.23877E-01 
  45650.9564     0.23813E-01 
  45683.2186     0.23749E-01 
  45715.4807     0.23685E-01 
  45747.7429     0.23620E-01 
  45780.0050     0.23555E-01 
  45812.2672     0.23489E-01 
  45844.5294     0.23423E-01 
  45876.7915     0.23357E-01 
  45909.0537     0.23290E-01 
  45941.3158     0.23223E-01 
  45973.5780     0.23156E-01 
  46005.8402     0.23088E-01 
  46038.1023     0.23020E-01 
  46070.3645     0.22952E-01 
  46102.6266     0.22883E-01 
  46134.8888     0.22814E-01 
  46167.1510     0.22745E-01 
  46199.4131     0.22675E-01 
  46231.6753     0.22605E-01 
  46263.9374     0.22535E-01 
  46296.1996     0.22464E-01 
  46328.4618     0.22393E-01 
  46360.7239     0.22322E-01 
  46392.9861     0.22251E-01 
  46425.2482     0.22179E-01 
  46457.5104     0.22107E-01 
  46489.7726     0.22035E-01 
  46522.0347     0.21962E-01 
  46554.2969     0.21889E-01 
  46586.5590     0.21816E-01 
  46618.8212     0.21743E-01 
  46651.0834     0.21670E-01 
  46683.3455     0.21596E-01 
  46715.6077     0.21522E-01 
  46747.8698     0.21447E-01 
  46780.1320     0.21373E-01 
  46812.3942     0.21298E-01 
  46844.6563     0.21223E-01 
  46876.9185     0.21148E-01 
  46909.1806     0.21073E-01 
  46941.4428     0.20997E-01 
  46973.7050     0.20922E-01 
  47005.9671     0.20846E-01 
  47038.2293     0.20769E-01 
  47070.4914     0.20693E-01 
  47102.7536     0.20617E-01 
  47135.0158     0.20540E-01 
  47167.2779     0.20463E-01 
  47199.5401     0.20386E-01 
  47231.8022     0.20309E-01 
  47264.0644     0.20232E-01 
  47296.3266     0.20154E-01 
  47328.5887     0.20077E-01 
  47360.8509     0.19999E-01 
  47393.1130     0.19921E-01 
  47425.3752     0.19843E-01 
  47457.6374     0.19765E-01 
  47489.8995     0.19687E-01 
  47522.1617     0.19608E-01 
  47554.4238     0.19530E-01 
  47586.6860     0.19451E-01 
  47618.9482     0.19372E-01 
  47651.2103     0.19294E-01 
  47683.4725     0.19215E-01 
  47715.7346     0.19136E-01 
  47747.9968     0.19057E-01 
  47780.2590     0.18977E-01 
  47812.5211     0.18898E-01 
  47844.7833     0.18819E-01 
  47877.0454     0.18739E-01 
  47909.3076     0.18660E-01 
  47941.5698     0.18580E-01 
  47973.8319     0.18501E-01 
  48006.0941     0.18421E-01 
  48038.3562     0.18341E-01 
  48070.6184     0.18262E-01 
  48102.8806     0.18182E-01 
  48135.1427     0.18102E-01 
  48167.4049     0.18022E-01 
  48199.6670     0.17942E-01 
  48231.9292     0.17862E-01 
  48264.1914     0.17782E-01 
  48296.4535     0.17703E-01 
  48328.7157     0.17623E-01 
  48360.9778     0.17543E-01 
  48393.2400     0.17463E-01 
  48425.5022     0.17383E-01 
  48457.7643     0.17303E-01 
  48490.0265     0.17223E-01 
  48522.2886     0.17143E-01 
  48554.5508     0.17063E-01 
  48586.8130     0.16983E-01 
  48619.0751     0.16903E-01 
  48651.3373     0.16823E-01 
  48683.5994     0.16743E-01 
  48715.8616     0.16663E-01 
  48748.1238     0.16583E-01 
  48780.3859     0.16504E-01 
  48812.6481     0.16424E-01 
  48844.9102     0.16344E-01 
  48877.1724     0.16265E-01 
  48909.4346     0.16185E-01 
  48941.6967     0.16105E-01 
  48973.9589     0.16026E-01 
  49006.2210     0.15947E-01 
  49038.4832     0.15867E-01 
  49070.7454     0.15788E-01 
  49103.0075     0.15709E-01 
  49135.2697     0.15630E-01 
  49167.5318     0.15550E-01 
  49199.7940     0.15471E-01 
  49232.0562     0.15393E-01 
  49264.3183     0.15314E-01 
  49296.5805     0.15235E-01 
  49328.8426     0.15156E-01 
  49361.1048     0.15078E-01 
  49393.3670     0.14999E-01 
  49425.6291     0.14921E-01 
  49457.8913     0.14843E-01 
  49490.1534     0.14765E-01 
  49522.4156     0.14687E-01 
  49554.6778     0.14609E-01 
  49586.9399     0.14531E-01 
  49619.2021     0.14453E-01 
  49651.4642     0.14376E-01 
  49683.7264     0.14298E-01 
  49715.9886     0.14221E-01 
  49748.2507     0.14144E-01 
  49780.5129     0.14067E-01 
  49812.7750     0.13990E-01 
  49845.0372     0.13913E-01 
  49877.2994     0.13836E-01 
  49909.5615     0.13760E-01 
  49941.8237     0.13683E-01 
  49974.0858     0.13607E-01 
  50006.3480     0.13531E-01 
  50038.6102     0.13455E-01 
  50070.8723     0.13380E-01 
  50103.1345     0.13304E-01 
  50135.3966     0.13228E-01 
  50167.6588     0.13153E-01 
  50199.9210     0.13078E-01 
  50232.1831     0.13003E-01 
  50264.4453     0.12928E-01 
  50296.7074     0.12854E-01 
  50328.9696     0.12779E-01 
  50361.2318     0.12705E-01 
  50393.4939     0.12631E-01 
  50425.7561     0.12557E-01 
  50458.0182     0.12483E-01 
  50490.2804     0.12409E-01 
  50522.5426     0.12336E-01 
  50554.8047     0.12263E-01 
  50587.0669     0.12190E-01 
  50619.3290     0.12117E-01 
  50651.5912     0.12044E-01 
  50683.8534     0.11972E-01 
  50716.1155     0.11900E-01 
  50748.3777     0.11828E-01 
  50780.6398     0.11756E-01 
  50812.9020     0.11684E-01 
  50845.1642     0.11612E-01 
  50877.4263     0.11541E-01 
  50909.6885     0.11470E-01 
  50941.9506     0.11399E-01 
  50974.2128     0.11329E-01 
  51006.4750     0.11258E-01 
  51038.7371     0.11188E-01 
  51070.9993     0.11118E-01 
  51103.2614     0.11048E-01 
  51135.5236     0.10978E-01 
  51167.7858     0.10909E-01 
  51200.0479     0.10840E-01 
  51232.3101     0.10771E-01 
  51264.5722     0.10702E-01 
  51296.8344     0.10634E-01 
  51329.0966     0.10565E-01 
  51361.3587     0.10497E-01 
  51393.6209     0.10429E-01 
  51425.8830     0.10362E-01 
  51458.1452     0.10294E-01 
  51490.4074     0.10227E-01 
  51522.6695     0.10160E-01 
  51554.9317     0.10093E-01 
  51587.1938     0.10027E-01 
  51619.4560     0.99606E-02 
  51651.7182     0.98946E-02 
  51683.9803     0.98288E-02 
  51716.2425     0.97632E-02 
  51748.5046     0.96979E-02 
  51780.7668     0.96328E-02 
  51813.0290     0.95680E-02 
  51845.2911     0.95033E-02 
  51877.5533     0.94390E-02 
  51909.8154     0.93748E-02 
  51942.0776     0.93109E-02 
  51974.3398     0.92473E-02 
  52006.6019     0.91838E-02 
  52038.8641     0.91207E-02 
  52071.1262     0.90577E-02 
  52103.3884     0.89950E-02 
  52135.6506     0.89326E-02 
  52167.9127     0.88704E-02 
  52200.1749     0.88084E-02 
  52232.4370     0.87467E-02 
  52264.6992     0.86853E-02 
  52296.9614     0.86240E-02 
  52329.2235     0.85631E-02 
  52361.4857     0.85024E-02 
  52393.7478     0.84419E-02 
  52426.0100     0.83817E-02 
  52458.2722     0.83217E-02 
  52490.5343     0.82620E-02 
  52522.7965     0.82025E-02 
  52555.0586     0.81433E-02 
  52587.3208     0.80843E-02 
  52619.5830     0.80256E-02 
  52651.8451     0.79671E-02 
  52684.1073     0.79089E-02 
  52716.3694     0.78510E-02 
  52748.6316     0.77933E-02 
  52780.8938     0.77358E-02 
  52813.1559     0.76786E-02 
  52845.4181     0.76216E-02 
  52877.6802     0.75650E-02 
  52909.9424     0.75085E-02 
  52942.2046     0.74523E-02 
  52974.4667     0.73964E-02 
  53006.7289     0.73407E-02 
  53038.9910     0.72853E-02 
  53071.2532     0.72301E-02 
  53103.5154     0.71752E-02 
  53135.7775     0.71206E-02 
  53168.0397     0.70662E-02 
  53200.3018     0.70120E-02 
  53232.5640     0.69581E-02 
  53264.8262     0.69045E-02 
  53297.0883     0.68511E-02 
  53329.3505     0.67980E-02 
  53361.6126     0.67451E-02 
  53393.8748     0.66925E-02 
  53426.1370     0.66401E-02 
  53458.3991     0.65880E-02 
  53490.6613     0.65362E-02 
  53522.9234     0.64846E-02 
  53555.1856     0.64332E-02 
  53587.4478     0.63821E-02 
  53619.7099     0.63313E-02 
  53651.9721     0.62807E-02 
  53684.2342     0.62304E-02 
  53716.4964     0.61803E-02 
  53748.7586     0.61305E-02 
  53781.0207     0.60809E-02 
  53813.2829     0.60316E-02 
  53845.5450     0.59825E-02 
  53877.8072     0.59337E-02 
  53910.0694     0.58851E-02 
  53942.3315     0.58368E-02 
  53974.5937     0.57888E-02 
  54006.8558     0.57410E-02 
  54039.1180     0.56934E-02 
  54071.3802     0.56461E-02 
  54103.6423     0.55991E-02 
  54135.9045     0.55523E-02 
  54168.1666     0.55057E-02 
  54200.4288     0.54594E-02 
  54232.6910     0.54133E-02 
  54264.9531     0.53675E-02 
  54297.2153     0.53220E-02 
  54329.4774     0.52766E-02 
  54361.7396     0.52316E-02 
  54394.0018     0.51867E-02 
  54426.2639     0.51422E-02 
  54458.5261     0.50978E-02 
  54490.7882     0.50538E-02 
  54523.0504     0.50099E-02 
  54555.3126     0.49663E-02 
  54587.5747     0.49230E-02 
  54619.8369     0.48799E-02 
  54652.0990     0.48370E-02 
  54684.3612     0.47944E-02 
  54716.6234     0.47520E-02 
  54748.8855     0.47098E-02 
  54781.1477     0.46679E-02 
  54813.4098     0.46263E-02 
  54845.6720     0.45848E-02 
  54877.9342     0.45437E-02 
  54910.1963     0.45027E-02 
  54942.4585     0.44620E-02 
  54974.7206     0.44215E-02 
  55006.9828     0.43813E-02 
  55039.2450     0.43413E-02 
  55071.5071     0.43015E-02 
  55103.7693     0.42620E-02 
  55136.0314     0.42227E-02 
  55168.2936     0.41837E-02 
  55200.5558     0.41448E-02 
  55232.8179     0.41062E-02 
  55265.0801     0.40679E-02 
  55297.3422     0.40297E-02 
  55329.6044     0.39918E-02 
  55361.8666     0.39541E-02 
  55394.1287     0.39167E-02 
  55426.3909     0.38795E-02 
  55458.6530     0.38425E-02 
  55490.9152     0.38057E-02 
  55523.1774     0.37692E-02 
  55555.4395     0.37329E-02 
  55587.7017     0.36968E-02 
  55619.9638     0.36609E-02 
  55652.2260     0.36253E-02 
  55684.4882     0.35899E-02 
  55716.7503     0.35547E-02 
  55749.0125     0.35197E-02 
  55781.2746     0.34849E-02 
  55813.5368     0.34504E-02 
  55845.7990     0.34161E-02 
  55878.0611     0.33820E-02 
  55910.3233     0.33481E-02 
  55942.5854     0.33145E-02 
  55974.8476     0.32810E-02 
  56007.1098     0.32478E-02 
  56039.3719     0.32148E-02 
  56071.6341     0.31820E-02 
  56103.8962     0.31494E-02 
  56136.1584     0.31170E-02 
  56168.4206     0.30848E-02 
  56200.6827     0.30529E-02 
  56232.9449     0.30211E-02 
  56265.2070     0.29896E-02 
  56297.4692     0.29582E-02 
  56329.7314     0.29271E-02 
  56361.9935     0.28962E-02 
  56394.2557     0.28655E-02 
  56426.5178     0.28350E-02 
  56458.7800     0.28047E-02 
  56491.0422     0.27746E-02 
  56523.3043     0.27447E-02 
  56555.5665     0.27150E-02 
  56587.8286     0.26855E-02 
  56620.0908     0.26563E-02 
  56652.3530     0.26272E-02 
  56684.6151     0.25983E-02 
  56716.8773     0.25696E-02 
  56749.1394     0.25411E-02 
  56781.4016     0.25128E-02 
  56813.6638     0.24847E-02 
  56845.9259     0.24568E-02 
  56878.1881     0.24291E-02 
  56910.4502     0.24016E-02 
  56942.7124     0.23743E-02 
  56974.9746     0.23471E-02 
  57007.2367     0.23202E-02 
  57039.4989     0.22935E-02 
  57071.7610     0.22669E-02 
  57104.0232     0.22405E-02 
  57136.2854     0.22143E-02 
  57168.5475     0.21884E-02 
  57200.8097     0.21626E-02 
  57233.0718     0.21369E-02 
  57265.3340     0.21115E-02 
  57297.5962     0.20863E-02 
  57329.8583     0.20612E-02 
  57362.1205     0.20363E-02 
  57394.3826     0.20116E-02 
  57426.6448     0.19871E-02 
  57458.9070     0.19628E-02 
  57491.1691     0.19386E-02 
  57523.4313     0.19146E-02 
  57555.6934     0.18908E-02 
  57587.9556     0.18672E-02 
  57620.2178     0.18438E-02 
  57652.4799     0.18205E-02 
  57684.7421     0.17974E-02 
  57717.0042     0.17745E-02 
  57749.2664     0.17518E-02 
  57781.5286     0.17292E-02 
  57813.7907     0.17068E-02 
  57846.0529     0.16846E-02 
  57878.3150     0.16625E-02 
  57910.5772     0.16406E-02 
  57942.8394     0.16189E-02 
  57975.1015     0.15974E-02 
  58007.3637     0.15760E-02 
  58039.6258     0.15548E-02 
  58071.8880     0.15338E-02 
  58104.1502     0.15129E-02 
  58136.4123     0.14922E-02 
  58168.6745     0.14717E-02 
  58200.9366     0.14513E-02 
  58233.1988     0.14311E-02 
  58265.4610     0.14110E-02 
  58297.7231     0.13912E-02 
  58329.9853     0.13714E-02 
  58362.2474     0.13519E-02 
  58394.5096     0.13325E-02 
  58426.7718     0.13132E-02 
  58459.0339     0.12942E-02 
  58491.2961     0.12752E-02 
  58523.5582     0.12565E-02 
  58555.8204     0.12379E-02 
  58588.0826     0.12194E-02 
  58620.3447     0.12011E-02 
  58652.6069     0.11830E-02 
  58684.8690     0.11650E-02 
  58717.1312     0.11472E-02 
  58749.3934     0.11295E-02 
  58781.6555     0.11120E-02 
  58813.9177     0.10946E-02 
  58846.1798     0.10774E-02 
  58878.4420     0.10604E-02 
  58910.7042     0.10435E-02 
  58942.9663     0.10267E-02 
  58975.2285     0.10101E-02 
  59007.4906     0.99364E-03 
  59039.7528     0.97733E-03 
  59072.0150     0.96117E-03 
  59104.2771     0.94516E-03 
  59136.5393     0.92930E-03 
  59168.8014     0.91359E-03 
  59201.0636     0.89802E-03 
  59233.3258     0.88260E-03 
  59265.5879     0.86732E-03 
  59297.8501     0.85219E-03 
  59330.1122     0.83721E-03 
  59362.3744     0.82237E-03 
  59394.6366     0.80767E-03 
  59426.8987     0.79312E-03 
  59459.1609     0.77872E-03 
  59491.4230     0.76445E-03 
  59523.6852     0.75033E-03 
  59555.9474     0.73635E-03 
  59588.2095     0.72252E-03 
  59620.4717     0.70882E-03 
  59652.7338     0.69527E-03 
  59684.9960     0.68186E-03 
  59717.2582     0.66859E-03 
  59749.5203     0.65545E-03 
  59781.7825     0.64246E-03 
  59814.0446     0.62961E-03 
  59846.3068     0.61690E-03 
  59878.5690     0.60433E-03 
  59910.8311     0.59190E-03 
  59943.0933     0.57961E-03 
  59975.3554     0.56745E-03 
  60007.6176     0.55544E-03 
  60039.8798     0.54356E-03 
  60072.1419     0.53182E-03 
  60104.4041     0.52022E-03 
  60136.6662     0.50876E-03 
  60168.9284     0.49743E-03 
  60201.1906     0.48625E-03 
  60233.4527     0.47520E-03 
  60265.7149     0.46428E-03 
  60297.9770     0.45351E-03 
  60330.2392     0.44287E-03 
  60362.5014     0.43237E-03 
  60394.7635     0.42200E-03 
  60427.0257     0.41178E-03 
  60459.2878     0.40169E-03 
  60491.5500     0.39173E-03 
  60523.8122     0.38192E-03 
  60556.0743     0.37224E-03 
  60588.3365     0.36270E-03 
  60620.5986     0.35329E-03 
  60652.8608     0.34403E-03 
  60685.1230     0.33490E-03 
  60717.3851     0.32590E-03 
  60749.6473     0.31705E-03 
  60781.9094     0.30833E-03 
  60814.1716     0.29975E-03 
  60846.4338     0.29131E-03 
  60878.6959     0.28301E-03 
  60910.9581     0.27485E-03 
  60943.2202     0.26682E-03 
  60975.4824     0.25894E-03 
  61007.7446     0.25119E-03 
  61040.0067     0.24359E-03 
  61072.2689     0.23612E-03 
  61104.5310     0.22880E-03 
  61136.7932     0.22161E-03 
  61169.0554     0.21457E-03 
  61201.3175     0.20766E-03 
  61233.5797     0.20090E-03 
  61265.8418     0.19429E-03 
  61298.1040     0.18781E-03 
  61330.3662     0.18148E-03 
  61362.6283     0.17529E-03 
  61394.8905     0.16925E-03 
  61427.1526     0.16335E-03 
  61459.4148     0.15760E-03 
  61491.6770     0.15200E-03 
  61523.9391     0.14654E-03 
  61556.2013     0.14123E-03 
  61588.4634     0.13607E-03 
  61620.7256     0.13105E-03 
  61652.9878     0.12619E-03 
  61685.2499     0.12148E-03 
  61717.5121     0.11692E-03 
  61749.7742     0.11251E-03 
  61782.0364     0.10826E-03 
  61814.2986     0.10416E-03 
  61846.5607     0.10022E-03 
  61878.8229     0.96427E-04 
  61911.0850     0.92796E-04 
  61943.3472     0.89324E-04 
  61975.6094     0.86011E-04 
  62007.8715     0.82859E-04 
  62040.1337     0.79868E-04 
  62072.3958     0.77041E-04 
  62104.6580     0.74377E-04 
  62136.9202     0.71879E-04 
  62169.1823     0.69548E-04 
  62201.4445     0.67385E-04 
  62233.7066     0.65391E-04 
  62265.9688     0.63568E-04 
  62298.2310     0.61918E-04 
  62330.4931     0.60441E-04 
  62362.7553     0.59140E-04 
  62395.0174     0.58016E-04 
  62427.2796     0.57071E-04 
  62459.5418     0.56306E-04 
  62491.8039     0.55723E-04 
  62524.0661     0.55324E-04 
  62556.3282     0.55111E-04 
  62588.5904     0.55085E-04 
  62620.8526     0.55249E-04 
  62653.1147     0.55604E-04 
  62685.3769     0.56153E-04 
  62717.6390     0.56897E-04 
  62749.9012     0.57839E-04 
  62782.1634     0.58981E-04 
  62814.4255     0.60325E-04 
  62846.6877     0.61873E-04 
  62878.9498     0.63628E-04 
  62911.2120     0.65592E-04 
  62943.4742     0.67768E-04 
  62975.7363     0.70157E-04 
  63007.9985     0.72764E-04 
  63040.2606     0.75589E-04 
  63072.5228     0.78637E-04 
  63104.7850     0.81909E-04 
  63137.0471     0.85409E-04 
  63169.3093     0.89140E-04 
  63201.5714     0.93104E-04 
  63233.8336     0.97304E-04 
  63266.0958     0.10174E-03 
  63298.3579     0.10643E-03 
  63330.6201     0.11136E-03 
  63362.8822     0.11653E-03 
  63395.1444     0.12197E-03 
  63427.4066     0.12765E-03 
  63459.6687     0.13360E-03 
  63491.9309     0.13981E-03 
  63524.1930     0.14629E-03 
  63556.4552     0.15304E-03 
  63588.7174     0.16006E-03 
  63620.9795     0.16736E-03 
  63653.2417     0.17494E-03 
  63685.5038     0.18282E-03 
  63717.7660     0.19098E-03 
  63750.0282     0.19944E-03 
  63782.2903     0.20819E-03 
  63814.5525     0.21725E-03 
  63846.8146     0.22663E-03 
  63879.0768     0.23631E-03 
  63911.3390     0.24631E-03 
  63943.6011     0.25664E-03 
  63975.8633     0.26729E-03 
  64008.1254     0.27828E-03 
  64040.3876     0.28960E-03 
  64072.6498     0.30127E-03 
  64104.9119     0.31329E-03 
  64137.1741     0.32566E-03 
  64169.4362     0.33839E-03 
  64201.6984     0.35149E-03 
  64233.9606     0.36496E-03 
  64266.2227     0.37881E-03 
  64298.4849     0.39304E-03 
  64330.7470     0.40767E-03 
  64363.0092     0.42268E-03 
  64395.2714     0.43811E-03 
  64427.5335     0.45394E-03 
  64459.7957     0.47018E-03 
  64492.0578     0.48685E-03 
  64524.3200     0.50395E-03 
  64556.5822     0.52149E-03 
  64588.8443     0.53947E-03 
  64621.1065     0.55790E-03 
  64653.3686     0.57679E-03 
  64685.6308     0.59615E-03 
  64717.8930     0.61598E-03 
  64750.1551     0.63629E-03 
  64782.4173     0.65710E-03 
  64814.6794     0.67840E-03 
  64846.9416     0.70021E-03 
  64879.2038     0.72254E-03 
  64911.4659     0.74539E-03 
  64943.7281     0.76877E-03 
  64975.9902     0.79270E-03 
  65008.2524     0.81718E-03 
  65040.5146     0.84222E-03 
  65072.7767     0.86782E-03 
  65105.0389     0.89401E-03 
  65137.3010     0.92079E-03 
  65169.5632     0.94817E-03 
  65201.8254     0.97616E-03 
  65234.0875     0.10048E-02 
  65266.3497     0.10340E-02 
  65298.6118     0.10639E-02 
  65330.8740     0.10944E-02 
  65363.1362     0.11256E-02 
  65395.3983     0.11575E-02 
  65427.6605     0.11900E-02 
  65459.9226     0.12233E-02 
  65492.1848     0.12573E-02 
  65524.4470     0.12920E-02 
  65556.7091     0.13274E-02 
  65588.9713     0.13636E-02 
  65621.2334     0.14005E-02 
  65653.4956     0.14382E-02 
  65685.7578     0.14767E-02 
  65718.0199     0.15160E-02 
  65750.2821     0.15561E-02 
  65782.5442     0.15970E-02 
  65814.8064     0.16388E-02 
  65847.0686     0.16814E-02 
  65879.3307     0.17249E-02 
  65911.5929     0.17693E-02 
  65943.8550     0.18146E-02 
  65976.1172     0.18608E-02 
  66008.3794     0.19079E-02 
  66040.6415     0.19559E-02 
  66072.9037     0.20050E-02 
  66105.1658     0.20550E-02 
  66137.4280     0.21060E-02 
  66169.6902     0.21580E-02 
  66201.9523     0.22110E-02 
  66234.2145     0.22651E-02 
  66266.4766     0.23203E-02 
  66298.7388     0.23765E-02 
  66331.0010     0.24338E-02 
  66363.2631     0.24922E-02 
  66395.5253     0.25518E-02 
  66427.7874     0.26125E-02 
  66460.0496     0.26744E-02 
  66492.3118     0.27375E-02 
  66524.5739     0.28018E-02 
  66556.8361     0.28673E-02 
  66589.0982     0.29341E-02 
  66621.3604     0.30022E-02 
  66653.6226     0.30715E-02 
  66685.8847     0.31422E-02 
  66718.1469     0.32141E-02 
  66750.4090     0.32875E-02 
  66782.6712     0.33622E-02 
  66814.9334     0.34383E-02 
  66847.1955     0.35158E-02 
  66879.4577     0.35948E-02 
  66911.7198     0.36753E-02 
  66943.9820     0.37572E-02 
  66976.2442     0.38407E-02 
  67008.5063     0.39256E-02 
  67040.7685     0.40122E-02 
  67073.0306     0.41003E-02 
  67105.2928     0.41901E-02 
  67137.5550     0.42815E-02 
  67169.8171     0.43745E-02 
  67202.0793     0.44692E-02 
  67234.3414     0.45657E-02 
  67266.6036     0.46639E-02 
  67298.8658     0.47638E-02 
  67331.1279     0.48656E-02 
  67363.3901     0.49692E-02 
  67395.6522     0.50746E-02 
  67427.9144     0.51819E-02 
  67460.1766     0.52911E-02 
  67492.4387     0.54022E-02 
  67524.7009     0.55153E-02 
  67556.9630     0.56304E-02 
  67589.2252     0.57475E-02 
  67621.4874     0.58666E-02 
  67653.7495     0.59879E-02 
  67686.0117     0.61112E-02 
  67718.2738     0.62367E-02 
  67750.5360     0.63644E-02 
  67782.7982     0.64943E-02 
  67815.0603     0.66264E-02 
  67847.3225     0.67608E-02 
  67879.5846     0.68975E-02 
  67911.8468     0.70365E-02 
  67944.1090     0.71779E-02 
  67976.3711     0.73217E-02 
  68008.6333     0.74679E-02 
  68040.8954     0.76166E-02 
  68073.1576     0.77678E-02 
  68105.4198     0.79215E-02 
  68137.6819     0.80778E-02 
  68169.9441     0.82368E-02 
  68202.2062     0.83983E-02 
  68234.4684     0.85626E-02 
  68266.7306     0.87296E-02 
  68298.9927     0.88993E-02 
  68331.2549     0.90718E-02 
  68363.5170     0.92472E-02 
  68395.7792     0.94254E-02 
  68428.0414     0.96065E-02 
  68460.3035     0.97906E-02 
  68492.5657     0.99776E-02 
  68524.8278     0.10168E-01 
  68557.0900     0.10361E-01 
  68589.3522     0.10557E-01 
  68621.6143     0.10756E-01 
  68653.8765     0.10959E-01 
  68686.1386     0.11165E-01 
  68718.4008     0.11374E-01 
  68750.6630     0.11586E-01 
  68782.9251     0.11802E-01 
  68815.1873     0.12021E-01 
  68847.4494     0.12243E-01 
  68879.7116     0.12469E-01 
  68911.9738     0.12699E-01 
  68944.2359     0.12932E-01 
  68976.4981     0.13169E-01 
  69008.7602     0.13409E-01 
  69041.0224     0.13653E-01 
  69073.2846     0.13900E-01 
  69105.5467     0.14152E-01 
  69137.8089     0.14407E-01 
  69170.0710     0.14666E-01 
  69202.3332     0.14929E-01 
  69234.5954     0.15196E-01 
  69266.8575     0.15467E-01 
  69299.1197     0.15742E-01 
  69331.3818     0.16021E-01 
  69363.6440     0.16305E-01 
  69395.9062     0.16592E-01 
  69428.1683     0.16884E-01 
  69460.4305     0.17180E-01 
  69492.6926     0.17480E-01 
  69524.9548     0.17784E-01 
  69557.2170     0.18093E-01 
  69589.4791     0.18407E-01 
  69621.7413     0.18725E-01 
  69654.0034     0.19047E-01 
  69686.2656     0.19374E-01 
  69718.5278     0.19706E-01 
  69750.7899     0.20043E-01 
  69783.0521     0.20384E-01 
  69815.3142     0.20730E-01 
  69847.5764     0.21081E-01 
  69879.8386     0.21436E-01 
  69912.1007     0.21797E-01 
  69944.3629     0.22163E-01 
  69976.6250     0.22533E-01 
  70008.8872     0.22909E-01 
  70041.1494     0.23290E-01 
  70073.4115     0.23676E-01 
  70105.6737     0.24067E-01 
  70137.9358     0.24464E-01 
  70170.1980     0.24866E-01 
  70202.4602     0.25273E-01 
  70234.7223     0.25686E-01 
  70266.9845     0.26104E-01 
  70299.2466     0.26527E-01 
  70331.5088     0.26957E-01 
  70363.7710     0.27392E-01 
  70396.0331     0.27832E-01 
  70428.2953     0.28278E-01 
  70460.5574     0.28730E-01 
  70492.8196     0.29188E-01 
  70525.0818     0.29652E-01 
  70557.3439     0.30121E-01 
  70589.6061     0.30597E-01 
  70621.8682     0.31078E-01 
  70654.1304     0.31566E-01 
  70686.3926     0.32059E-01 
  70718.6547     0.32559E-01 
  70750.9169     0.33065E-01 
  70783.1790     0.33577E-01 
  70815.4412     0.34096E-01 
  70847.7034     0.34621E-01 
  70879.9655     0.35152E-01 
  70912.2277     0.35689E-01 
  70944.4898     0.36233E-01 
  70976.7520     0.36784E-01 
  71009.0142     0.37341E-01 
  71041.2763     0.37905E-01 
  71073.5385     0.38475E-01 
  71105.8006     0.39053E-01 
  71138.0628     0.39636E-01 
  71170.3250     0.40227E-01 
  71202.5871     0.40824E-01 
  71234.8493     0.41429E-01 
  71267.1114     0.42040E-01 
  71299.3736     0.42658E-01 
  71331.6358     0.43283E-01 
  71363.8979     0.43916E-01 
  71396.1601     0.44555E-01 
  71428.4222     0.45201E-01 
  71460.6844     0.45855E-01 
  71492.9466     0.46516E-01 
  71525.2087     0.47184E-01 
  71557.4709     0.47859E-01 
  71589.7330     0.48542E-01 
  71621.9952     0.49232E-01 
  71654.2574     0.49929E-01 
  71686.5195     0.50634E-01 
  71718.7817     0.51346E-01 
  71751.0438     0.52066E-01 
  71783.3060     0.52794E-01 
  71815.5682     0.53528E-01 
  71847.8303     0.54271E-01 
  71880.0925     0.55021E-01 
  71912.3546     0.55779E-01 
  71944.6168     0.56545E-01 
  71976.8790     0.57318E-01 
  72009.1411     0.58099E-01 
  72041.4033     0.58888E-01 
  72073.6654     0.59684E-01 
  72105.9276     0.60489E-01 
  72138.1898     0.61301E-01 
  72170.4519     0.62122E-01 
  72202.7141     0.62950E-01 
  72234.9762     0.63786E-01 
  72267.2384     0.64630E-01 
  72299.5006     0.65482E-01 
  72331.7627     0.66343E-01 
  72364.0249     0.67211E-01 
  72396.2870     0.68087E-01 
  72428.5492     0.68972E-01 
  72460.8114     0.69865E-01 
  72493.0735     0.70765E-01 
  72525.3357     0.71674E-01 
  72557.5978     0.72591E-01 
  72589.8600     0.73517E-01 
