  32262.1600     0.36316E-03 
  32294.4222     0.36669E-03 
  32326.6843     0.37025E-03 
  32358.9465     0.37383E-03 
  32391.2086     0.37744E-03 
  32423.4708     0.38107E-03 
  32455.7330     0.38471E-03 
  32487.9951     0.38839E-03 
  32520.2573     0.39208E-03 
  32552.5194     0.39580E-03 
  32584.7816     0.39954E-03 
  32617.0438     0.40330E-03 
  32649.3059     0.40708E-03 
  32681.5681     0.41089E-03 
  32713.8302     0.41471E-03 
  32746.0924     0.41857E-03 
  32778.3546     0.42244E-03 
  32810.6167     0.42633E-03 
  32842.8789     0.43025E-03 
  32875.1410     0.43419E-03 
  32907.4032     0.43815E-03 
  32939.6654     0.44214E-03 
  32971.9275     0.44614E-03 
  33004.1897     0.45017E-03 
  33036.4518     0.45422E-03 
  33068.7140     0.45830E-03 
  33100.9762     0.46239E-03 
  33133.2383     0.46651E-03 
  33165.5005     0.47065E-03 
  33197.7626     0.47481E-03 
  33230.0248     0.47899E-03 
  33262.2870     0.48319E-03 
  33294.5491     0.48742E-03 
  33326.8113     0.49167E-03 
  33359.0734     0.49593E-03 
  33391.3356     0.50023E-03 
  33423.5978     0.50454E-03 
  33455.8599     0.50887E-03 
  33488.1221     0.51323E-03 
  33520.3842     0.51760E-03 
  33552.6464     0.52200E-03 
  33584.9086     0.52642E-03 
  33617.1707     0.53086E-03 
  33649.4329     0.53532E-03 
  33681.6950     0.53980E-03 
  33713.9572     0.54431E-03 
  33746.2194     0.54883E-03 
  33778.4815     0.55337E-03 
  33810.7437     0.55794E-03 
  33843.0058     0.56253E-03 
  33875.2680     0.56713E-03 
  33907.5302     0.57176E-03 
  33939.7923     0.57641E-03 
  33972.0545     0.58107E-03 
  34004.3166     0.58576E-03 
  34036.5788     0.59047E-03 
  34068.8410     0.59519E-03 
  34101.1031     0.59994E-03 
  34133.3653     0.60471E-03 
  34165.6274     0.60949E-03 
  34197.8896     0.61430E-03 
  34230.1518     0.61913E-03 
  34262.4139     0.62397E-03 
  34294.6761     0.62883E-03 
  34326.9382     0.63372E-03 
  34359.2004     0.63862E-03 
  34391.4626     0.64354E-03 
  34423.7247     0.64848E-03 
  34455.9869     0.65343E-03 
  34488.2490     0.65841E-03 
  34520.5112     0.66340E-03 
  34552.7734     0.66842E-03 
  34585.0355     0.67345E-03 
  34617.2977     0.67849E-03 
  34649.5598     0.68356E-03 
  34681.8220     0.68864E-03 
  34714.0842     0.69374E-03 
  34746.3463     0.69886E-03 
  34778.6085     0.70400E-03 
  34810.8706     0.70915E-03 
  34843.1328     0.71432E-03 
  34875.3950     0.71951E-03 
  34907.6571     0.72471E-03 
  34939.9193     0.72993E-03 
  34972.1814     0.73516E-03 
  35004.4436     0.74041E-03 
  35036.7058     0.74568E-03 
  35068.9679     0.75096E-03 
  35101.2301     0.75626E-03 
  35133.4922     0.76157E-03 
  35165.7544     0.76690E-03 
  35198.0166     0.77224E-03 
  35230.2787     0.77760E-03 
  35262.5409     0.78298E-03 
  35294.8030     0.78836E-03 
  35327.0652     0.79377E-03 
  35359.3274     0.79918E-03 
  35391.5895     0.80461E-03 
  35423.8517     0.81006E-03 
  35456.1138     0.81551E-03 
  35488.3760     0.82098E-03 
  35520.6382     0.82647E-03 
  35552.9003     0.83196E-03 
  35585.1625     0.83747E-03 
  35617.4246     0.84300E-03 
  35649.6868     0.84853E-03 
  35681.9490     0.85408E-03 
  35714.2111     0.85964E-03 
  35746.4733     0.86521E-03 
  35778.7354     0.87079E-03 
  35810.9976     0.87638E-03 
  35843.2598     0.88199E-03 
  35875.5219     0.88760E-03 
  35907.7841     0.89323E-03 
  35940.0462     0.89886E-03 
  35972.3084     0.90451E-03 
  36004.5706     0.91017E-03 
  36036.8327     0.91583E-03 
  36069.0949     0.92151E-03 
  36101.3570     0.92719E-03 
  36133.6192     0.93289E-03 
  36165.8814     0.93859E-03 
  36198.1435     0.94430E-03 
  36230.4057     0.95002E-03 
  36262.6678     0.95575E-03 
  36294.9300     0.96149E-03 
  36327.1922     0.96723E-03 
  36359.4543     0.97298E-03 
  36391.7165     0.97874E-03 
  36423.9786     0.98451E-03 
  36456.2408     0.99028E-03 
  36488.5030     0.99606E-03 
  36520.7651     0.10018E-02 
  36553.0273     0.10076E-02 
  36585.2894     0.10134E-02 
  36617.5516     0.10192E-02 
  36649.8138     0.10250E-02 
  36682.0759     0.10308E-02 
  36714.3381     0.10367E-02 
  36746.6002     0.10425E-02 
  36778.8624     0.10483E-02 
  36811.1246     0.10541E-02 
  36843.3867     0.10600E-02 
  36875.6489     0.10658E-02 
  36907.9110     0.10717E-02 
  36940.1732     0.10775E-02 
  36972.4354     0.10833E-02 
  37004.6975     0.10892E-02 
  37036.9597     0.10950E-02 
  37069.2218     0.11009E-02 
  37101.4840     0.11067E-02 
  37133.7462     0.11126E-02 
  37166.0083     0.11184E-02 
  37198.2705     0.11243E-02 
  37230.5326     0.11302E-02 
  37262.7948     0.11360E-02 
  37295.0570     0.11419E-02 
  37327.3191     0.11477E-02 
  37359.5813     0.11536E-02 
  37391.8434     0.11594E-02 
  37424.1056     0.11653E-02 
  37456.3678     0.11711E-02 
  37488.6299     0.11770E-02 
  37520.8921     0.11828E-02 
  37553.1542     0.11887E-02 
  37585.4164     0.11945E-02 
  37617.6786     0.12004E-02 
  37649.9407     0.12062E-02 
  37682.2029     0.12120E-02 
  37714.4650     0.12178E-02 
  37746.7272     0.12237E-02 
  37778.9894     0.12295E-02 
  37811.2515     0.12353E-02 
  37843.5137     0.12411E-02 
  37875.7758     0.12469E-02 
  37908.0380     0.12527E-02 
  37940.3002     0.12585E-02 
  37972.5623     0.12643E-02 
  38004.8245     0.12701E-02 
  38037.0866     0.12758E-02 
  38069.3488     0.12816E-02 
  38101.6110     0.12874E-02 
  38133.8731     0.12931E-02 
  38166.1353     0.12989E-02 
  38198.3974     0.13046E-02 
  38230.6596     0.13103E-02 
  38262.9218     0.13160E-02 
  38295.1839     0.13217E-02 
  38327.4461     0.13274E-02 
  38359.7082     0.13331E-02 
  38391.9704     0.13388E-02 
  38424.2326     0.13445E-02 
  38456.4947     0.13501E-02 
  38488.7569     0.13558E-02 
  38521.0190     0.13614E-02 
  38553.2812     0.13670E-02 
  38585.5434     0.13727E-02 
  38617.8055     0.13782E-02 
  38650.0677     0.13838E-02 
  38682.3298     0.13894E-02 
  38714.5920     0.13950E-02 
  38746.8542     0.14005E-02 
  38779.1163     0.14061E-02 
  38811.3785     0.14116E-02 
  38843.6406     0.14171E-02 
  38875.9028     0.14226E-02 
  38908.1650     0.14280E-02 
  38940.4271     0.14335E-02 
  38972.6893     0.14390E-02 
  39004.9514     0.14444E-02 
  39037.2136     0.14498E-02 
  39069.4758     0.14552E-02 
  39101.7379     0.14606E-02 
  39134.0001     0.14659E-02 
  39166.2622     0.14713E-02 
  39198.5244     0.14766E-02 
  39230.7866     0.14819E-02 
  39263.0487     0.14872E-02 
  39295.3109     0.14925E-02 
  39327.5730     0.14978E-02 
  39359.8352     0.15030E-02 
  39392.0974     0.15082E-02 
  39424.3595     0.15134E-02 
  39456.6217     0.15186E-02 
  39488.8838     0.15238E-02 
  39521.1460     0.15289E-02 
  39553.4082     0.15340E-02 
  39585.6703     0.15391E-02 
  39617.9325     0.15442E-02 
  39650.1946     0.15493E-02 
  39682.4568     0.15543E-02 
  39714.7190     0.15593E-02 
  39746.9811     0.15643E-02 
  39779.2433     0.15693E-02 
  39811.5054     0.15742E-02 
  39843.7676     0.15791E-02 
  39876.0298     0.15840E-02 
  39908.2919     0.15889E-02 
  39940.5541     0.15937E-02 
  39972.8162     0.15986E-02 
  40005.0784     0.16034E-02 
  40037.3406     0.16081E-02 
  40069.6027     0.16129E-02 
  40101.8649     0.16176E-02 
  40134.1270     0.16223E-02 
  40166.3892     0.16270E-02 
  40198.6514     0.16316E-02 
  40230.9135     0.16363E-02 
  40263.1757     0.16409E-02 
  40295.4378     0.16454E-02 
  40327.7000     0.16500E-02 
  40359.9622     0.16545E-02 
  40392.2243     0.16590E-02 
  40424.4865     0.16634E-02 
  40456.7486     0.16679E-02 
  40489.0108     0.16723E-02 
  40521.2730     0.16766E-02 
  40553.5351     0.16810E-02 
  40585.7973     0.16853E-02 
  40618.0594     0.16896E-02 
  40650.3216     0.16939E-02 
  40682.5838     0.16981E-02 
  40714.8459     0.17023E-02 
  40747.1081     0.17064E-02 
  40779.3702     0.17106E-02 
  40811.6324     0.17147E-02 
  40843.8946     0.17188E-02 
  40876.1567     0.17228E-02 
  40908.4189     0.17268E-02 
  40940.6810     0.17308E-02 
  40972.9432     0.17348E-02 
  41005.2054     0.17387E-02 
  41037.4675     0.17426E-02 
  41069.7297     0.17464E-02 
  41101.9918     0.17502E-02 
  41134.2540     0.17540E-02 
  41166.5162     0.17578E-02 
  41198.7783     0.17615E-02 
  41231.0405     0.17652E-02 
  41263.3026     0.17688E-02 
  41295.5648     0.17725E-02 
  41327.8270     0.17760E-02 
  41360.0891     0.17796E-02 
  41392.3513     0.17831E-02 
  41424.6134     0.17866E-02 
  41456.8756     0.17900E-02 
  41489.1378     0.17935E-02 
  41521.3999     0.17968E-02 
  41553.6621     0.18002E-02 
  41585.9242     0.18035E-02 
  41618.1864     0.18068E-02 
  41650.4486     0.18100E-02 
  41682.7107     0.18132E-02 
  41714.9729     0.18164E-02 
  41747.2350     0.18195E-02 
  41779.4972     0.18226E-02 
  41811.7594     0.18256E-02 
  41844.0215     0.18286E-02 
  41876.2837     0.18316E-02 
  41908.5458     0.18346E-02 
  41940.8080     0.18375E-02 
  41973.0702     0.18403E-02 
  42005.3323     0.18432E-02 
  42037.5945     0.18460E-02 
  42069.8566     0.18487E-02 
  42102.1188     0.18514E-02 
  42134.3810     0.18541E-02 
  42166.6431     0.18567E-02 
  42198.9053     0.18593E-02 
  42231.1674     0.18619E-02 
  42263.4296     0.18644E-02 
  42295.6918     0.18669E-02 
  42327.9539     0.18694E-02 
  42360.2161     0.18718E-02 
  42392.4782     0.18741E-02 
  42424.7404     0.18765E-02 
  42457.0026     0.18788E-02 
  42489.2647     0.18810E-02 
  42521.5269     0.18832E-02 
  42553.7890     0.18854E-02 
  42586.0512     0.18875E-02 
  42618.3134     0.18896E-02 
  42650.5755     0.18916E-02 
  42682.8377     0.18937E-02 
  42715.0998     0.18956E-02 
  42747.3620     0.18976E-02 
  42779.6242     0.18994E-02 
  42811.8863     0.19013E-02 
  42844.1485     0.19031E-02 
  42876.4106     0.19049E-02 
  42908.6728     0.19066E-02 
  42940.9350     0.19083E-02 
  42973.1971     0.19099E-02 
  43005.4593     0.19115E-02 
  43037.7214     0.19131E-02 
  43069.9836     0.19146E-02 
  43102.2458     0.19161E-02 
  43134.5079     0.19175E-02 
  43166.7701     0.19189E-02 
  43199.0322     0.19203E-02 
  43231.2944     0.19216E-02 
  43263.5566     0.19228E-02 
  43295.8187     0.19241E-02 
  43328.0809     0.19253E-02 
  43360.3430     0.19264E-02 
  43392.6052     0.19275E-02 
  43424.8674     0.19286E-02 
  43457.1295     0.19296E-02 
  43489.3917     0.19306E-02 
  43521.6538     0.19315E-02 
  43553.9160     0.19324E-02 
  43586.1782     0.19333E-02 
  43618.4403     0.19341E-02 
  43650.7025     0.19349E-02 
  43682.9646     0.19356E-02 
  43715.2268     0.19363E-02 
  43747.4890     0.19369E-02 
  43779.7511     0.19375E-02 
  43812.0133     0.19381E-02 
  43844.2754     0.19386E-02 
  43876.5376     0.19391E-02 
  43908.7998     0.19395E-02 
  43941.0619     0.19399E-02 
  43973.3241     0.19403E-02 
  44005.5862     0.19406E-02 
  44037.8484     0.19409E-02 
  44070.1106     0.19411E-02 
  44102.3727     0.19413E-02 
  44134.6349     0.19414E-02 
  44166.8970     0.19415E-02 
  44199.1592     0.19416E-02 
  44231.4214     0.19416E-02 
  44263.6835     0.19416E-02 
  44295.9457     0.19415E-02 
  44328.2078     0.19414E-02 
  44360.4700     0.19413E-02 
  44392.7322     0.19411E-02 
  44424.9943     0.19409E-02 
  44457.2565     0.19406E-02 
  44489.5186     0.19403E-02 
  44521.7808     0.19399E-02 
  44554.0430     0.19396E-02 
  44586.3051     0.19391E-02 
  44618.5673     0.19386E-02 
  44650.8294     0.19381E-02 
  44683.0916     0.19376E-02 
  44715.3538     0.19370E-02 
  44747.6159     0.19363E-02 
  44779.8781     0.19357E-02 
  44812.1402     0.19349E-02 
  44844.4024     0.19342E-02 
  44876.6646     0.19334E-02 
  44908.9267     0.19325E-02 
  44941.1889     0.19317E-02 
  44973.4510     0.19307E-02 
  45005.7132     0.19298E-02 
  45037.9754     0.19288E-02 
  45070.2375     0.19277E-02 
  45102.4997     0.19266E-02 
  45134.7618     0.19255E-02 
  45167.0240     0.19244E-02 
  45199.2862     0.19232E-02 
  45231.5483     0.19219E-02 
  45263.8105     0.19206E-02 
  45296.0726     0.19193E-02 
  45328.3348     0.19180E-02 
  45360.5970     0.19166E-02 
  45392.8591     0.19151E-02 
  45425.1213     0.19137E-02 
  45457.3834     0.19121E-02 
  45489.6456     0.19106E-02 
  45521.9078     0.19090E-02 
  45554.1699     0.19074E-02 
  45586.4321     0.19057E-02 
  45618.6942     0.19040E-02 
  45650.9564     0.19023E-02 
  45683.2186     0.19005E-02 
  45715.4807     0.18987E-02 
  45747.7429     0.18968E-02 
  45780.0050     0.18949E-02 
  45812.2672     0.18930E-02 
  45844.5294     0.18910E-02 
  45876.7915     0.18890E-02 
  45909.0537     0.18870E-02 
  45941.3158     0.18849E-02 
  45973.5780     0.18828E-02 
  46005.8402     0.18806E-02 
  46038.1023     0.18785E-02 
  46070.3645     0.18762E-02 
  46102.6266     0.18740E-02 
  46134.8888     0.18717E-02 
  46167.1510     0.18694E-02 
  46199.4131     0.18670E-02 
  46231.6753     0.18646E-02 
  46263.9374     0.18622E-02 
  46296.1996     0.18597E-02 
  46328.4618     0.18572E-02 
  46360.7239     0.18547E-02 
  46392.9861     0.18521E-02 
  46425.2482     0.18495E-02 
  46457.5104     0.18469E-02 
  46489.7726     0.18442E-02 
  46522.0347     0.18415E-02 
  46554.2969     0.18387E-02 
  46586.5590     0.18360E-02 
  46618.8212     0.18332E-02 
  46651.0834     0.18303E-02 
  46683.3455     0.18274E-02 
  46715.6077     0.18245E-02 
  46747.8698     0.18216E-02 
  46780.1320     0.18186E-02 
  46812.3942     0.18156E-02 
  46844.6563     0.18126E-02 
  46876.9185     0.18095E-02 
  46909.1806     0.18064E-02 
  46941.4428     0.18033E-02 
  46973.7050     0.18002E-02 
  47005.9671     0.17970E-02 
  47038.2293     0.17938E-02 
  47070.4914     0.17905E-02 
  47102.7536     0.17872E-02 
  47135.0158     0.17839E-02 
  47167.2779     0.17806E-02 
  47199.5401     0.17772E-02 
  47231.8022     0.17738E-02 
  47264.0644     0.17704E-02 
  47296.3266     0.17669E-02 
  47328.5887     0.17634E-02 
  47360.8509     0.17599E-02 
  47393.1130     0.17564E-02 
  47425.3752     0.17528E-02 
  47457.6374     0.17492E-02 
  47489.8995     0.17456E-02 
  47522.1617     0.17420E-02 
  47554.4238     0.17383E-02 
  47586.6860     0.17346E-02 
  47618.9482     0.17308E-02 
  47651.2103     0.17271E-02 
  47683.4725     0.17233E-02 
  47715.7346     0.17195E-02 
  47747.9968     0.17156E-02 
  47780.2590     0.17118E-02 
  47812.5211     0.17079E-02 
  47844.7833     0.17040E-02 
  47877.0454     0.17000E-02 
  47909.3076     0.16961E-02 
  47941.5698     0.16921E-02 
  47973.8319     0.16881E-02 
  48006.0941     0.16840E-02 
  48038.3562     0.16800E-02 
  48070.6184     0.16759E-02 
  48102.8806     0.16718E-02 
  48135.1427     0.16677E-02 
  48167.4049     0.16635E-02 
  48199.6670     0.16593E-02 
  48231.9292     0.16551E-02 
  48264.1914     0.16509E-02 
  48296.4535     0.16467E-02 
  48328.7157     0.16424E-02 
  48360.9778     0.16381E-02 
  48393.2400     0.16338E-02 
  48425.5022     0.16295E-02 
  48457.7643     0.16251E-02 
  48490.0265     0.16208E-02 
  48522.2886     0.16164E-02 
  48554.5508     0.16120E-02 
  48586.8130     0.16075E-02 
  48619.0751     0.16031E-02 
  48651.3373     0.15986E-02 
  48683.5994     0.15941E-02 
  48715.8616     0.15896E-02 
  48748.1238     0.15851E-02 
  48780.3859     0.15806E-02 
  48812.6481     0.15760E-02 
  48844.9102     0.15714E-02 
  48877.1724     0.15668E-02 
  48909.4346     0.15622E-02 
  48941.6967     0.15576E-02 
  48973.9589     0.15529E-02 
  49006.2210     0.15482E-02 
  49038.4832     0.15436E-02 
  49070.7454     0.15389E-02 
  49103.0075     0.15341E-02 
  49135.2697     0.15294E-02 
  49167.5318     0.15247E-02 
  49199.7940     0.15199E-02 
  49232.0562     0.15151E-02 
  49264.3183     0.15103E-02 
  49296.5805     0.15055E-02 
  49328.8426     0.15007E-02 
  49361.1048     0.14959E-02 
  49393.3670     0.14910E-02 
  49425.6291     0.14861E-02 
  49457.8913     0.14813E-02 
  49490.1534     0.14764E-02 
  49522.4156     0.14715E-02 
  49554.6778     0.14665E-02 
  49586.9399     0.14616E-02 
  49619.2021     0.14567E-02 
  49651.4642     0.14517E-02 
  49683.7264     0.14467E-02 
  49715.9886     0.14417E-02 
  49748.2507     0.14368E-02 
  49780.5129     0.14318E-02 
  49812.7750     0.14267E-02 
  49845.0372     0.14217E-02 
  49877.2994     0.14167E-02 
  49909.5615     0.14116E-02 
  49941.8237     0.14066E-02 
  49974.0858     0.14015E-02 
  50006.3480     0.13964E-02 
  50038.6102     0.13913E-02 
  50070.8723     0.13862E-02 
  50103.1345     0.13811E-02 
  50135.3966     0.13760E-02 
  50167.6588     0.13709E-02 
  50199.9210     0.13658E-02 
  50232.1831     0.13606E-02 
  50264.4453     0.13555E-02 
  50296.7074     0.13503E-02 
  50328.9696     0.13452E-02 
  50361.2318     0.13400E-02 
  50393.4939     0.13348E-02 
  50425.7561     0.13296E-02 
  50458.0182     0.13244E-02 
  50490.2804     0.13192E-02 
  50522.5426     0.13140E-02 
  50554.8047     0.13088E-02 
  50587.0669     0.13036E-02 
  50619.3290     0.12984E-02 
  50651.5912     0.12932E-02 
  50683.8534     0.12879E-02 
  50716.1155     0.12827E-02 
  50748.3777     0.12774E-02 
  50780.6398     0.12722E-02 
  50812.9020     0.12670E-02 
  50845.1642     0.12617E-02 
  50877.4263     0.12564E-02 
  50909.6885     0.12512E-02 
  50941.9506     0.12459E-02 
  50974.2128     0.12406E-02 
  51006.4750     0.12354E-02 
  51038.7371     0.12301E-02 
  51070.9993     0.12248E-02 
  51103.2614     0.12195E-02 
  51135.5236     0.12142E-02 
  51167.7858     0.12090E-02 
  51200.0479     0.12037E-02 
  51232.3101     0.11984E-02 
  51264.5722     0.11931E-02 
  51296.8344     0.11878E-02 
  51329.0966     0.11825E-02 
  51361.3587     0.11772E-02 
  51393.6209     0.11719E-02 
  51425.8830     0.11666E-02 
  51458.1452     0.11613E-02 
  51490.4074     0.11560E-02 
  51522.6695     0.11507E-02 
  51554.9317     0.11454E-02 
  51587.1938     0.11401E-02 
  51619.4560     0.11348E-02 
  51651.7182     0.11295E-02 
  51683.9803     0.11242E-02 
  51716.2425     0.11189E-02 
  51748.5046     0.11136E-02 
  51780.7668     0.11084E-02 
  51813.0290     0.11031E-02 
  51845.2911     0.10978E-02 
  51877.5533     0.10925E-02 
  51909.8154     0.10872E-02 
  51942.0776     0.10819E-02 
  51974.3398     0.10766E-02 
  52006.6019     0.10714E-02 
  52038.8641     0.10661E-02 
  52071.1262     0.10608E-02 
  52103.3884     0.10556E-02 
  52135.6506     0.10503E-02 
  52167.9127     0.10450E-02 
  52200.1749     0.10398E-02 
  52232.4370     0.10345E-02 
  52264.6992     0.10293E-02 
  52296.9614     0.10240E-02 
  52329.2235     0.10188E-02 
  52361.4857     0.10135E-02 
  52393.7478     0.10083E-02 
  52426.0100     0.10031E-02 
  52458.2722     0.99785E-03 
  52490.5343     0.99263E-03 
  52522.7965     0.98741E-03 
  52555.0586     0.98220E-03 
  52587.3208     0.97700E-03 
  52619.5830     0.97180E-03 
  52651.8451     0.96661E-03 
  52684.1073     0.96142E-03 
  52716.3694     0.95624E-03 
  52748.6316     0.95107E-03 
  52780.8938     0.94590E-03 
  52813.1559     0.94074E-03 
  52845.4181     0.93559E-03 
  52877.6802     0.93044E-03 
  52909.9424     0.92530E-03 
  52942.2046     0.92016E-03 
  52974.4667     0.91504E-03 
  53006.7289     0.90992E-03 
  53038.9910     0.90480E-03 
  53071.2532     0.89970E-03 
  53103.5154     0.89460E-03 
  53135.7775     0.88951E-03 
  53168.0397     0.88443E-03 
  53200.3018     0.87936E-03 
  53232.5640     0.87429E-03 
  53264.8262     0.86923E-03 
  53297.0883     0.86419E-03 
  53329.3505     0.85915E-03 
  53361.6126     0.85411E-03 
  53393.8748     0.84909E-03 
  53426.1370     0.84408E-03 
  53458.3991     0.83907E-03 
  53490.6613     0.83408E-03 
  53522.9234     0.82909E-03 
  53555.1856     0.82411E-03 
  53587.4478     0.81915E-03 
  53619.7099     0.81419E-03 
  53651.9721     0.80924E-03 
  53684.2342     0.80430E-03 
  53716.4964     0.79937E-03 
  53748.7586     0.79445E-03 
  53781.0207     0.78955E-03 
  53813.2829     0.78465E-03 
  53845.5450     0.77976E-03 
  53877.8072     0.77488E-03 
  53910.0694     0.77002E-03 
  53942.3315     0.76516E-03 
  53974.5937     0.76032E-03 
  54006.8558     0.75548E-03 
  54039.1180     0.75066E-03 
  54071.3802     0.74584E-03 
  54103.6423     0.74104E-03 
  54135.9045     0.73625E-03 
  54168.1666     0.73147E-03 
  54200.4288     0.72671E-03 
  54232.6910     0.72195E-03 
  54264.9531     0.71721E-03 
  54297.2153     0.71247E-03 
  54329.4774     0.70775E-03 
  54361.7396     0.70304E-03 
  54394.0018     0.69835E-03 
  54426.2639     0.69366E-03 
  54458.5261     0.68899E-03 
  54490.7882     0.68433E-03 
  54523.0504     0.67968E-03 
  54555.3126     0.67504E-03 
  54587.5747     0.67042E-03 
  54619.8369     0.66581E-03 
  54652.0990     0.66121E-03 
  54684.3612     0.65662E-03 
  54716.6234     0.65205E-03 
  54748.8855     0.64749E-03 
  54781.1477     0.64294E-03 
  54813.4098     0.63841E-03 
  54845.6720     0.63389E-03 
  54877.9342     0.62938E-03 
  54910.1963     0.62488E-03 
  54942.4585     0.62040E-03 
  54974.7206     0.61593E-03 
  55006.9828     0.61148E-03 
  55039.2450     0.60703E-03 
  55071.5071     0.60261E-03 
  55103.7693     0.59819E-03 
  55136.0314     0.59379E-03 
  55168.2936     0.58940E-03 
  55200.5558     0.58503E-03 
  55232.8179     0.58067E-03 
  55265.0801     0.57632E-03 
  55297.3422     0.57199E-03 
  55329.6044     0.56767E-03 
  55361.8666     0.56337E-03 
  55394.1287     0.55908E-03 
  55426.3909     0.55480E-03 
  55458.6530     0.55054E-03 
  55490.9152     0.54630E-03 
  55523.1774     0.54206E-03 
  55555.4395     0.53785E-03 
  55587.7017     0.53364E-03 
  55619.9638     0.52945E-03 
  55652.2260     0.52528E-03 
  55684.4882     0.52112E-03 
  55716.7503     0.51697E-03 
  55749.0125     0.51284E-03 
  55781.2746     0.50872E-03 
  55813.5368     0.50462E-03 
  55845.7990     0.50054E-03 
  55878.0611     0.49646E-03 
  55910.3233     0.49241E-03 
  55942.5854     0.48837E-03 
  55974.8476     0.48434E-03 
  56007.1098     0.48033E-03 
  56039.3719     0.47633E-03 
  56071.6341     0.47235E-03 
  56103.8962     0.46838E-03 
  56136.1584     0.46443E-03 
  56168.4206     0.46050E-03 
  56200.6827     0.45658E-03 
  56232.9449     0.45267E-03 
  56265.2070     0.44878E-03 
  56297.4692     0.44491E-03 
  56329.7314     0.44105E-03 
  56361.9935     0.43721E-03 
  56394.2557     0.43338E-03 
  56426.5178     0.42957E-03 
  56458.7800     0.42577E-03 
  56491.0422     0.42199E-03 
  56523.3043     0.41822E-03 
  56555.5665     0.41447E-03 
  56587.8286     0.41074E-03 
  56620.0908     0.40702E-03 
  56652.3530     0.40332E-03 
  56684.6151     0.39963E-03 
  56716.8773     0.39596E-03 
  56749.1394     0.39231E-03 
  56781.4016     0.38867E-03 
  56813.6638     0.38505E-03 
  56845.9259     0.38144E-03 
  56878.1881     0.37785E-03 
  56910.4502     0.37428E-03 
  56942.7124     0.37072E-03 
  56974.9746     0.36718E-03 
  57007.2367     0.36365E-03 
  57039.4989     0.36014E-03 
  57071.7610     0.35665E-03 
  57104.0232     0.35317E-03 
  57136.2854     0.34971E-03 
  57168.5475     0.34627E-03 
  57200.8097     0.34284E-03 
  57233.0718     0.33943E-03 
  57265.3340     0.33603E-03 
  57297.5962     0.33265E-03 
  57329.8583     0.32929E-03 
  57362.1205     0.32594E-03 
  57394.3826     0.32261E-03 
  57426.6448     0.31930E-03 
  57458.9070     0.31601E-03 
  57491.1691     0.31273E-03 
  57523.4313     0.30946E-03 
  57555.6934     0.30622E-03 
  57587.9556     0.30299E-03 
  57620.2178     0.29978E-03 
  57652.4799     0.29658E-03 
  57684.7421     0.29340E-03 
  57717.0042     0.29024E-03 
  57749.2664     0.28710E-03 
  57781.5286     0.28397E-03 
  57813.7907     0.28086E-03 
  57846.0529     0.27776E-03 
  57878.3150     0.27469E-03 
  57910.5772     0.27163E-03 
  57942.8394     0.26859E-03 
  57975.1015     0.26556E-03 
  58007.3637     0.26255E-03 
  58039.6258     0.25956E-03 
  58071.8880     0.25659E-03 
  58104.1502     0.25363E-03 
  58136.4123     0.25069E-03 
  58168.6745     0.24777E-03 
  58200.9366     0.24487E-03 
  58233.1988     0.24198E-03 
  58265.4610     0.23911E-03 
  58297.7231     0.23626E-03 
  58329.9853     0.23342E-03 
  58362.2474     0.23061E-03 
  58394.5096     0.22781E-03 
  58426.7718     0.22503E-03 
  58459.0339     0.22226E-03 
  58491.2961     0.21952E-03 
  58523.5582     0.21679E-03 
  58555.8204     0.21408E-03 
  58588.0826     0.21139E-03 
  58620.3447     0.20871E-03 
  58652.6069     0.20606E-03 
  58684.8690     0.20342E-03 
  58717.1312     0.20080E-03 
  58749.3934     0.19820E-03 
  58781.6555     0.19562E-03 
  58813.9177     0.19305E-03 
  58846.1798     0.19050E-03 
  58878.4420     0.18798E-03 
  58910.7042     0.18547E-03 
  58942.9663     0.18297E-03 
  58975.2285     0.18050E-03 
  59007.4906     0.17805E-03 
  59039.7528     0.17561E-03 
  59072.0150     0.17320E-03 
  59104.2771     0.17080E-03 
  59136.5393     0.16842E-03 
  59168.8014     0.16606E-03 
  59201.0636     0.16372E-03 
  59233.3258     0.16140E-03 
  59265.5879     0.15909E-03 
  59297.8501     0.15681E-03 
  59330.1122     0.15455E-03 
  59362.3744     0.15230E-03 
  59394.6366     0.15008E-03 
  59426.8987     0.14787E-03 
  59459.1609     0.14569E-03 
  59491.4230     0.14352E-03 
  59523.6852     0.14137E-03 
  59555.9474     0.13925E-03 
  59588.2095     0.13714E-03 
  59620.4717     0.13505E-03 
  59652.7338     0.13299E-03 
  59684.9960     0.13094E-03 
  59717.2582     0.12891E-03 
  59749.5203     0.12691E-03 
  59781.7825     0.12492E-03 
  59814.0446     0.12296E-03 
  59846.3068     0.12102E-03 
  59878.5690     0.11909E-03 
  59910.8311     0.11719E-03 
  59943.0933     0.11531E-03 
  59975.3554     0.11345E-03 
  60007.6176     0.11161E-03 
  60039.8798     0.10980E-03 
  60072.1419     0.10800E-03 
  60104.4041     0.10623E-03 
  60136.6662     0.10448E-03 
  60168.9284     0.10275E-03 
  60201.1906     0.10104E-03 
  60233.4527     0.99353E-04 
  60265.7149     0.97690E-04 
  60297.9770     0.96049E-04 
  60330.2392     0.94430E-04 
  60362.5014     0.92834E-04 
  60394.7635     0.91261E-04 
  60427.0257     0.89711E-04 
  60459.2878     0.88184E-04 
  60491.5500     0.86680E-04 
  60523.8122     0.85199E-04 
  60556.0743     0.83742E-04 
  60588.3365     0.82309E-04 
  60620.5986     0.80900E-04 
  60652.8608     0.79515E-04 
  60685.1230     0.78154E-04 
  60717.3851     0.76817E-04 
  60749.6473     0.75505E-04 
  60781.9094     0.74217E-04 
  60814.1716     0.72955E-04 
  60846.4338     0.71718E-04 
  60878.6959     0.70505E-04 
  60910.9581     0.69319E-04 
  60943.2202     0.68158E-04 
  60975.4824     0.67023E-04 
  61007.7446     0.65914E-04 
  61040.0067     0.64831E-04 
  61072.2689     0.63774E-04 
  61104.5310     0.62745E-04 
  61136.7932     0.61742E-04 
  61169.0554     0.60766E-04 
  61201.3175     0.59817E-04 
  61233.5797     0.58896E-04 
  61265.8418     0.58003E-04 
  61298.1040     0.57138E-04 
  61330.3662     0.56301E-04 
  61362.6283     0.55492E-04 
  61394.8905     0.54713E-04 
  61427.1526     0.53962E-04 
  61459.4148     0.53240E-04 
  61491.6770     0.52548E-04 
  61523.9391     0.51885E-04 
  61556.2013     0.51253E-04 
  61588.4634     0.50650E-04 
  61620.7256     0.50078E-04 
  61652.9878     0.49537E-04 
  61685.2499     0.49027E-04 
  61717.5121     0.48548E-04 
  61749.7742     0.48101E-04 
  61782.0364     0.47686E-04 
  61814.2986     0.47303E-04 
  61846.5607     0.46953E-04 
  61878.8229     0.46635E-04 
  61911.0850     0.46350E-04 
  61943.3472     0.46099E-04 
  61975.6094     0.45882E-04 
  62007.8715     0.45699E-04 
  62040.1337     0.45550E-04 
  62072.3958     0.45436E-04 
  62104.6580     0.45357E-04 
  62136.9202     0.45313E-04 
  62169.1823     0.45305E-04 
  62201.4445     0.45333E-04 
  62233.7066     0.45398E-04 
  62265.9688     0.45499E-04 
  62298.2310     0.45638E-04 
  62330.4931     0.45814E-04 
  62362.7553     0.46028E-04 
  62395.0174     0.46281E-04 
  62427.2796     0.46572E-04 
  62459.5418     0.46902E-04 
  62491.8039     0.47272E-04 
  62524.0661     0.47682E-04 
  62556.3282     0.48132E-04 
  62588.5904     0.48623E-04 
  62620.8526     0.49155E-04 
  62653.1147     0.49728E-04 
  62685.3769     0.50344E-04 
  62717.6390     0.51002E-04 
  62749.9012     0.51703E-04 
  62782.1634     0.52447E-04 
  62814.4255     0.53235E-04 
  62846.6877     0.54067E-04 
  62878.9498     0.54944E-04 
  62911.2120     0.55866E-04 
  62943.4742     0.56834E-04 
  62975.7363     0.57848E-04 
  63007.9985     0.58909E-04 
  63040.2606     0.60016E-04 
  63072.5228     0.61172E-04 
  63104.7850     0.62375E-04 
  63137.0471     0.63627E-04 
  63169.3093     0.64929E-04 
  63201.5714     0.66280E-04 
  63233.8336     0.67681E-04 
  63266.0958     0.69133E-04 
  63298.3579     0.70637E-04 
  63330.6201     0.72192E-04 
  63362.8822     0.73799E-04 
  63395.1444     0.75460E-04 
  63427.4066     0.77174E-04 
  63459.6687     0.78943E-04 
  63491.9309     0.80766E-04 
  63524.1930     0.82644E-04 
  63556.4552     0.84579E-04 
  63588.7174     0.86569E-04 
  63620.9795     0.88617E-04 
  63653.2417     0.90723E-04 
  63685.5038     0.92887E-04 
  63717.7660     0.95110E-04 
  63750.0282     0.97393E-04 
  63782.2903     0.99736E-04 
  63814.5525     0.10214E-03 
  63846.8146     0.10461E-03 
  63879.0768     0.10713E-03 
  63911.3390     0.10972E-03 
  63943.6011     0.11238E-03 
  63975.8633     0.11510E-03 
  64008.1254     0.11788E-03 
  64040.3876     0.12073E-03 
  64072.6498     0.12365E-03 
  64104.9119     0.12663E-03 
  64137.1741     0.12968E-03 
  64169.4362     0.13280E-03 
  64201.6984     0.13599E-03 
  64233.9606     0.13925E-03 
  64266.2227     0.14258E-03 
  64298.4849     0.14598E-03 
  64330.7470     0.14945E-03 
  64363.0092     0.15300E-03 
  64395.2714     0.15662E-03 
  64427.5335     0.16032E-03 
  64459.7957     0.16409E-03 
  64492.0578     0.16793E-03 
  64524.3200     0.17186E-03 
  64556.5822     0.17586E-03 
  64588.8443     0.17994E-03 
  64621.1065     0.18410E-03 
  64653.3686     0.18834E-03 
  64685.6308     0.19267E-03 
  64717.8930     0.19707E-03 
  64750.1551     0.20156E-03 
  64782.4173     0.20613E-03 
  64814.6794     0.21079E-03 
  64846.9416     0.21553E-03 
  64879.2038     0.22036E-03 
  64911.4659     0.22527E-03 
  64943.7281     0.23028E-03 
  64975.9902     0.23537E-03 
  65008.2524     0.24055E-03 
  65040.5146     0.24583E-03 
  65072.7767     0.25119E-03 
  65105.0389     0.25665E-03 
  65137.3010     0.26221E-03 
  65169.5632     0.26786E-03 
  65201.8254     0.27360E-03 
  65234.0875     0.27944E-03 
  65266.3497     0.28538E-03 
  65298.6118     0.29142E-03 
  65330.8740     0.29756E-03 
  65363.1362     0.30380E-03 
  65395.3983     0.31014E-03 
  65427.6605     0.31659E-03 
  65459.9226     0.32314E-03 
  65492.1848     0.32979E-03 
  65524.4470     0.33655E-03 
  65556.7091     0.34341E-03 
  65588.9713     0.35039E-03 
  65621.2334     0.35747E-03 
  65653.4956     0.36467E-03 
  65685.7578     0.37197E-03 
  65718.0199     0.37939E-03 
  65750.2821     0.38692E-03 
  65782.5442     0.39457E-03 
  65814.8064     0.40233E-03 
  65847.0686     0.41021E-03 
  65879.3307     0.41821E-03 
  65911.5929     0.42633E-03 
  65943.8550     0.43456E-03 
  65976.1172     0.44292E-03 
  66008.3794     0.45140E-03 
  66040.6415     0.46001E-03 
  66072.9037     0.46874E-03 
  66105.1658     0.47760E-03 
  66137.4280     0.48658E-03 
  66169.6902     0.49569E-03 
  66201.9523     0.50493E-03 
  66234.2145     0.51431E-03 
  66266.4766     0.52381E-03 
  66298.7388     0.53345E-03 
  66331.0010     0.54323E-03 
  66363.2631     0.55314E-03 
  66395.5253     0.56318E-03 
  66427.7874     0.57337E-03 
  66460.0496     0.58369E-03 
  66492.3118     0.59416E-03 
  66524.5739     0.60477E-03 
  66556.8361     0.61552E-03 
  66589.0982     0.62641E-03 
  66621.3604     0.63745E-03 
  66653.6226     0.64864E-03 
  66685.8847     0.65998E-03 
  66718.1469     0.67147E-03 
  66750.4090     0.68311E-03 
  66782.6712     0.69490E-03 
  66814.9334     0.70685E-03 
  66847.1955     0.71895E-03 
  66879.4577     0.73120E-03 
  66911.7198     0.74362E-03 
  66943.9820     0.75619E-03 
  66976.2442     0.76893E-03 
  67008.5063     0.78182E-03 
  67040.7685     0.79488E-03 
  67073.0306     0.80811E-03 
  67105.2928     0.82150E-03 
  67137.5550     0.83506E-03 
  67169.8171     0.84878E-03 
  67202.0793     0.86268E-03 
  67234.3414     0.87675E-03 
  67266.6036     0.89099E-03 
  67298.8658     0.90540E-03 
  67331.1279     0.91999E-03 
  67363.3901     0.93476E-03 
  67395.6522     0.94971E-03 
  67427.9144     0.96484E-03 
  67460.1766     0.98014E-03 
  67492.4387     0.99563E-03 
  67524.7009     0.10113E-02 
  67556.9630     0.10272E-02 
  67589.2252     0.10432E-02 
  67621.4874     0.10595E-02 
  67653.7495     0.10759E-02 
  67686.0117     0.10925E-02 
  67718.2738     0.11093E-02 
  67750.5360     0.11263E-02 
  67782.7982     0.11435E-02 
  67815.0603     0.11609E-02 
  67847.3225     0.11785E-02 
  67879.5846     0.11963E-02 
  67911.8468     0.12143E-02 
  67944.1090     0.12325E-02 
  67976.3711     0.12509E-02 
  68008.6333     0.12695E-02 
  68040.8954     0.12883E-02 
  68073.1576     0.13074E-02 
  68105.4198     0.13266E-02 
  68137.6819     0.13460E-02 
  68169.9441     0.13657E-02 
  68202.2062     0.13856E-02 
  68234.4684     0.14057E-02 
  68266.7306     0.14260E-02 
  68298.9927     0.14465E-02 
  68331.2549     0.14673E-02 
  68363.5170     0.14882E-02 
  68395.7792     0.15094E-02 
  68428.0414     0.15309E-02 
  68460.3035     0.15525E-02 
  68492.5657     0.15744E-02 
  68524.8278     0.15965E-02 
  68557.0900     0.16188E-02 
  68589.3522     0.16414E-02 
  68621.6143     0.16642E-02 
  68653.8765     0.16872E-02 
  68686.1386     0.17105E-02 
  68718.4008     0.17340E-02 
  68750.6630     0.17578E-02 
  68782.9251     0.17818E-02 
  68815.1873     0.18060E-02 
  68847.4494     0.18305E-02 
  68879.7116     0.18552E-02 
  68911.9738     0.18802E-02 
  68944.2359     0.19054E-02 
  68976.4981     0.19309E-02 
  69008.7602     0.19566E-02 
  69041.0224     0.19825E-02 
  69073.2846     0.20088E-02 
  69105.5467     0.20353E-02 
  69137.8089     0.20620E-02 
  69170.0710     0.20890E-02 
  69202.3332     0.21162E-02 
  69234.5954     0.21438E-02 
  69266.8575     0.21715E-02 
  69299.1197     0.21996E-02 
  69331.3818     0.22279E-02 
  69363.6440     0.22565E-02 
  69395.9062     0.22853E-02 
  69428.1683     0.23144E-02 
  69460.4305     0.23438E-02 
  69492.6926     0.23735E-02 
  69524.9548     0.24034E-02 
  69557.2170     0.24336E-02 
  69589.4791     0.24641E-02 
  69621.7413     0.24948E-02 
  69654.0034     0.25259E-02 
  69686.2656     0.25572E-02 
  69718.5278     0.25888E-02 
  69750.7899     0.26207E-02 
  69783.0521     0.26528E-02 
  69815.3142     0.26853E-02 
  69847.5764     0.27180E-02 
  69879.8386     0.27511E-02 
  69912.1007     0.27844E-02 
  69944.3629     0.28180E-02 
  69976.6250     0.28519E-02 
  70008.8872     0.28860E-02 
  70041.1494     0.29205E-02 
  70073.4115     0.29553E-02 
  70105.6737     0.29904E-02 
  70137.9358     0.30257E-02 
  70170.1980     0.30614E-02 
  70202.4602     0.30974E-02 
  70234.7223     0.31336E-02 
  70266.9845     0.31702E-02 
  70299.2466     0.32071E-02 
  70331.5088     0.32443E-02 
  70363.7710     0.32817E-02 
  70396.0331     0.33195E-02 
  70428.2953     0.33576E-02 
  70460.5574     0.33960E-02 
  70492.8196     0.34347E-02 
  70525.0818     0.34738E-02 
  70557.3439     0.35131E-02 
  70589.6061     0.35527E-02 
  70621.8682     0.35927E-02 
  70654.1304     0.36330E-02 
  70686.3926     0.36736E-02 
  70718.6547     0.37145E-02 
  70750.9169     0.37557E-02 
  70783.1790     0.37972E-02 
  70815.4412     0.38391E-02 
  70847.7034     0.38813E-02 
  70879.9655     0.39238E-02 
  70912.2277     0.39666E-02 
  70944.4898     0.40097E-02 
  70976.7520     0.40532E-02 
  71009.0142     0.40970E-02 
  71041.2763     0.41411E-02 
  71073.5385     0.41855E-02 
  71105.8006     0.42303E-02 
  71138.0628     0.42754E-02 
  71170.3250     0.43208E-02 
  71202.5871     0.43665E-02 
  71234.8493     0.44126E-02 
  71267.1114     0.44590E-02 
  71299.3736     0.45058E-02 
  71331.6358     0.45528E-02 
  71363.8979     0.46002E-02 
  71396.1601     0.46479E-02 
  71428.4222     0.46960E-02 
  71460.6844     0.47444E-02 
  71492.9466     0.47931E-02 
  71525.2087     0.48422E-02 
  71557.4709     0.48916E-02 
  71589.7330     0.49413E-02 
  71621.9952     0.49913E-02 
  71654.2574     0.50417E-02 
  71686.5195     0.50925E-02 
  71718.7817     0.51435E-02 
  71751.0438     0.51949E-02 
  71783.3060     0.52467E-02 
  71815.5682     0.52987E-02 
  71847.8303     0.53511E-02 
  71880.0925     0.54039E-02 
  71912.3546     0.54570E-02 
  71944.6168     0.55104E-02 
  71976.8790     0.55642E-02 
  72009.1411     0.56183E-02 
  72041.4033     0.56727E-02 
  72073.6654     0.57275E-02 
  72105.9276     0.57826E-02 
  72138.1898     0.58380E-02 
  72170.4519     0.58938E-02 
  72202.7141     0.59499E-02 
  72234.9762     0.60064E-02 
  72267.2384     0.60632E-02 
  72299.5006     0.61203E-02 
  72331.7627     0.61778E-02 
  72364.0249     0.62356E-02 
  72396.2870     0.62937E-02 
  72428.5492     0.63522E-02 
  72460.8114     0.64111E-02 
  72493.0735     0.64702E-02 
  72525.3357     0.65297E-02 
  72557.5978     0.65895E-02 
  72589.8600     0.66497E-02 
