  32262.1600     0.28501E-03 
  32294.4222     0.28697E-03 
  32326.6843     0.28895E-03 
  32358.9465     0.29093E-03 
  32391.2086     0.29292E-03 
  32423.4708     0.29492E-03 
  32455.7330     0.29693E-03 
  32487.9951     0.29895E-03 
  32520.2573     0.30097E-03 
  32552.5194     0.30300E-03 
  32584.7816     0.30504E-03 
  32617.0438     0.30709E-03 
  32649.3059     0.30915E-03 
  32681.5681     0.31122E-03 
  32713.8302     0.31329E-03 
  32746.0924     0.31537E-03 
  32778.3546     0.31746E-03 
  32810.6167     0.31956E-03 
  32842.8789     0.32167E-03 
  32875.1410     0.32379E-03 
  32907.4032     0.32591E-03 
  32939.6654     0.32804E-03 
  32971.9275     0.33018E-03 
  33004.1897     0.33233E-03 
  33036.4518     0.33448E-03 
  33068.7140     0.33665E-03 
  33100.9762     0.33882E-03 
  33133.2383     0.34100E-03 
  33165.5005     0.34318E-03 
  33197.7626     0.34538E-03 
  33230.0248     0.34758E-03 
  33262.2870     0.34979E-03 
  33294.5491     0.35201E-03 
  33326.8113     0.35424E-03 
  33359.0734     0.35648E-03 
  33391.3356     0.35872E-03 
  33423.5978     0.36097E-03 
  33455.8599     0.36323E-03 
  33488.1221     0.36549E-03 
  33520.3842     0.36777E-03 
  33552.6464     0.37005E-03 
  33584.9086     0.37234E-03 
  33617.1707     0.37464E-03 
  33649.4329     0.37694E-03 
  33681.6950     0.37925E-03 
  33713.9572     0.38157E-03 
  33746.2194     0.38390E-03 
  33778.4815     0.38623E-03 
  33810.7437     0.38858E-03 
  33843.0058     0.39093E-03 
  33875.2680     0.39328E-03 
  33907.5302     0.39565E-03 
  33939.7923     0.39802E-03 
  33972.0545     0.40040E-03 
  34004.3166     0.40279E-03 
  34036.5788     0.40518E-03 
  34068.8410     0.40758E-03 
  34101.1031     0.40999E-03 
  34133.3653     0.41241E-03 
  34165.6274     0.41483E-03 
  34197.8896     0.41726E-03 
  34230.1518     0.41970E-03 
  34262.4139     0.42214E-03 
  34294.6761     0.42459E-03 
  34326.9382     0.42705E-03 
  34359.2004     0.42952E-03 
  34391.4626     0.43199E-03 
  34423.7247     0.43447E-03 
  34455.9869     0.43695E-03 
  34488.2490     0.43945E-03 
  34520.5112     0.44195E-03 
  34552.7734     0.44445E-03 
  34585.0355     0.44697E-03 
  34617.2977     0.44949E-03 
  34649.5598     0.45201E-03 
  34681.8220     0.45454E-03 
  34714.0842     0.45708E-03 
  34746.3463     0.45963E-03 
  34778.6085     0.46218E-03 
  34810.8706     0.46474E-03 
  34843.1328     0.46731E-03 
  34875.3950     0.46988E-03 
  34907.6571     0.47245E-03 
  34939.9193     0.47504E-03 
  34972.1814     0.47763E-03 
  35004.4436     0.48022E-03 
  35036.7058     0.48283E-03 
  35068.9679     0.48543E-03 
  35101.2301     0.48805E-03 
  35133.4922     0.49067E-03 
  35165.7544     0.49330E-03 
  35198.0166     0.49593E-03 
  35230.2787     0.49857E-03 
  35262.5409     0.50121E-03 
  35294.8030     0.50386E-03 
  35327.0652     0.50651E-03 
  35359.3274     0.50917E-03 
  35391.5895     0.51184E-03 
  35423.8517     0.51451E-03 
  35456.1138     0.51719E-03 
  35488.3760     0.51987E-03 
  35520.6382     0.52256E-03 
  35552.9003     0.52525E-03 
  35585.1625     0.52795E-03 
  35617.4246     0.53066E-03 
  35649.6868     0.53336E-03 
  35681.9490     0.53608E-03 
  35714.2111     0.53880E-03 
  35746.4733     0.54152E-03 
  35778.7354     0.54425E-03 
  35810.9976     0.54698E-03 
  35843.2598     0.54972E-03 
  35875.5219     0.55247E-03 
  35907.7841     0.55522E-03 
  35940.0462     0.55797E-03 
  35972.3084     0.56073E-03 
  36004.5706     0.56349E-03 
  36036.8327     0.56625E-03 
  36069.0949     0.56903E-03 
  36101.3570     0.57180E-03 
  36133.6192     0.57458E-03 
  36165.8814     0.57736E-03 
  36198.1435     0.58015E-03 
  36230.4057     0.58294E-03 
  36262.6678     0.58574E-03 
  36294.9300     0.58854E-03 
  36327.1922     0.59134E-03 
  36359.4543     0.59415E-03 
  36391.7165     0.59696E-03 
  36423.9786     0.59978E-03 
  36456.2408     0.60260E-03 
  36488.5030     0.60542E-03 
  36520.7651     0.60825E-03 
  36553.0273     0.61108E-03 
  36585.2894     0.61391E-03 
  36617.5516     0.61675E-03 
  36649.8138     0.61959E-03 
  36682.0759     0.62243E-03 
  36714.3381     0.62528E-03 
  36746.6002     0.62813E-03 
  36778.8624     0.63098E-03 
  36811.1246     0.63384E-03 
  36843.3867     0.63670E-03 
  36875.6489     0.63956E-03 
  36907.9110     0.64242E-03 
  36940.1732     0.64529E-03 
  36972.4354     0.64816E-03 
  37004.6975     0.65103E-03 
  37036.9597     0.65391E-03 
  37069.2218     0.65678E-03 
  37101.4840     0.65966E-03 
  37133.7462     0.66254E-03 
  37166.0083     0.66543E-03 
  37198.2705     0.66831E-03 
  37230.5326     0.67120E-03 
  37262.7948     0.67409E-03 
  37295.0570     0.67698E-03 
  37327.3191     0.67988E-03 
  37359.5813     0.68277E-03 
  37391.8434     0.68567E-03 
  37424.1056     0.68857E-03 
  37456.3678     0.69147E-03 
  37488.6299     0.69437E-03 
  37520.8921     0.69728E-03 
  37553.1542     0.70018E-03 
  37585.4164     0.70309E-03 
  37617.6786     0.70599E-03 
  37649.9407     0.70890E-03 
  37682.2029     0.71181E-03 
  37714.4650     0.71472E-03 
  37746.7272     0.71763E-03 
  37778.9894     0.72055E-03 
  37811.2515     0.72346E-03 
  37843.5137     0.72637E-03 
  37875.7758     0.72929E-03 
  37908.0380     0.73220E-03 
  37940.3002     0.73512E-03 
  37972.5623     0.73803E-03 
  38004.8245     0.74095E-03 
  38037.0866     0.74386E-03 
  38069.3488     0.74678E-03 
  38101.6110     0.74970E-03 
  38133.8731     0.75261E-03 
  38166.1353     0.75553E-03 
  38198.3974     0.75844E-03 
  38230.6596     0.76136E-03 
  38262.9218     0.76427E-03 
  38295.1839     0.76719E-03 
  38327.4461     0.77010E-03 
  38359.7082     0.77302E-03 
  38391.9704     0.77593E-03 
  38424.2326     0.77884E-03 
  38456.4947     0.78175E-03 
  38488.7569     0.78466E-03 
  38521.0190     0.78757E-03 
  38553.2812     0.79048E-03 
  38585.5434     0.79339E-03 
  38617.8055     0.79629E-03 
  38650.0677     0.79920E-03 
  38682.3298     0.80210E-03 
  38714.5920     0.80500E-03 
  38746.8542     0.80790E-03 
  38779.1163     0.81080E-03 
  38811.3785     0.81370E-03 
  38843.6406     0.81659E-03 
  38875.9028     0.81948E-03 
  38908.1650     0.82237E-03 
  38940.4271     0.82526E-03 
  38972.6893     0.82815E-03 
  39004.9514     0.83103E-03 
  39037.2136     0.83392E-03 
  39069.4758     0.83680E-03 
  39101.7379     0.83967E-03 
  39134.0001     0.84255E-03 
  39166.2622     0.84542E-03 
  39198.5244     0.84829E-03 
  39230.7866     0.85116E-03 
  39263.0487     0.85402E-03 
  39295.3109     0.85688E-03 
  39327.5730     0.85974E-03 
  39359.8352     0.86259E-03 
  39392.0974     0.86544E-03 
  39424.3595     0.86829E-03 
  39456.6217     0.87113E-03 
  39488.8838     0.87397E-03 
  39521.1460     0.87681E-03 
  39553.4082     0.87965E-03 
  39585.6703     0.88247E-03 
  39617.9325     0.88530E-03 
  39650.1946     0.88812E-03 
  39682.4568     0.89094E-03 
  39714.7190     0.89375E-03 
  39746.9811     0.89656E-03 
  39779.2433     0.89937E-03 
  39811.5054     0.90217E-03 
  39843.7676     0.90497E-03 
  39876.0298     0.90776E-03 
  39908.2919     0.91055E-03 
  39940.5541     0.91333E-03 
  39972.8162     0.91611E-03 
  40005.0784     0.91888E-03 
  40037.3406     0.92165E-03 
  40069.6027     0.92441E-03 
  40101.8649     0.92717E-03 
  40134.1270     0.92992E-03 
  40166.3892     0.93267E-03 
  40198.6514     0.93541E-03 
  40230.9135     0.93815E-03 
  40263.1757     0.94088E-03 
  40295.4378     0.94361E-03 
  40327.7000     0.94633E-03 
  40359.9622     0.94904E-03 
  40392.2243     0.95175E-03 
  40424.4865     0.95445E-03 
  40456.7486     0.95715E-03 
  40489.0108     0.95984E-03 
  40521.2730     0.96252E-03 
  40553.5351     0.96520E-03 
  40585.7973     0.96787E-03 
  40618.0594     0.97054E-03 
  40650.3216     0.97319E-03 
  40682.5838     0.97584E-03 
  40714.8459     0.97849E-03 
  40747.1081     0.98113E-03 
  40779.3702     0.98376E-03 
  40811.6324     0.98638E-03 
  40843.8946     0.98900E-03 
  40876.1567     0.99161E-03 
  40908.4189     0.99421E-03 
  40940.6810     0.99681E-03 
  40972.9432     0.99940E-03 
  41005.2054     0.10020E-02 
  41037.4675     0.10045E-02 
  41069.7297     0.10071E-02 
  41101.9918     0.10097E-02 
  41134.2540     0.10122E-02 
  41166.5162     0.10148E-02 
  41198.7783     0.10173E-02 
  41231.0405     0.10198E-02 
  41263.3026     0.10223E-02 
  41295.5648     0.10249E-02 
  41327.8270     0.10274E-02 
  41360.0891     0.10298E-02 
  41392.3513     0.10323E-02 
  41424.6134     0.10348E-02 
  41456.8756     0.10373E-02 
  41489.1378     0.10397E-02 
  41521.3999     0.10422E-02 
  41553.6621     0.10446E-02 
  41585.9242     0.10471E-02 
  41618.1864     0.10495E-02 
  41650.4486     0.10519E-02 
  41682.7107     0.10543E-02 
  41714.9729     0.10567E-02 
  41747.2350     0.10591E-02 
  41779.4972     0.10615E-02 
  41811.7594     0.10638E-02 
  41844.0215     0.10662E-02 
  41876.2837     0.10685E-02 
  41908.5458     0.10709E-02 
  41940.8080     0.10732E-02 
  41973.0702     0.10755E-02 
  42005.3323     0.10778E-02 
  42037.5945     0.10801E-02 
  42069.8566     0.10824E-02 
  42102.1188     0.10847E-02 
  42134.3810     0.10870E-02 
  42166.6431     0.10892E-02 
  42198.9053     0.10915E-02 
  42231.1674     0.10937E-02 
  42263.4296     0.10959E-02 
  42295.6918     0.10981E-02 
  42327.9539     0.11003E-02 
  42360.2161     0.11025E-02 
  42392.4782     0.11047E-02 
  42424.7404     0.11069E-02 
  42457.0026     0.11091E-02 
  42489.2647     0.11112E-02 
  42521.5269     0.11134E-02 
  42553.7890     0.11155E-02 
  42586.0512     0.11176E-02 
  42618.3134     0.11197E-02 
  42650.5755     0.11218E-02 
  42682.8377     0.11239E-02 
  42715.0998     0.11260E-02 
  42747.3620     0.11280E-02 
  42779.6242     0.11301E-02 
  42811.8863     0.11321E-02 
  42844.1485     0.11341E-02 
  42876.4106     0.11361E-02 
  42908.6728     0.11381E-02 
  42940.9350     0.11401E-02 
  42973.1971     0.11421E-02 
  43005.4593     0.11441E-02 
  43037.7214     0.11460E-02 
  43069.9836     0.11480E-02 
  43102.2458     0.11499E-02 
  43134.5079     0.11518E-02 
  43166.7701     0.11537E-02 
  43199.0322     0.11556E-02 
  43231.2944     0.11575E-02 
  43263.5566     0.11593E-02 
  43295.8187     0.11612E-02 
  43328.0809     0.11630E-02 
  43360.3430     0.11648E-02 
  43392.6052     0.11667E-02 
  43424.8674     0.11685E-02 
  43457.1295     0.11702E-02 
  43489.3917     0.11720E-02 
  43521.6538     0.11738E-02 
  43553.9160     0.11755E-02 
  43586.1782     0.11773E-02 
  43618.4403     0.11790E-02 
  43650.7025     0.11807E-02 
  43682.9646     0.11824E-02 
  43715.2268     0.11841E-02 
  43747.4890     0.11857E-02 
  43779.7511     0.11874E-02 
  43812.0133     0.11890E-02 
  43844.2754     0.11907E-02 
  43876.5376     0.11923E-02 
  43908.7998     0.11939E-02 
  43941.0619     0.11955E-02 
  43973.3241     0.11970E-02 
  44005.5862     0.11986E-02 
  44037.8484     0.12001E-02 
  44070.1106     0.12017E-02 
  44102.3727     0.12032E-02 
  44134.6349     0.12047E-02 
  44166.8970     0.12062E-02 
  44199.1592     0.12076E-02 
  44231.4214     0.12091E-02 
  44263.6835     0.12105E-02 
  44295.9457     0.12120E-02 
  44328.2078     0.12134E-02 
  44360.4700     0.12148E-02 
  44392.7322     0.12161E-02 
  44424.9943     0.12175E-02 
  44457.2565     0.12189E-02 
  44489.5186     0.12202E-02 
  44521.7808     0.12215E-02 
  44554.0430     0.12229E-02 
  44586.3051     0.12241E-02 
  44618.5673     0.12254E-02 
  44650.8294     0.12267E-02 
  44683.0916     0.12279E-02 
  44715.3538     0.12292E-02 
  44747.6159     0.12304E-02 
  44779.8781     0.12316E-02 
  44812.1402     0.12328E-02 
  44844.4024     0.12340E-02 
  44876.6646     0.12351E-02 
  44908.9267     0.12363E-02 
  44941.1889     0.12374E-02 
  44973.4510     0.12385E-02 
  45005.7132     0.12396E-02 
  45037.9754     0.12407E-02 
  45070.2375     0.12418E-02 
  45102.4997     0.12428E-02 
  45134.7618     0.12439E-02 
  45167.0240     0.12449E-02 
  45199.2862     0.12459E-02 
  45231.5483     0.12469E-02 
  45263.8105     0.12479E-02 
  45296.0726     0.12488E-02 
  45328.3348     0.12498E-02 
  45360.5970     0.12507E-02 
  45392.8591     0.12516E-02 
  45425.1213     0.12525E-02 
  45457.3834     0.12534E-02 
  45489.6456     0.12542E-02 
  45521.9078     0.12551E-02 
  45554.1699     0.12559E-02 
  45586.4321     0.12567E-02 
  45618.6942     0.12575E-02 
  45650.9564     0.12583E-02 
  45683.2186     0.12591E-02 
  45715.4807     0.12598E-02 
  45747.7429     0.12606E-02 
  45780.0050     0.12613E-02 
  45812.2672     0.12620E-02 
  45844.5294     0.12627E-02 
  45876.7915     0.12633E-02 
  45909.0537     0.12640E-02 
  45941.3158     0.12646E-02 
  45973.5780     0.12653E-02 
  46005.8402     0.12659E-02 
  46038.1023     0.12665E-02 
  46070.3645     0.12670E-02 
  46102.6266     0.12676E-02 
  46134.8888     0.12681E-02 
  46167.1510     0.12687E-02 
  46199.4131     0.12692E-02 
  46231.6753     0.12696E-02 
  46263.9374     0.12701E-02 
  46296.1996     0.12706E-02 
  46328.4618     0.12710E-02 
  46360.7239     0.12715E-02 
  46392.9861     0.12719E-02 
  46425.2482     0.12723E-02 
  46457.5104     0.12726E-02 
  46489.7726     0.12730E-02 
  46522.0347     0.12733E-02 
  46554.2969     0.12737E-02 
  46586.5590     0.12740E-02 
  46618.8212     0.12743E-02 
  46651.0834     0.12745E-02 
  46683.3455     0.12748E-02 
  46715.6077     0.12750E-02 
  46747.8698     0.12753E-02 
  46780.1320     0.12755E-02 
  46812.3942     0.12757E-02 
  46844.6563     0.12759E-02 
  46876.9185     0.12760E-02 
  46909.1806     0.12762E-02 
  46941.4428     0.12763E-02 
  46973.7050     0.12764E-02 
  47005.9671     0.12765E-02 
  47038.2293     0.12766E-02 
  47070.4914     0.12766E-02 
  47102.7536     0.12767E-02 
  47135.0158     0.12767E-02 
  47167.2779     0.12767E-02 
  47199.5401     0.12767E-02 
  47231.8022     0.12767E-02 
  47264.0644     0.12767E-02 
  47296.3266     0.12766E-02 
  47328.5887     0.12765E-02 
  47360.8509     0.12764E-02 
  47393.1130     0.12763E-02 
  47425.3752     0.12762E-02 
  47457.6374     0.12761E-02 
  47489.8995     0.12759E-02 
  47522.1617     0.12758E-02 
  47554.4238     0.12756E-02 
  47586.6860     0.12754E-02 
  47618.9482     0.12751E-02 
  47651.2103     0.12749E-02 
  47683.4725     0.12747E-02 
  47715.7346     0.12744E-02 
  47747.9968     0.12741E-02 
  47780.2590     0.12738E-02 
  47812.5211     0.12735E-02 
  47844.7833     0.12731E-02 
  47877.0454     0.12728E-02 
  47909.3076     0.12724E-02 
  47941.5698     0.12720E-02 
  47973.8319     0.12716E-02 
  48006.0941     0.12712E-02 
  48038.3562     0.12708E-02 
  48070.6184     0.12703E-02 
  48102.8806     0.12699E-02 
  48135.1427     0.12694E-02 
  48167.4049     0.12689E-02 
  48199.6670     0.12684E-02 
  48231.9292     0.12678E-02 
  48264.1914     0.12673E-02 
  48296.4535     0.12667E-02 
  48328.7157     0.12662E-02 
  48360.9778     0.12656E-02 
  48393.2400     0.12650E-02 
  48425.5022     0.12643E-02 
  48457.7643     0.12637E-02 
  48490.0265     0.12630E-02 
  48522.2886     0.12623E-02 
  48554.5508     0.12617E-02 
  48586.8130     0.12610E-02 
  48619.0751     0.12602E-02 
  48651.3373     0.12595E-02 
  48683.5994     0.12587E-02 
  48715.8616     0.12580E-02 
  48748.1238     0.12572E-02 
  48780.3859     0.12564E-02 
  48812.6481     0.12556E-02 
  48844.9102     0.12547E-02 
  48877.1724     0.12539E-02 
  48909.4346     0.12530E-02 
  48941.6967     0.12521E-02 
  48973.9589     0.12512E-02 
  49006.2210     0.12503E-02 
  49038.4832     0.12494E-02 
  49070.7454     0.12485E-02 
  49103.0075     0.12475E-02 
  49135.2697     0.12465E-02 
  49167.5318     0.12455E-02 
  49199.7940     0.12445E-02 
  49232.0562     0.12435E-02 
  49264.3183     0.12425E-02 
  49296.5805     0.12414E-02 
  49328.8426     0.12404E-02 
  49361.1048     0.12393E-02 
  49393.3670     0.12382E-02 
  49425.6291     0.12371E-02 
  49457.8913     0.12360E-02 
  49490.1534     0.12348E-02 
  49522.4156     0.12337E-02 
  49554.6778     0.12325E-02 
  49586.9399     0.12313E-02 
  49619.2021     0.12301E-02 
  49651.4642     0.12289E-02 
  49683.7264     0.12277E-02 
  49715.9886     0.12265E-02 
  49748.2507     0.12252E-02 
  49780.5129     0.12239E-02 
  49812.7750     0.12226E-02 
  49845.0372     0.12213E-02 
  49877.2994     0.12200E-02 
  49909.5615     0.12187E-02 
  49941.8237     0.12174E-02 
  49974.0858     0.12160E-02 
  50006.3480     0.12146E-02 
  50038.6102     0.12133E-02 
  50070.8723     0.12119E-02 
  50103.1345     0.12104E-02 
  50135.3966     0.12090E-02 
  50167.6588     0.12076E-02 
  50199.9210     0.12061E-02 
  50232.1831     0.12047E-02 
  50264.4453     0.12032E-02 
  50296.7074     0.12017E-02 
  50328.9696     0.12002E-02 
  50361.2318     0.11987E-02 
  50393.4939     0.11971E-02 
  50425.7561     0.11956E-02 
  50458.0182     0.11940E-02 
  50490.2804     0.11924E-02 
  50522.5426     0.11909E-02 
  50554.8047     0.11893E-02 
  50587.0669     0.11876E-02 
  50619.3290     0.11860E-02 
  50651.5912     0.11844E-02 
  50683.8534     0.11827E-02 
  50716.1155     0.11811E-02 
  50748.3777     0.11794E-02 
  50780.6398     0.11777E-02 
  50812.9020     0.11760E-02 
  50845.1642     0.11743E-02 
  50877.4263     0.11726E-02 
  50909.6885     0.11708E-02 
  50941.9506     0.11691E-02 
  50974.2128     0.11673E-02 
  51006.4750     0.11655E-02 
  51038.7371     0.11637E-02 
  51070.9993     0.11619E-02 
  51103.2614     0.11601E-02 
  51135.5236     0.11583E-02 
  51167.7858     0.11565E-02 
  51200.0479     0.11546E-02 
  51232.3101     0.11528E-02 
  51264.5722     0.11509E-02 
  51296.8344     0.11490E-02 
  51329.0966     0.11471E-02 
  51361.3587     0.11452E-02 
  51393.6209     0.11433E-02 
  51425.8830     0.11414E-02 
  51458.1452     0.11394E-02 
  51490.4074     0.11375E-02 
  51522.6695     0.11355E-02 
  51554.9317     0.11336E-02 
  51587.1938     0.11316E-02 
  51619.4560     0.11296E-02 
  51651.7182     0.11276E-02 
  51683.9803     0.11256E-02 
  51716.2425     0.11236E-02 
  51748.5046     0.11215E-02 
  51780.7668     0.11195E-02 
  51813.0290     0.11174E-02 
  51845.2911     0.11154E-02 
  51877.5533     0.11133E-02 
  51909.8154     0.11112E-02 
  51942.0776     0.11091E-02 
  51974.3398     0.11070E-02 
  52006.6019     0.11049E-02 
  52038.8641     0.11028E-02 
  52071.1262     0.11007E-02 
  52103.3884     0.10985E-02 
  52135.6506     0.10964E-02 
  52167.9127     0.10942E-02 
  52200.1749     0.10920E-02 
  52232.4370     0.10899E-02 
  52264.6992     0.10877E-02 
  52296.9614     0.10855E-02 
  52329.2235     0.10833E-02 
  52361.4857     0.10811E-02 
  52393.7478     0.10788E-02 
  52426.0100     0.10766E-02 
  52458.2722     0.10744E-02 
  52490.5343     0.10721E-02 
  52522.7965     0.10699E-02 
  52555.0586     0.10676E-02 
  52587.3208     0.10654E-02 
  52619.5830     0.10631E-02 
  52651.8451     0.10608E-02 
  52684.1073     0.10585E-02 
  52716.3694     0.10562E-02 
  52748.6316     0.10539E-02 
  52780.8938     0.10516E-02 
  52813.1559     0.10493E-02 
  52845.4181     0.10469E-02 
  52877.6802     0.10446E-02 
  52909.9424     0.10423E-02 
  52942.2046     0.10399E-02 
  52974.4667     0.10375E-02 
  53006.7289     0.10352E-02 
  53038.9910     0.10328E-02 
  53071.2532     0.10304E-02 
  53103.5154     0.10281E-02 
  53135.7775     0.10257E-02 
  53168.0397     0.10233E-02 
  53200.3018     0.10209E-02 
  53232.5640     0.10185E-02 
  53264.8262     0.10161E-02 
  53297.0883     0.10136E-02 
  53329.3505     0.10112E-02 
  53361.6126     0.10088E-02 
  53393.8748     0.10064E-02 
  53426.1370     0.10039E-02 
  53458.3991     0.10015E-02 
  53490.6613     0.99904E-03 
  53522.9234     0.99659E-03 
  53555.1856     0.99413E-03 
  53587.4478     0.99167E-03 
  53619.7099     0.98920E-03 
  53651.9721     0.98673E-03 
  53684.2342     0.98426E-03 
  53716.4964     0.98178E-03 
  53748.7586     0.97930E-03 
  53781.0207     0.97681E-03 
  53813.2829     0.97432E-03 
  53845.5450     0.97183E-03 
  53877.8072     0.96933E-03 
  53910.0694     0.96683E-03 
  53942.3315     0.96433E-03 
  53974.5937     0.96182E-03 
  54006.8558     0.95931E-03 
  54039.1180     0.95680E-03 
  54071.3802     0.95428E-03 
  54103.6423     0.95176E-03 
  54135.9045     0.94924E-03 
  54168.1666     0.94672E-03 
  54200.4288     0.94420E-03 
  54232.6910     0.94167E-03 
  54264.9531     0.93914E-03 
  54297.2153     0.93661E-03 
  54329.4774     0.93408E-03 
  54361.7396     0.93155E-03 
  54394.0018     0.92901E-03 
  54426.2639     0.92648E-03 
  54458.5261     0.92394E-03 
  54490.7882     0.92140E-03 
  54523.0504     0.91886E-03 
  54555.3126     0.91632E-03 
  54587.5747     0.91378E-03 
  54619.8369     0.91124E-03 
  54652.0990     0.90870E-03 
  54684.3612     0.90616E-03 
  54716.6234     0.90361E-03 
  54748.8855     0.90107E-03 
  54781.1477     0.89853E-03 
  54813.4098     0.89599E-03 
  54845.6720     0.89345E-03 
  54877.9342     0.89091E-03 
  54910.1963     0.88837E-03 
  54942.4585     0.88583E-03 
  54974.7206     0.88330E-03 
  55006.9828     0.88076E-03 
  55039.2450     0.87823E-03 
  55071.5071     0.87569E-03 
  55103.7693     0.87316E-03 
  55136.0314     0.87063E-03 
  55168.2936     0.86811E-03 
  55200.5558     0.86558E-03 
  55232.8179     0.86306E-03 
  55265.0801     0.86054E-03 
  55297.3422     0.85802E-03 
  55329.6044     0.85551E-03 
  55361.8666     0.85300E-03 
  55394.1287     0.85049E-03 
  55426.3909     0.84798E-03 
  55458.6530     0.84548E-03 
  55490.9152     0.84298E-03 
  55523.1774     0.84048E-03 
  55555.4395     0.83799E-03 
  55587.7017     0.83551E-03 
  55619.9638     0.83302E-03 
  55652.2260     0.83054E-03 
  55684.4882     0.82807E-03 
  55716.7503     0.82560E-03 
  55749.0125     0.82313E-03 
  55781.2746     0.82067E-03 
  55813.5368     0.81822E-03 
  55845.7990     0.81577E-03 
  55878.0611     0.81333E-03 
  55910.3233     0.81089E-03 
  55942.5854     0.80845E-03 
  55974.8476     0.80603E-03 
  56007.1098     0.80361E-03 
  56039.3719     0.80119E-03 
  56071.6341     0.79878E-03 
  56103.8962     0.79638E-03 
  56136.1584     0.79399E-03 
  56168.4206     0.79160E-03 
  56200.6827     0.78922E-03 
  56232.9449     0.78685E-03 
  56265.2070     0.78448E-03 
  56297.4692     0.78212E-03 
  56329.7314     0.77977E-03 
  56361.9935     0.77743E-03 
  56394.2557     0.77510E-03 
  56426.5178     0.77277E-03 
  56458.7800     0.77046E-03 
  56491.0422     0.76815E-03 
  56523.3043     0.76585E-03 
  56555.5665     0.76356E-03 
  56587.8286     0.76128E-03 
  56620.0908     0.75901E-03 
  56652.3530     0.75674E-03 
  56684.6151     0.75449E-03 
  56716.8773     0.75225E-03 
  56749.1394     0.75002E-03 
  56781.4016     0.74780E-03 
  56813.6638     0.74559E-03 
  56845.9259     0.74339E-03 
  56878.1881     0.74120E-03 
  56910.4502     0.73902E-03 
  56942.7124     0.73686E-03 
  56974.9746     0.73470E-03 
  57007.2367     0.73256E-03 
  57039.4989     0.73043E-03 
  57071.7610     0.72831E-03 
  57104.0232     0.72620E-03 
  57136.2854     0.72411E-03 
  57168.5475     0.72203E-03 
  57200.8097     0.71996E-03 
  57233.0718     0.71790E-03 
  57265.3340     0.71586E-03 
  57297.5962     0.71383E-03 
  57329.8583     0.71182E-03 
  57362.1205     0.70982E-03 
  57394.3826     0.70783E-03 
  57426.6448     0.70586E-03 
  57458.9070     0.70390E-03 
  57491.1691     0.70196E-03 
  57523.4313     0.70003E-03 
  57555.6934     0.69812E-03 
  57587.9556     0.69622E-03 
  57620.2178     0.69434E-03 
  57652.4799     0.69247E-03 
  57684.7421     0.69063E-03 
  57717.0042     0.68879E-03 
  57749.2664     0.68697E-03 
  57781.5286     0.68517E-03 
  57813.7907     0.68339E-03 
  57846.0529     0.68163E-03 
  57878.3150     0.67988E-03 
  57910.5772     0.67815E-03 
  57942.8394     0.67643E-03 
  57975.1015     0.67474E-03 
  58007.3637     0.67306E-03 
  58039.6258     0.67140E-03 
  58071.8880     0.66976E-03 
  58104.1502     0.66814E-03 
  58136.4123     0.66654E-03 
  58168.6745     0.66495E-03 
  58200.9366     0.66339E-03 
  58233.1988     0.66185E-03 
  58265.4610     0.66032E-03 
  58297.7231     0.65882E-03 
  58329.9853     0.65734E-03 
  58362.2474     0.65588E-03 
  58394.5096     0.65443E-03 
  58426.7718     0.65302E-03 
  58459.0339     0.65162E-03 
  58491.2961     0.65024E-03 
  58523.5582     0.64889E-03 
  58555.8204     0.64755E-03 
  58588.0826     0.64624E-03 
  58620.3447     0.64496E-03 
  58652.6069     0.64369E-03 
  58684.8690     0.64245E-03 
  58717.1312     0.64123E-03 
  58749.3934     0.64004E-03 
  58781.6555     0.63887E-03 
  58813.9177     0.63772E-03 
  58846.1798     0.63660E-03 
  58878.4420     0.63550E-03 
  58910.7042     0.63443E-03 
  58942.9663     0.63338E-03 
  58975.2285     0.63236E-03 
  59007.4906     0.63136E-03 
  59039.7528     0.63039E-03 
  59072.0150     0.62945E-03 
  59104.2771     0.62853E-03 
  59136.5393     0.62764E-03 
  59168.8014     0.62677E-03 
  59201.0636     0.62594E-03 
  59233.3258     0.62513E-03 
  59265.5879     0.62434E-03 
  59297.8501     0.62359E-03 
  59330.1122     0.62286E-03 
  59362.3744     0.62217E-03 
  59394.6366     0.62150E-03 
  59426.8987     0.62086E-03 
  59459.1609     0.62025E-03 
  59491.4230     0.61966E-03 
  59523.6852     0.61911E-03 
  59555.9474     0.61859E-03 
  59588.2095     0.61810E-03 
  59620.4717     0.61764E-03 
  59652.7338     0.61721E-03 
  59684.9960     0.61681E-03 
  59717.2582     0.61645E-03 
  59749.5203     0.61611E-03 
  59781.7825     0.61581E-03 
  59814.0446     0.61554E-03 
  59846.3068     0.61530E-03 
  59878.5690     0.61509E-03 
  59910.8311     0.61492E-03 
  59943.0933     0.61478E-03 
  59975.3554     0.61468E-03 
  60007.6176     0.61461E-03 
  60039.8798     0.61457E-03 
  60072.1419     0.61457E-03 
  60104.4041     0.61460E-03 
  60136.6662     0.61467E-03 
  60168.9284     0.61477E-03 
  60201.1906     0.61491E-03 
  60233.4527     0.61508E-03 
  60265.7149     0.61529E-03 
  60297.9770     0.61554E-03 
  60330.2392     0.61583E-03 
  60362.5014     0.61615E-03 
  60394.7635     0.61651E-03 
  60427.0257     0.61690E-03 
  60459.2878     0.61734E-03 
  60491.5500     0.61781E-03 
  60523.8122     0.61832E-03 
  60556.0743     0.61887E-03 
  60588.3365     0.61946E-03 
  60620.5986     0.62009E-03 
  60652.8608     0.62076E-03 
  60685.1230     0.62147E-03 
  60717.3851     0.62222E-03 
  60749.6473     0.62301E-03 
  60781.9094     0.62385E-03 
  60814.1716     0.62472E-03 
  60846.4338     0.62563E-03 
  60878.6959     0.62659E-03 
  60910.9581     0.62759E-03 
  60943.2202     0.62863E-03 
  60975.4824     0.62972E-03 
  61007.7446     0.63085E-03 
  61040.0067     0.63202E-03 
  61072.2689     0.63323E-03 
  61104.5310     0.63449E-03 
  61136.7932     0.63580E-03 
  61169.0554     0.63715E-03 
  61201.3175     0.63854E-03 
  61233.5797     0.63998E-03 
  61265.8418     0.64147E-03 
  61298.1040     0.64300E-03 
  61330.3662     0.64458E-03 
  61362.6283     0.64620E-03 
  61394.8905     0.64787E-03 
  61427.1526     0.64959E-03 
  61459.4148     0.65136E-03 
  61491.6770     0.65318E-03 
  61523.9391     0.65504E-03 
  61556.2013     0.65695E-03 
  61588.4634     0.65891E-03 
  61620.7256     0.66093E-03 
  61652.9878     0.66299E-03 
  61685.2499     0.66510E-03 
  61717.5121     0.66726E-03 
  61749.7742     0.66947E-03 
  61782.0364     0.67173E-03 
  61814.2986     0.67405E-03 
  61846.5607     0.67641E-03 
  61878.8229     0.67883E-03 
  61911.0850     0.68130E-03 
  61943.3472     0.68382E-03 
  61975.6094     0.68640E-03 
  62007.8715     0.68903E-03 
  62040.1337     0.69171E-03 
  62072.3958     0.69445E-03 
  62104.6580     0.69724E-03 
  62136.9202     0.70009E-03 
  62169.1823     0.70299E-03 
  62201.4445     0.70595E-03 
  62233.7066     0.70896E-03 
  62265.9688     0.71203E-03 
  62298.2310     0.71515E-03 
  62330.4931     0.71834E-03 
  62362.7553     0.72157E-03 
  62395.0174     0.72487E-03 
  62427.2796     0.72823E-03 
  62459.5418     0.73164E-03 
  62491.8039     0.73511E-03 
  62524.0661     0.73864E-03 
  62556.3282     0.74223E-03 
  62588.5904     0.74588E-03 
  62620.8526     0.74959E-03 
  62653.1147     0.75336E-03 
  62685.3769     0.75719E-03 
  62717.6390     0.76108E-03 
  62749.9012     0.76503E-03 
  62782.1634     0.76904E-03 
  62814.4255     0.77312E-03 
  62846.6877     0.77725E-03 
  62878.9498     0.78146E-03 
  62911.2120     0.78572E-03 
  62943.4742     0.79005E-03 
  62975.7363     0.79444E-03 
  63007.9985     0.79889E-03 
  63040.2606     0.80341E-03 
  63072.5228     0.80800E-03 
  63104.7850     0.81265E-03 
  63137.0471     0.81736E-03 
  63169.3093     0.82214E-03 
  63201.5714     0.82699E-03 
  63233.8336     0.83190E-03 
  63266.0958     0.83688E-03 
  63298.3579     0.84193E-03 
  63330.6201     0.84705E-03 
  63362.8822     0.85223E-03 
  63395.1444     0.85748E-03 
  63427.4066     0.86280E-03 
  63459.6687     0.86819E-03 
  63491.9309     0.87365E-03 
  63524.1930     0.87918E-03 
  63556.4552     0.88478E-03 
  63588.7174     0.89045E-03 
  63620.9795     0.89619E-03 
  63653.2417     0.90200E-03 
  63685.5038     0.90789E-03 
  63717.7660     0.91384E-03 
  63750.0282     0.91987E-03 
  63782.2903     0.92597E-03 
  63814.5525     0.93214E-03 
  63846.8146     0.93839E-03 
  63879.0768     0.94471E-03 
  63911.3390     0.95111E-03 
  63943.6011     0.95757E-03 
  63975.8633     0.96412E-03 
  64008.1254     0.97074E-03 
  64040.3876     0.97743E-03 
  64072.6498     0.98420E-03 
  64104.9119     0.99105E-03 
  64137.1741     0.99797E-03 
  64169.4362     0.10050E-02 
  64201.6984     0.10120E-02 
  64233.9606     0.10192E-02 
  64266.2227     0.10264E-02 
  64298.4849     0.10337E-02 
  64330.7470     0.10411E-02 
  64363.0092     0.10486E-02 
  64395.2714     0.10562E-02 
  64427.5335     0.10638E-02 
  64459.7957     0.10715E-02 
  64492.0578     0.10793E-02 
  64524.3200     0.10871E-02 
  64556.5822     0.10951E-02 
  64588.8443     0.11031E-02 
  64621.1065     0.11112E-02 
  64653.3686     0.11194E-02 
  64685.6308     0.11277E-02 
  64717.8930     0.11361E-02 
  64750.1551     0.11445E-02 
  64782.4173     0.11530E-02 
  64814.6794     0.11617E-02 
  64846.9416     0.11703E-02 
  64879.2038     0.11791E-02 
  64911.4659     0.11880E-02 
  64943.7281     0.11969E-02 
  64975.9902     0.12060E-02 
  65008.2524     0.12151E-02 
  65040.5146     0.12243E-02 
  65072.7767     0.12336E-02 
  65105.0389     0.12430E-02 
  65137.3010     0.12524E-02 
  65169.5632     0.12620E-02 
  65201.8254     0.12716E-02 
  65234.0875     0.12814E-02 
  65266.3497     0.12912E-02 
  65298.6118     0.13011E-02 
  65330.8740     0.13111E-02 
  65363.1362     0.13212E-02 
  65395.3983     0.13314E-02 
  65427.6605     0.13416E-02 
  65459.9226     0.13520E-02 
  65492.1848     0.13625E-02 
  65524.4470     0.13730E-02 
  65556.7091     0.13836E-02 
  65588.9713     0.13944E-02 
  65621.2334     0.14052E-02 
  65653.4956     0.14161E-02 
  65685.7578     0.14271E-02 
  65718.0199     0.14382E-02 
  65750.2821     0.14494E-02 
  65782.5442     0.14606E-02 
  65814.8064     0.14720E-02 
  65847.0686     0.14835E-02 
  65879.3307     0.14951E-02 
  65911.5929     0.15067E-02 
  65943.8550     0.15185E-02 
  65976.1172     0.15303E-02 
  66008.3794     0.15423E-02 
  66040.6415     0.15543E-02 
  66072.9037     0.15664E-02 
  66105.1658     0.15787E-02 
  66137.4280     0.15910E-02 
  66169.6902     0.16034E-02 
  66201.9523     0.16160E-02 
  66234.2145     0.16286E-02 
  66266.4766     0.16413E-02 
  66298.7388     0.16541E-02 
  66331.0010     0.16671E-02 
  66363.2631     0.16801E-02 
  66395.5253     0.16932E-02 
  66427.7874     0.17064E-02 
  66460.0496     0.17197E-02 
  66492.3118     0.17332E-02 
  66524.5739     0.17467E-02 
  66556.8361     0.17603E-02 
  66589.0982     0.17740E-02 
  66621.3604     0.17878E-02 
  66653.6226     0.18018E-02 
  66685.8847     0.18158E-02 
  66718.1469     0.18299E-02 
  66750.4090     0.18442E-02 
  66782.6712     0.18585E-02 
  66814.9334     0.18729E-02 
  66847.1955     0.18875E-02 
  66879.4577     0.19021E-02 
  66911.7198     0.19168E-02 
  66943.9820     0.19317E-02 
  66976.2442     0.19466E-02 
  67008.5063     0.19617E-02 
  67040.7685     0.19769E-02 
  67073.0306     0.19921E-02 
  67105.2928     0.20075E-02 
  67137.5550     0.20230E-02 
  67169.8171     0.20386E-02 
  67202.0793     0.20542E-02 
  67234.3414     0.20700E-02 
  67266.6036     0.20859E-02 
  67298.8658     0.21019E-02 
  67331.1279     0.21181E-02 
  67363.3901     0.21343E-02 
  67395.6522     0.21506E-02 
  67427.9144     0.21670E-02 
  67460.1766     0.21836E-02 
  67492.4387     0.22002E-02 
  67524.7009     0.22170E-02 
  67556.9630     0.22338E-02 
  67589.2252     0.22508E-02 
  67621.4874     0.22679E-02 
  67653.7495     0.22851E-02 
  67686.0117     0.23024E-02 
  67718.2738     0.23198E-02 
  67750.5360     0.23373E-02 
  67782.7982     0.23549E-02 
  67815.0603     0.23727E-02 
  67847.3225     0.23905E-02 
  67879.5846     0.24084E-02 
  67911.8468     0.24265E-02 
  67944.1090     0.24447E-02 
  67976.3711     0.24630E-02 
  68008.6333     0.24814E-02 
  68040.8954     0.24999E-02 
  68073.1576     0.25185E-02 
  68105.4198     0.25372E-02 
  68137.6819     0.25560E-02 
  68169.9441     0.25750E-02 
  68202.2062     0.25940E-02 
  68234.4684     0.26132E-02 
  68266.7306     0.26325E-02 
  68298.9927     0.26519E-02 
  68331.2549     0.26714E-02 
  68363.5170     0.26910E-02 
  68395.7792     0.27107E-02 
  68428.0414     0.27306E-02 
  68460.3035     0.27505E-02 
  68492.5657     0.27706E-02 
  68524.8278     0.27907E-02 
  68557.0900     0.28110E-02 
  68589.3522     0.28314E-02 
  68621.6143     0.28519E-02 
  68653.8765     0.28726E-02 
  68686.1386     0.28933E-02 
  68718.4008     0.29142E-02 
  68750.6630     0.29351E-02 
  68782.9251     0.29562E-02 
  68815.1873     0.29774E-02 
  68847.4494     0.29987E-02 
  68879.7116     0.30201E-02 
  68911.9738     0.30416E-02 
  68944.2359     0.30633E-02 
  68976.4981     0.30850E-02 
  69008.7602     0.31069E-02 
  69041.0224     0.31289E-02 
  69073.2846     0.31510E-02 
  69105.5467     0.31732E-02 
  69137.8089     0.31955E-02 
  69170.0710     0.32179E-02 
  69202.3332     0.32405E-02 
  69234.5954     0.32631E-02 
  69266.8575     0.32859E-02 
  69299.1197     0.33088E-02 
  69331.3818     0.33318E-02 
  69363.6440     0.33549E-02 
  69395.9062     0.33781E-02 
  69428.1683     0.34015E-02 
  69460.4305     0.34249E-02 
  69492.6926     0.34485E-02 
  69524.9548     0.34722E-02 
  69557.2170     0.34960E-02 
  69589.4791     0.35199E-02 
  69621.7413     0.35439E-02 
  69654.0034     0.35680E-02 
  69686.2656     0.35923E-02 
  69718.5278     0.36166E-02 
  69750.7899     0.36411E-02 
  69783.0521     0.36657E-02 
  69815.3142     0.36904E-02 
  69847.5764     0.37152E-02 
  69879.8386     0.37401E-02 
  69912.1007     0.37652E-02 
  69944.3629     0.37903E-02 
  69976.6250     0.38156E-02 
  70008.8872     0.38409E-02 
  70041.1494     0.38664E-02 
  70073.4115     0.38920E-02 
  70105.6737     0.39177E-02 
  70137.9358     0.39435E-02 
  70170.1980     0.39695E-02 
  70202.4602     0.39955E-02 
  70234.7223     0.40217E-02 
  70266.9845     0.40479E-02 
  70299.2466     0.40743E-02 
  70331.5088     0.41008E-02 
  70363.7710     0.41274E-02 
  70396.0331     0.41541E-02 
  70428.2953     0.41809E-02 
  70460.5574     0.42079E-02 
  70492.8196     0.42349E-02 
  70525.0818     0.42621E-02 
  70557.3439     0.42893E-02 
  70589.6061     0.43167E-02 
  70621.8682     0.43442E-02 
  70654.1304     0.43718E-02 
  70686.3926     0.43995E-02 
  70718.6547     0.44273E-02 
  70750.9169     0.44552E-02 
  70783.1790     0.44832E-02 
  70815.4412     0.45113E-02 
  70847.7034     0.45396E-02 
  70879.9655     0.45679E-02 
  70912.2277     0.45964E-02 
  70944.4898     0.46249E-02 
  70976.7520     0.46536E-02 
  71009.0142     0.46824E-02 
  71041.2763     0.47113E-02 
  71073.5385     0.47403E-02 
  71105.8006     0.47694E-02 
  71138.0628     0.47986E-02 
  71170.3250     0.48279E-02 
  71202.5871     0.48573E-02 
  71234.8493     0.48868E-02 
  71267.1114     0.49164E-02 
  71299.3736     0.49461E-02 
  71331.6358     0.49760E-02 
  71363.8979     0.50059E-02 
  71396.1601     0.50359E-02 
  71428.4222     0.50661E-02 
  71460.6844     0.50963E-02 
  71492.9466     0.51267E-02 
  71525.2087     0.51571E-02 
  71557.4709     0.51877E-02 
  71589.7330     0.52183E-02 
  71621.9952     0.52491E-02 
  71654.2574     0.52799E-02 
  71686.5195     0.53109E-02 
  71718.7817     0.53419E-02 
  71751.0438     0.53731E-02 
  71783.3060     0.54043E-02 
  71815.5682     0.54357E-02 
  71847.8303     0.54671E-02 
  71880.0925     0.54987E-02 
  71912.3546     0.55303E-02 
  71944.6168     0.55620E-02 
  71976.8790     0.55939E-02 
  72009.1411     0.56258E-02 
  72041.4033     0.56579E-02 
  72073.6654     0.56900E-02 
  72105.9276     0.57222E-02 
  72138.1898     0.57545E-02 
  72170.4519     0.57869E-02 
  72202.7141     0.58194E-02 
  72234.9762     0.58520E-02 
  72267.2384     0.58847E-02 
  72299.5006     0.59175E-02 
  72331.7627     0.59504E-02 
  72364.0249     0.59833E-02 
  72396.2870     0.60164E-02 
  72428.5492     0.60495E-02 
  72460.8114     0.60828E-02 
  72493.0735     0.61161E-02 
  72525.3357     0.61495E-02 
  72557.5978     0.61830E-02 
  72589.8600     0.62166E-02 
