  32262.1600     0.46128E-02 
  32294.4222     0.46652E-02 
  32326.6843     0.47180E-02 
  32358.9465     0.47712E-02 
  32391.2086     0.48247E-02 
  32423.4708     0.48787E-02 
  32455.7330     0.49331E-02 
  32487.9951     0.49878E-02 
  32520.2573     0.50429E-02 
  32552.5194     0.50985E-02 
  32584.7816     0.51544E-02 
  32617.0438     0.52107E-02 
  32649.3059     0.52674E-02 
  32681.5681     0.53244E-02 
  32713.8302     0.53819E-02 
  32746.0924     0.54398E-02 
  32778.3546     0.54980E-02 
  32810.6167     0.55566E-02 
  32842.8789     0.56156E-02 
  32875.1410     0.56750E-02 
  32907.4032     0.57348E-02 
  32939.6654     0.57950E-02 
  32971.9275     0.58555E-02 
  33004.1897     0.59164E-02 
  33036.4518     0.59777E-02 
  33068.7140     0.60394E-02 
  33100.9762     0.61015E-02 
  33133.2383     0.61639E-02 
  33165.5005     0.62267E-02 
  33197.7626     0.62899E-02 
  33230.0248     0.63535E-02 
  33262.2870     0.64174E-02 
  33294.5491     0.64817E-02 
  33326.8113     0.65464E-02 
  33359.0734     0.66115E-02 
  33391.3356     0.66769E-02 
  33423.5978     0.67427E-02 
  33455.8599     0.68088E-02 
  33488.1221     0.68753E-02 
  33520.3842     0.69422E-02 
  33552.6464     0.70094E-02 
  33584.9086     0.70770E-02 
  33617.1707     0.71449E-02 
  33649.4329     0.72132E-02 
  33681.6950     0.72819E-02 
  33713.9572     0.73509E-02 
  33746.2194     0.74202E-02 
  33778.4815     0.74899E-02 
  33810.7437     0.75600E-02 
  33843.0058     0.76303E-02 
  33875.2680     0.77011E-02 
  33907.5302     0.77721E-02 
  33939.7923     0.78435E-02 
  33972.0545     0.79153E-02 
  34004.3166     0.79873E-02 
  34036.5788     0.80597E-02 
  34068.8410     0.81324E-02 
  34101.1031     0.82055E-02 
  34133.3653     0.82788E-02 
  34165.6274     0.83525E-02 
  34197.8896     0.84265E-02 
  34230.1518     0.85008E-02 
  34262.4139     0.85754E-02 
  34294.6761     0.86503E-02 
  34326.9382     0.87256E-02 
  34359.2004     0.88011E-02 
  34391.4626     0.88769E-02 
  34423.7247     0.89531E-02 
  34455.9869     0.90295E-02 
  34488.2490     0.91062E-02 
  34520.5112     0.91832E-02 
  34552.7734     0.92605E-02 
  34585.0355     0.93380E-02 
  34617.2977     0.94159E-02 
  34649.5598     0.94940E-02 
  34681.8220     0.95724E-02 
  34714.0842     0.96510E-02 
  34746.3463     0.97299E-02 
  34778.6085     0.98091E-02 
  34810.8706     0.98885E-02 
  34843.1328     0.99682E-02 
  34875.3950     0.10048E-01 
  34907.6571     0.10128E-01 
  34939.9193     0.10209E-01 
  34972.1814     0.10289E-01 
  35004.4436     0.10370E-01 
  35036.7058     0.10451E-01 
  35068.9679     0.10533E-01 
  35101.2301     0.10614E-01 
  35133.4922     0.10696E-01 
  35165.7544     0.10778E-01 
  35198.0166     0.10860E-01 
  35230.2787     0.10943E-01 
  35262.5409     0.11025E-01 
  35294.8030     0.11108E-01 
  35327.0652     0.11191E-01 
  35359.3274     0.11274E-01 
  35391.5895     0.11358E-01 
  35423.8517     0.11441E-01 
  35456.1138     0.11525E-01 
  35488.3760     0.11609E-01 
  35520.6382     0.11693E-01 
  35552.9003     0.11777E-01 
  35585.1625     0.11862E-01 
  35617.4246     0.11946E-01 
  35649.6868     0.12031E-01 
  35681.9490     0.12116E-01 
  35714.2111     0.12201E-01 
  35746.4733     0.12286E-01 
  35778.7354     0.12371E-01 
  35810.9976     0.12457E-01 
  35843.2598     0.12542E-01 
  35875.5219     0.12628E-01 
  35907.7841     0.12714E-01 
  35940.0462     0.12799E-01 
  35972.3084     0.12885E-01 
  36004.5706     0.12971E-01 
  36036.8327     0.13058E-01 
  36069.0949     0.13144E-01 
  36101.3570     0.13230E-01 
  36133.6192     0.13316E-01 
  36165.8814     0.13403E-01 
  36198.1435     0.13489E-01 
  36230.4057     0.13576E-01 
  36262.6678     0.13663E-01 
  36294.9300     0.13749E-01 
  36327.1922     0.13836E-01 
  36359.4543     0.13923E-01 
  36391.7165     0.14010E-01 
  36423.9786     0.14096E-01 
  36456.2408     0.14183E-01 
  36488.5030     0.14270E-01 
  36520.7651     0.14357E-01 
  36553.0273     0.14444E-01 
  36585.2894     0.14531E-01 
  36617.5516     0.14618E-01 
  36649.8138     0.14705E-01 
  36682.0759     0.14791E-01 
  36714.3381     0.14878E-01 
  36746.6002     0.14965E-01 
  36778.8624     0.15052E-01 
  36811.1246     0.15139E-01 
  36843.3867     0.15225E-01 
  36875.6489     0.15312E-01 
  36907.9110     0.15399E-01 
  36940.1732     0.15485E-01 
  36972.4354     0.15572E-01 
  37004.6975     0.15658E-01 
  37036.9597     0.15745E-01 
  37069.2218     0.15831E-01 
  37101.4840     0.15917E-01 
  37133.7462     0.16003E-01 
  37166.0083     0.16089E-01 
  37198.2705     0.16175E-01 
  37230.5326     0.16261E-01 
  37262.7948     0.16347E-01 
  37295.0570     0.16432E-01 
  37327.3191     0.16518E-01 
  37359.5813     0.16603E-01 
  37391.8434     0.16688E-01 
  37424.1056     0.16773E-01 
  37456.3678     0.16858E-01 
  37488.6299     0.16943E-01 
  37520.8921     0.17027E-01 
  37553.1542     0.17112E-01 
  37585.4164     0.17196E-01 
  37617.6786     0.17280E-01 
  37649.9407     0.17364E-01 
  37682.2029     0.17448E-01 
  37714.4650     0.17531E-01 
  37746.7272     0.17614E-01 
  37778.9894     0.17697E-01 
  37811.2515     0.17780E-01 
  37843.5137     0.17863E-01 
  37875.7758     0.17945E-01 
  37908.0380     0.18028E-01 
  37940.3002     0.18110E-01 
  37972.5623     0.18191E-01 
  38004.8245     0.18273E-01 
  38037.0866     0.18354E-01 
  38069.3488     0.18435E-01 
  38101.6110     0.18516E-01 
  38133.8731     0.18596E-01 
  38166.1353     0.18677E-01 
  38198.3974     0.18757E-01 
  38230.6596     0.18836E-01 
  38262.9218     0.18916E-01 
  38295.1839     0.18995E-01 
  38327.4461     0.19074E-01 
  38359.7082     0.19152E-01 
  38391.9704     0.19230E-01 
  38424.2326     0.19308E-01 
  38456.4947     0.19386E-01 
  38488.7569     0.19463E-01 
  38521.0190     0.19540E-01 
  38553.2812     0.19616E-01 
  38585.5434     0.19692E-01 
  38617.8055     0.19768E-01 
  38650.0677     0.19844E-01 
  38682.3298     0.19919E-01 
  38714.5920     0.19994E-01 
  38746.8542     0.20068E-01 
  38779.1163     0.20142E-01 
  38811.3785     0.20216E-01 
  38843.6406     0.20289E-01 
  38875.9028     0.20362E-01 
  38908.1650     0.20435E-01 
  38940.4271     0.20507E-01 
  38972.6893     0.20578E-01 
  39004.9514     0.20650E-01 
  39037.2136     0.20721E-01 
  39069.4758     0.20791E-01 
  39101.7379     0.20861E-01 
  39134.0001     0.20931E-01 
  39166.2622     0.21000E-01 
  39198.5244     0.21069E-01 
  39230.7866     0.21137E-01 
  39263.0487     0.21205E-01 
  39295.3109     0.21272E-01 
  39327.5730     0.21339E-01 
  39359.8352     0.21406E-01 
  39392.0974     0.21472E-01 
  39424.3595     0.21538E-01 
  39456.6217     0.21603E-01 
  39488.8838     0.21667E-01 
  39521.1460     0.21732E-01 
  39553.4082     0.21795E-01 
  39585.6703     0.21858E-01 
  39617.9325     0.21921E-01 
  39650.1946     0.21983E-01 
  39682.4568     0.22045E-01 
  39714.7190     0.22106E-01 
  39746.9811     0.22167E-01 
  39779.2433     0.22227E-01 
  39811.5054     0.22287E-01 
  39843.7676     0.22346E-01 
  39876.0298     0.22405E-01 
  39908.2919     0.22463E-01 
  39940.5541     0.22520E-01 
  39972.8162     0.22577E-01 
  40005.0784     0.22634E-01 
  40037.3406     0.22690E-01 
  40069.6027     0.22745E-01 
  40101.8649     0.22800E-01 
  40134.1270     0.22854E-01 
  40166.3892     0.22908E-01 
  40198.6514     0.22961E-01 
  40230.9135     0.23014E-01 
  40263.1757     0.23066E-01 
  40295.4378     0.23118E-01 
  40327.7000     0.23168E-01 
  40359.9622     0.23219E-01 
  40392.2243     0.23269E-01 
  40424.4865     0.23318E-01 
  40456.7486     0.23366E-01 
  40489.0108     0.23414E-01 
  40521.2730     0.23462E-01 
  40553.5351     0.23509E-01 
  40585.7973     0.23555E-01 
  40618.0594     0.23600E-01 
  40650.3216     0.23645E-01 
  40682.5838     0.23690E-01 
  40714.8459     0.23734E-01 
  40747.1081     0.23777E-01 
  40779.3702     0.23819E-01 
  40811.6324     0.23861E-01 
  40843.8946     0.23903E-01 
  40876.1567     0.23943E-01 
  40908.4189     0.23984E-01 
  40940.6810     0.24023E-01 
  40972.9432     0.24062E-01 
  41005.2054     0.24100E-01 
  41037.4675     0.24138E-01 
  41069.7297     0.24175E-01 
  41101.9918     0.24211E-01 
  41134.2540     0.24247E-01 
  41166.5162     0.24282E-01 
  41198.7783     0.24316E-01 
  41231.0405     0.24350E-01 
  41263.3026     0.24383E-01 
  41295.5648     0.24416E-01 
  41327.8270     0.24448E-01 
  41360.0891     0.24479E-01 
  41392.3513     0.24509E-01 
  41424.6134     0.24539E-01 
  41456.8756     0.24568E-01 
  41489.1378     0.24597E-01 
  41521.3999     0.24625E-01 
  41553.6621     0.24652E-01 
  41585.9242     0.24679E-01 
  41618.1864     0.24705E-01 
  41650.4486     0.24730E-01 
  41682.7107     0.24755E-01 
  41714.9729     0.24779E-01 
  41747.2350     0.24802E-01 
  41779.4972     0.24825E-01 
  41811.7594     0.24847E-01 
  41844.0215     0.24868E-01 
  41876.2837     0.24889E-01 
  41908.5458     0.24909E-01 
  41940.8080     0.24928E-01 
  41973.0702     0.24947E-01 
  42005.3323     0.24965E-01 
  42037.5945     0.24982E-01 
  42069.8566     0.24999E-01 
  42102.1188     0.25015E-01 
  42134.3810     0.25030E-01 
  42166.6431     0.25045E-01 
  42198.9053     0.25059E-01 
  42231.1674     0.25072E-01 
  42263.4296     0.25085E-01 
  42295.6918     0.25097E-01 
  42327.9539     0.25109E-01 
  42360.2161     0.25119E-01 
  42392.4782     0.25129E-01 
  42424.7404     0.25139E-01 
  42457.0026     0.25147E-01 
  42489.2647     0.25155E-01 
  42521.5269     0.25163E-01 
  42553.7890     0.25169E-01 
  42586.0512     0.25175E-01 
  42618.3134     0.25181E-01 
  42650.5755     0.25185E-01 
  42682.8377     0.25189E-01 
  42715.0998     0.25193E-01 
  42747.3620     0.25196E-01 
  42779.6242     0.25198E-01 
  42811.8863     0.25199E-01 
  42844.1485     0.25200E-01 
  42876.4106     0.25200E-01 
  42908.6728     0.25199E-01 
  42940.9350     0.25198E-01 
  42973.1971     0.25196E-01 
  43005.4593     0.25194E-01 
  43037.7214     0.25190E-01 
  43069.9836     0.25187E-01 
  43102.2458     0.25182E-01 
  43134.5079     0.25177E-01 
  43166.7701     0.25171E-01 
  43199.0322     0.25165E-01 
  43231.2944     0.25158E-01 
  43263.5566     0.25150E-01 
  43295.8187     0.25142E-01 
  43328.0809     0.25133E-01 
  43360.3430     0.25123E-01 
  43392.6052     0.25113E-01 
  43424.8674     0.25102E-01 
  43457.1295     0.25090E-01 
  43489.3917     0.25078E-01 
  43521.6538     0.25066E-01 
  43553.9160     0.25052E-01 
  43586.1782     0.25038E-01 
  43618.4403     0.25023E-01 
  43650.7025     0.25008E-01 
  43682.9646     0.24992E-01 
  43715.2268     0.24976E-01 
  43747.4890     0.24959E-01 
  43779.7511     0.24941E-01 
  43812.0133     0.24923E-01 
  43844.2754     0.24904E-01 
  43876.5376     0.24884E-01 
  43908.7998     0.24864E-01 
  43941.0619     0.24843E-01 
  43973.3241     0.24822E-01 
  44005.5862     0.24800E-01 
  44037.8484     0.24778E-01 
  44070.1106     0.24754E-01 
  44102.3727     0.24731E-01 
  44134.6349     0.24707E-01 
  44166.8970     0.24682E-01 
  44199.1592     0.24656E-01 
  44231.4214     0.24630E-01 
  44263.6835     0.24604E-01 
  44295.9457     0.24576E-01 
  44328.2078     0.24549E-01 
  44360.4700     0.24521E-01 
  44392.7322     0.24492E-01 
  44424.9943     0.24462E-01 
  44457.2565     0.24432E-01 
  44489.5186     0.24402E-01 
  44521.7808     0.24371E-01 
  44554.0430     0.24339E-01 
  44586.3051     0.24307E-01 
  44618.5673     0.24274E-01 
  44650.8294     0.24241E-01 
  44683.0916     0.24207E-01 
  44715.3538     0.24173E-01 
  44747.6159     0.24138E-01 
  44779.8781     0.24103E-01 
  44812.1402     0.24067E-01 
  44844.4024     0.24031E-01 
  44876.6646     0.23994E-01 
  44908.9267     0.23956E-01 
  44941.1889     0.23919E-01 
  44973.4510     0.23880E-01 
  45005.7132     0.23841E-01 
  45037.9754     0.23802E-01 
  45070.2375     0.23762E-01 
  45102.4997     0.23722E-01 
  45134.7618     0.23681E-01 
  45167.0240     0.23639E-01 
  45199.2862     0.23598E-01 
  45231.5483     0.23555E-01 
  45263.8105     0.23512E-01 
  45296.0726     0.23469E-01 
  45328.3348     0.23426E-01 
  45360.5970     0.23381E-01 
  45392.8591     0.23337E-01 
  45425.1213     0.23292E-01 
  45457.3834     0.23246E-01 
  45489.6456     0.23200E-01 
  45521.9078     0.23154E-01 
  45554.1699     0.23107E-01 
  45586.4321     0.23060E-01 
  45618.6942     0.23012E-01 
  45650.9564     0.22964E-01 
  45683.2186     0.22915E-01 
  45715.4807     0.22866E-01 
  45747.7429     0.22817E-01 
  45780.0050     0.22767E-01 
  45812.2672     0.22717E-01 
  45844.5294     0.22666E-01 
  45876.7915     0.22615E-01 
  45909.0537     0.22564E-01 
  45941.3158     0.22512E-01 
  45973.5780     0.22459E-01 
  46005.8402     0.22407E-01 
  46038.1023     0.22354E-01 
  46070.3645     0.22301E-01 
  46102.6266     0.22247E-01 
  46134.8888     0.22193E-01 
  46167.1510     0.22138E-01 
  46199.4131     0.22083E-01 
  46231.6753     0.22028E-01 
  46263.9374     0.21973E-01 
  46296.1996     0.21917E-01 
  46328.4618     0.21861E-01 
  46360.7239     0.21804E-01 
  46392.9861     0.21747E-01 
  46425.2482     0.21690E-01 
  46457.5104     0.21632E-01 
  46489.7726     0.21574E-01 
  46522.0347     0.21516E-01 
  46554.2969     0.21458E-01 
  46586.5590     0.21399E-01 
  46618.8212     0.21340E-01 
  46651.0834     0.21280E-01 
  46683.3455     0.21220E-01 
  46715.6077     0.21160E-01 
  46747.8698     0.21100E-01 
  46780.1320     0.21039E-01 
  46812.3942     0.20978E-01 
  46844.6563     0.20917E-01 
  46876.9185     0.20856E-01 
  46909.1806     0.20794E-01 
  46941.4428     0.20732E-01 
  46973.7050     0.20670E-01 
  47005.9671     0.20607E-01 
  47038.2293     0.20544E-01 
  47070.4914     0.20481E-01 
  47102.7536     0.20418E-01 
  47135.0158     0.20354E-01 
  47167.2779     0.20291E-01 
  47199.5401     0.20227E-01 
  47231.8022     0.20162E-01 
  47264.0644     0.20098E-01 
  47296.3266     0.20033E-01 
  47328.5887     0.19968E-01 
  47360.8509     0.19903E-01 
  47393.1130     0.19838E-01 
  47425.3752     0.19772E-01 
  47457.6374     0.19706E-01 
  47489.8995     0.19640E-01 
  47522.1617     0.19574E-01 
  47554.4238     0.19508E-01 
  47586.6860     0.19441E-01 
  47618.9482     0.19374E-01 
  47651.2103     0.19307E-01 
  47683.4725     0.19240E-01 
  47715.7346     0.19173E-01 
  47747.9968     0.19106E-01 
  47780.2590     0.19038E-01 
  47812.5211     0.18970E-01 
  47844.7833     0.18902E-01 
  47877.0454     0.18834E-01 
  47909.3076     0.18766E-01 
  47941.5698     0.18697E-01 
  47973.8319     0.18629E-01 
  48006.0941     0.18560E-01 
  48038.3562     0.18491E-01 
  48070.6184     0.18422E-01 
  48102.8806     0.18353E-01 
  48135.1427     0.18284E-01 
  48167.4049     0.18215E-01 
  48199.6670     0.18145E-01 
  48231.9292     0.18076E-01 
  48264.1914     0.18006E-01 
  48296.4535     0.17936E-01 
  48328.7157     0.17867E-01 
  48360.9778     0.17797E-01 
  48393.2400     0.17727E-01 
  48425.5022     0.17656E-01 
  48457.7643     0.17586E-01 
  48490.0265     0.17516E-01 
  48522.2886     0.17445E-01 
  48554.5508     0.17375E-01 
  48586.8130     0.17304E-01 
  48619.0751     0.17234E-01 
  48651.3373     0.17163E-01 
  48683.5994     0.17092E-01 
  48715.8616     0.17021E-01 
  48748.1238     0.16950E-01 
  48780.3859     0.16879E-01 
  48812.6481     0.16808E-01 
  48844.9102     0.16737E-01 
  48877.1724     0.16666E-01 
  48909.4346     0.16595E-01 
  48941.6967     0.16524E-01 
  48973.9589     0.16453E-01 
  49006.2210     0.16382E-01 
  49038.4832     0.16310E-01 
  49070.7454     0.16239E-01 
  49103.0075     0.16168E-01 
  49135.2697     0.16096E-01 
  49167.5318     0.16025E-01 
  49199.7940     0.15954E-01 
  49232.0562     0.15882E-01 
  49264.3183     0.15811E-01 
  49296.5805     0.15740E-01 
  49328.8426     0.15668E-01 
  49361.1048     0.15597E-01 
  49393.3670     0.15525E-01 
  49425.6291     0.15454E-01 
  49457.8913     0.15383E-01 
  49490.1534     0.15311E-01 
  49522.4156     0.15240E-01 
  49554.6778     0.15169E-01 
  49586.9399     0.15098E-01 
  49619.2021     0.15026E-01 
  49651.4642     0.14955E-01 
  49683.7264     0.14884E-01 
  49715.9886     0.14813E-01 
  49748.2507     0.14742E-01 
  49780.5129     0.14671E-01 
  49812.7750     0.14600E-01 
  49845.0372     0.14529E-01 
  49877.2994     0.14458E-01 
  49909.5615     0.14387E-01 
  49941.8237     0.14316E-01 
  49974.0858     0.14245E-01 
  50006.3480     0.14175E-01 
  50038.6102     0.14104E-01 
  50070.8723     0.14033E-01 
  50103.1345     0.13963E-01 
  50135.3966     0.13893E-01 
  50167.6588     0.13822E-01 
  50199.9210     0.13752E-01 
  50232.1831     0.13682E-01 
  50264.4453     0.13612E-01 
  50296.7074     0.13542E-01 
  50328.9696     0.13472E-01 
  50361.2318     0.13402E-01 
  50393.4939     0.13332E-01 
  50425.7561     0.13262E-01 
  50458.0182     0.13193E-01 
  50490.2804     0.13123E-01 
  50522.5426     0.13054E-01 
  50554.8047     0.12984E-01 
  50587.0669     0.12915E-01 
  50619.3290     0.12846E-01 
  50651.5912     0.12777E-01 
  50683.8534     0.12708E-01 
  50716.1155     0.12640E-01 
  50748.3777     0.12571E-01 
  50780.6398     0.12502E-01 
  50812.9020     0.12434E-01 
  50845.1642     0.12366E-01 
  50877.4263     0.12297E-01 
  50909.6885     0.12229E-01 
  50941.9506     0.12161E-01 
  50974.2128     0.12094E-01 
  51006.4750     0.12026E-01 
  51038.7371     0.11958E-01 
  51070.9993     0.11891E-01 
  51103.2614     0.11824E-01 
  51135.5236     0.11757E-01 
  51167.7858     0.11690E-01 
  51200.0479     0.11623E-01 
  51232.3101     0.11556E-01 
  51264.5722     0.11489E-01 
  51296.8344     0.11423E-01 
  51329.0966     0.11357E-01 
  51361.3587     0.11291E-01 
  51393.6209     0.11225E-01 
  51425.8830     0.11159E-01 
  51458.1452     0.11093E-01 
  51490.4074     0.11028E-01 
  51522.6695     0.10962E-01 
  51554.9317     0.10897E-01 
  51587.1938     0.10832E-01 
  51619.4560     0.10767E-01 
  51651.7182     0.10702E-01 
  51683.9803     0.10638E-01 
  51716.2425     0.10574E-01 
  51748.5046     0.10509E-01 
  51780.7668     0.10445E-01 
  51813.0290     0.10381E-01 
  51845.2911     0.10318E-01 
  51877.5533     0.10254E-01 
  51909.8154     0.10191E-01 
  51942.0776     0.10128E-01 
  51974.3398     0.10065E-01 
  52006.6019     0.10002E-01 
  52038.8641     0.99391E-02 
  52071.1262     0.98766E-02 
  52103.3884     0.98143E-02 
  52135.6506     0.97522E-02 
  52167.9127     0.96903E-02 
  52200.1749     0.96285E-02 
  52232.4370     0.95670E-02 
  52264.6992     0.95056E-02 
  52296.9614     0.94444E-02 
  52329.2235     0.93834E-02 
  52361.4857     0.93226E-02 
  52393.7478     0.92620E-02 
  52426.0100     0.92016E-02 
  52458.2722     0.91414E-02 
  52490.5343     0.90813E-02 
  52522.7965     0.90215E-02 
  52555.0586     0.89618E-02 
  52587.3208     0.89024E-02 
  52619.5830     0.88431E-02 
  52651.8451     0.87841E-02 
  52684.1073     0.87252E-02 
  52716.3694     0.86666E-02 
  52748.6316     0.86081E-02 
  52780.8938     0.85499E-02 
  52813.1559     0.84919E-02 
  52845.4181     0.84340E-02 
  52877.6802     0.83764E-02 
  52909.9424     0.83189E-02 
  52942.2046     0.82617E-02 
  52974.4667     0.82047E-02 
  53006.7289     0.81479E-02 
  53038.9910     0.80913E-02 
  53071.2532     0.80349E-02 
  53103.5154     0.79787E-02 
  53135.7775     0.79227E-02 
  53168.0397     0.78669E-02 
  53200.3018     0.78113E-02 
  53232.5640     0.77560E-02 
  53264.8262     0.77008E-02 
  53297.0883     0.76459E-02 
  53329.3505     0.75912E-02 
  53361.6126     0.75367E-02 
  53393.8748     0.74824E-02 
  53426.1370     0.74283E-02 
  53458.3991     0.73744E-02 
  53490.6613     0.73208E-02 
  53522.9234     0.72673E-02 
  53555.1856     0.72141E-02 
  53587.4478     0.71611E-02 
  53619.7099     0.71083E-02 
  53651.9721     0.70557E-02 
  53684.2342     0.70034E-02 
  53716.4964     0.69512E-02 
  53748.7586     0.68993E-02 
  53781.0207     0.68476E-02 
  53813.2829     0.67961E-02 
  53845.5450     0.67448E-02 
  53877.8072     0.66937E-02 
  53910.0694     0.66429E-02 
  53942.3315     0.65923E-02 
  53974.5937     0.65419E-02 
  54006.8558     0.64917E-02 
  54039.1180     0.64417E-02 
  54071.3802     0.63920E-02 
  54103.6423     0.63424E-02 
  54135.9045     0.62931E-02 
  54168.1666     0.62440E-02 
  54200.4288     0.61951E-02 
  54232.6910     0.61465E-02 
  54264.9531     0.60981E-02 
  54297.2153     0.60498E-02 
  54329.4774     0.60018E-02 
  54361.7396     0.59541E-02 
  54394.0018     0.59065E-02 
  54426.2639     0.58592E-02 
  54458.5261     0.58121E-02 
  54490.7882     0.57652E-02 
  54523.0504     0.57185E-02 
  54555.3126     0.56720E-02 
  54587.5747     0.56258E-02 
  54619.8369     0.55798E-02 
  54652.0990     0.55340E-02 
  54684.3612     0.54884E-02 
  54716.6234     0.54430E-02 
  54748.8855     0.53979E-02 
  54781.1477     0.53529E-02 
  54813.4098     0.53082E-02 
  54845.6720     0.52637E-02 
  54877.9342     0.52195E-02 
  54910.1963     0.51754E-02 
  54942.4585     0.51316E-02 
  54974.7206     0.50880E-02 
  55006.9828     0.50446E-02 
  55039.2450     0.50014E-02 
  55071.5071     0.49584E-02 
  55103.7693     0.49157E-02 
  55136.0314     0.48731E-02 
  55168.2936     0.48308E-02 
  55200.5558     0.47887E-02 
  55232.8179     0.47469E-02 
  55265.0801     0.47052E-02 
  55297.3422     0.46637E-02 
  55329.6044     0.46225E-02 
  55361.8666     0.45815E-02 
  55394.1287     0.45407E-02 
  55426.3909     0.45001E-02 
  55458.6530     0.44597E-02 
  55490.9152     0.44196E-02 
  55523.1774     0.43796E-02 
  55555.4395     0.43399E-02 
  55587.7017     0.43004E-02 
  55619.9638     0.42610E-02 
  55652.2260     0.42219E-02 
  55684.4882     0.41831E-02 
  55716.7503     0.41444E-02 
  55749.0125     0.41059E-02 
  55781.2746     0.40677E-02 
  55813.5368     0.40296E-02 
  55845.7990     0.39918E-02 
  55878.0611     0.39542E-02 
  55910.3233     0.39168E-02 
  55942.5854     0.38796E-02 
  55974.8476     0.38426E-02 
  56007.1098     0.38058E-02 
  56039.3719     0.37692E-02 
  56071.6341     0.37328E-02 
  56103.8962     0.36967E-02 
  56136.1584     0.36607E-02 
  56168.4206     0.36249E-02 
  56200.6827     0.35894E-02 
  56232.9449     0.35540E-02 
  56265.2070     0.35189E-02 
  56297.4692     0.34840E-02 
  56329.7314     0.34492E-02 
  56361.9935     0.34147E-02 
  56394.2557     0.33804E-02 
  56426.5178     0.33463E-02 
  56458.7800     0.33123E-02 
  56491.0422     0.32786E-02 
  56523.3043     0.32451E-02 
  56555.5665     0.32118E-02 
  56587.8286     0.31787E-02 
  56620.0908     0.31457E-02 
  56652.3530     0.31130E-02 
  56684.6151     0.30805E-02 
  56716.8773     0.30482E-02 
  56749.1394     0.30160E-02 
  56781.4016     0.29841E-02 
  56813.6638     0.29524E-02 
  56845.9259     0.29208E-02 
  56878.1881     0.28895E-02 
  56910.4502     0.28583E-02 
  56942.7124     0.28274E-02 
  56974.9746     0.27966E-02 
  57007.2367     0.27661E-02 
  57039.4989     0.27357E-02 
  57071.7610     0.27055E-02 
  57104.0232     0.26755E-02 
  57136.2854     0.26457E-02 
  57168.5475     0.26161E-02 
  57200.8097     0.25867E-02 
  57233.0718     0.25575E-02 
  57265.3340     0.25284E-02 
  57297.5962     0.24996E-02 
  57329.8583     0.24709E-02 
  57362.1205     0.24425E-02 
  57394.3826     0.24142E-02 
  57426.6448     0.23861E-02 
  57458.9070     0.23582E-02 
  57491.1691     0.23304E-02 
  57523.4313     0.23029E-02 
  57555.6934     0.22755E-02 
  57587.9556     0.22483E-02 
  57620.2178     0.22214E-02 
  57652.4799     0.21946E-02 
  57684.7421     0.21679E-02 
  57717.0042     0.21415E-02 
  57749.2664     0.21152E-02 
  57781.5286     0.20891E-02 
  57813.7907     0.20632E-02 
  57846.0529     0.20375E-02 
  57878.3150     0.20120E-02 
  57910.5772     0.19866E-02 
  57942.8394     0.19614E-02 
  57975.1015     0.19364E-02 
  58007.3637     0.19116E-02 
  58039.6258     0.18870E-02 
  58071.8880     0.18625E-02 
  58104.1502     0.18382E-02 
  58136.4123     0.18141E-02 
  58168.6745     0.17901E-02 
  58200.9366     0.17664E-02 
  58233.1988     0.17428E-02 
  58265.4610     0.17193E-02 
  58297.7231     0.16961E-02 
  58329.9853     0.16730E-02 
  58362.2474     0.16501E-02 
  58394.5096     0.16274E-02 
  58426.7718     0.16048E-02 
  58459.0339     0.15824E-02 
  58491.2961     0.15602E-02 
  58523.5582     0.15382E-02 
  58555.8204     0.15163E-02 
  58588.0826     0.14946E-02 
  58620.3447     0.14731E-02 
  58652.6069     0.14517E-02 
  58684.8690     0.14305E-02 
  58717.1312     0.14095E-02 
  58749.3934     0.13886E-02 
  58781.6555     0.13679E-02 
  58813.9177     0.13474E-02 
  58846.1798     0.13270E-02 
  58878.4420     0.13068E-02 
  58910.7042     0.12868E-02 
  58942.9663     0.12669E-02 
  58975.2285     0.12472E-02 
  59007.4906     0.12277E-02 
  59039.7528     0.12083E-02 
  59072.0150     0.11891E-02 
  59104.2771     0.11700E-02 
  59136.5393     0.11512E-02 
  59168.8014     0.11325E-02 
  59201.0636     0.11139E-02 
  59233.3258     0.10955E-02 
  59265.5879     0.10773E-02 
  59297.8501     0.10592E-02 
  59330.1122     0.10413E-02 
  59362.3744     0.10236E-02 
  59394.6366     0.10060E-02 
  59426.8987     0.98859E-03 
  59459.1609     0.97134E-03 
  59491.4230     0.95425E-03 
  59523.6852     0.93732E-03 
  59555.9474     0.92055E-03 
  59588.2095     0.90394E-03 
  59620.4717     0.88749E-03 
  59652.7338     0.87120E-03 
  59684.9960     0.85508E-03 
  59717.2582     0.83911E-03 
  59749.5203     0.82331E-03 
  59781.7825     0.80766E-03 
  59814.0446     0.79218E-03 
  59846.3068     0.77685E-03 
  59878.5690     0.76169E-03 
  59910.8311     0.74668E-03 
  59943.0933     0.73184E-03 
  59975.3554     0.71716E-03 
  60007.6176     0.70263E-03 
  60039.8798     0.68827E-03 
  60072.1419     0.67407E-03 
  60104.4041     0.66003E-03 
  60136.6662     0.64615E-03 
  60168.9284     0.63243E-03 
  60201.1906     0.61887E-03 
  60233.4527     0.60547E-03 
  60265.7149     0.59224E-03 
  60297.9770     0.57916E-03 
  60330.2392     0.56625E-03 
  60362.5014     0.55350E-03 
  60394.7635     0.54092E-03 
  60427.0257     0.52849E-03 
  60459.2878     0.51623E-03 
  60491.5500     0.50413E-03 
  60523.8122     0.49219E-03 
  60556.0743     0.48042E-03 
  60588.3365     0.46882E-03 
  60620.5986     0.45737E-03 
  60652.8608     0.44610E-03 
  60685.1230     0.43498E-03 
  60717.3851     0.42404E-03 
  60749.6473     0.41326E-03 
  60781.9094     0.40265E-03 
  60814.1716     0.39220E-03 
  60846.4338     0.38193E-03 
  60878.6959     0.37182E-03 
  60910.9581     0.36188E-03 
  60943.2202     0.35211E-03 
  60975.4824     0.34252E-03 
  61007.7446     0.33309E-03 
  61040.0067     0.32384E-03 
  61072.2689     0.31476E-03 
  61104.5310     0.30585E-03 
  61136.7932     0.29712E-03 
  61169.0554     0.28856E-03 
  61201.3175     0.28018E-03 
  61233.5797     0.27197E-03 
  61265.8418     0.26395E-03 
  61298.1040     0.25610E-03 
  61330.3662     0.24844E-03 
  61362.6283     0.24095E-03 
  61394.8905     0.23365E-03 
  61427.1526     0.22653E-03 
  61459.4148     0.21959E-03 
  61491.6770     0.21284E-03 
  61523.9391     0.20628E-03 
  61556.2013     0.19990E-03 
  61588.4634     0.19372E-03 
  61620.7256     0.18772E-03 
  61652.9878     0.18192E-03 
  61685.2499     0.17631E-03 
  61717.5121     0.17090E-03 
  61749.7742     0.16568E-03 
  61782.0364     0.16066E-03 
  61814.2986     0.15584E-03 
  61846.5607     0.15122E-03 
  61878.8229     0.14680E-03 
  61911.0850     0.14259E-03 
  61943.3472     0.13858E-03 
  61975.6094     0.13478E-03 
  62007.8715     0.13119E-03 
  62040.1337     0.12782E-03 
  62072.3958     0.12465E-03 
  62104.6580     0.12170E-03 
  62136.9202     0.11897E-03 
  62169.1823     0.11646E-03 
  62201.4445     0.11417E-03 
  62233.7066     0.11211E-03 
  62265.9688     0.11027E-03 
  62298.2310     0.10866E-03 
  62330.4931     0.10728E-03 
  62362.7553     0.10613E-03 
  62395.0174     0.10522E-03 
  62427.2796     0.10455E-03 
  62459.5418     0.10411E-03 
  62491.8039     0.10393E-03 
  62524.0661     0.10398E-03 
  62556.3282     0.10429E-03 
  62588.5904     0.10485E-03 
  62620.8526     0.10566E-03 
  62653.1147     0.10673E-03 
  62685.3769     0.10806E-03 
  62717.6390     0.10965E-03 
  62749.9012     0.11151E-03 
  62782.1634     0.11364E-03 
  62814.4255     0.11604E-03 
  62846.6877     0.11872E-03 
  62878.9498     0.12168E-03 
  62911.2120     0.12492E-03 
  62943.4742     0.12845E-03 
  62975.7363     0.13227E-03 
  63007.9985     0.13638E-03 
  63040.2606     0.14079E-03 
  63072.5228     0.14550E-03 
  63104.7850     0.15052E-03 
  63137.0471     0.15585E-03 
  63169.3093     0.16149E-03 
  63201.5714     0.16745E-03 
  63233.8336     0.17373E-03 
  63266.0958     0.18034E-03 
  63298.3579     0.18728E-03 
  63330.6201     0.19455E-03 
  63362.8822     0.20217E-03 
  63395.1444     0.21013E-03 
  63427.4066     0.21843E-03 
  63459.6687     0.22710E-03 
  63491.9309     0.23612E-03 
  63524.1930     0.24551E-03 
  63556.4552     0.25526E-03 
  63588.7174     0.26539E-03 
  63620.9795     0.27590E-03 
  63653.2417     0.28680E-03 
  63685.5038     0.29809E-03 
  63717.7660     0.30977E-03 
  63750.0282     0.32186E-03 
  63782.2903     0.33435E-03 
  63814.5525     0.34726E-03 
  63846.8146     0.36059E-03 
  63879.0768     0.37434E-03 
  63911.3390     0.38853E-03 
  63943.6011     0.40316E-03 
  63975.8633     0.41823E-03 
  64008.1254     0.43376E-03 
  64040.3876     0.44974E-03 
  64072.6498     0.46619E-03 
  64104.9119     0.48311E-03 
  64137.1741     0.50051E-03 
  64169.4362     0.51840E-03 
  64201.6984     0.53678E-03 
  64233.9606     0.55567E-03 
  64266.2227     0.57506E-03 
  64298.4849     0.59497E-03 
  64330.7470     0.61541E-03 
  64363.0092     0.63638E-03 
  64395.2714     0.65789E-03 
  64427.5335     0.67995E-03 
  64459.7957     0.70256E-03 
  64492.0578     0.72575E-03 
  64524.3200     0.74950E-03 
  64556.5822     0.77384E-03 
  64588.8443     0.79877E-03 
  64621.1065     0.82431E-03 
  64653.3686     0.85045E-03 
  64685.6308     0.87721E-03 
  64717.8930     0.90461E-03 
  64750.1551     0.93264E-03 
  64782.4173     0.96132E-03 
  64814.6794     0.99066E-03 
  64846.9416     0.10207E-02 
  64879.2038     0.10513E-02 
  64911.4659     0.10827E-02 
  64943.7281     0.11148E-02 
  64975.9902     0.11476E-02 
  65008.2524     0.11811E-02 
  65040.5146     0.12153E-02 
  65072.7767     0.12503E-02 
  65105.0389     0.12860E-02 
  65137.3010     0.13225E-02 
  65169.5632     0.13598E-02 
  65201.8254     0.13979E-02 
  65234.0875     0.14368E-02 
  65266.3497     0.14764E-02 
  65298.6118     0.15169E-02 
  65330.8740     0.15583E-02 
  65363.1362     0.16005E-02 
  65395.3983     0.16436E-02 
  65427.6605     0.16875E-02 
  65459.9226     0.17323E-02 
  65492.1848     0.17781E-02 
  65524.4470     0.18247E-02 
  65556.7091     0.18723E-02 
  65588.9713     0.19208E-02 
  65621.2334     0.19703E-02 
  65653.4956     0.20208E-02 
  65685.7578     0.20722E-02 
  65718.0199     0.21247E-02 
  65750.2821     0.21781E-02 
  65782.5442     0.22326E-02 
  65814.8064     0.22882E-02 
  65847.0686     0.23448E-02 
  65879.3307     0.24025E-02 
  65911.5929     0.24613E-02 
  65943.8550     0.25211E-02 
  65976.1172     0.25822E-02 
  66008.3794     0.26443E-02 
  66040.6415     0.27076E-02 
  66072.9037     0.27721E-02 
  66105.1658     0.28378E-02 
  66137.4280     0.29047E-02 
  66169.6902     0.29729E-02 
  66201.9523     0.30422E-02 
  66234.2145     0.31129E-02 
  66266.4766     0.31848E-02 
  66298.7388     0.32580E-02 
  66331.0010     0.33326E-02 
  66363.2631     0.34084E-02 
  66395.5253     0.34857E-02 
  66427.7874     0.35643E-02 
  66460.0496     0.36443E-02 
  66492.3118     0.37257E-02 
  66524.5739     0.38085E-02 
  66556.8361     0.38928E-02 
  66589.0982     0.39786E-02 
  66621.3604     0.40659E-02 
  66653.6226     0.41546E-02 
  66685.8847     0.42450E-02 
  66718.1469     0.43368E-02 
  66750.4090     0.44303E-02 
  66782.6712     0.45253E-02 
  66814.9334     0.46220E-02 
  66847.1955     0.47203E-02 
  66879.4577     0.48203E-02 
  66911.7198     0.49219E-02 
  66943.9820     0.50253E-02 
  66976.2442     0.51304E-02 
  67008.5063     0.52373E-02 
  67040.7685     0.53459E-02 
  67073.0306     0.54563E-02 
  67105.2928     0.55686E-02 
  67137.5550     0.56827E-02 
  67169.8171     0.57987E-02 
  67202.0793     0.59165E-02 
  67234.3414     0.60363E-02 
  67266.6036     0.61581E-02 
  67298.8658     0.62818E-02 
  67331.1279     0.64075E-02 
  67363.3901     0.65352E-02 
  67395.6522     0.66650E-02 
  67427.9144     0.67968E-02 
  67460.1766     0.69307E-02 
  67492.4387     0.70668E-02 
  67524.7009     0.72050E-02 
  67556.9630     0.73454E-02 
  67589.2252     0.74880E-02 
  67621.4874     0.76328E-02 
  67653.7495     0.77799E-02 
  67686.0117     0.79292E-02 
  67718.2738     0.80809E-02 
  67750.5360     0.82349E-02 
  67782.7982     0.83913E-02 
  67815.0603     0.85501E-02 
  67847.3225     0.87113E-02 
  67879.5846     0.88749E-02 
  67911.8468     0.90411E-02 
  67944.1090     0.92097E-02 
  67976.3711     0.93809E-02 
  68008.6333     0.95546E-02 
  68040.8954     0.97310E-02 
  68073.1576     0.99100E-02 
  68105.4198     0.10092E-01 
  68137.6819     0.10276E-01 
  68169.9441     0.10463E-01 
  68202.2062     0.10653E-01 
  68234.4684     0.10845E-01 
  68266.7306     0.11041E-01 
  68298.9927     0.11239E-01 
  68331.2549     0.11440E-01 
  68363.5170     0.11644E-01 
  68395.7792     0.11851E-01 
  68428.0414     0.12061E-01 
  68460.3035     0.12274E-01 
  68492.5657     0.12489E-01 
  68524.8278     0.12708E-01 
  68557.0900     0.12930E-01 
  68589.3522     0.13156E-01 
  68621.6143     0.13384E-01 
  68653.8765     0.13615E-01 
  68686.1386     0.13850E-01 
  68718.4008     0.14088E-01 
  68750.6630     0.14329E-01 
  68782.9251     0.14574E-01 
  68815.1873     0.14822E-01 
  68847.4494     0.15073E-01 
  68879.7116     0.15328E-01 
  68911.9738     0.15586E-01 
  68944.2359     0.15848E-01 
  68976.4981     0.16113E-01 
  69008.7602     0.16382E-01 
  69041.0224     0.16654E-01 
  69073.2846     0.16930E-01 
  69105.5467     0.17210E-01 
  69137.8089     0.17493E-01 
  69170.0710     0.17780E-01 
  69202.3332     0.18071E-01 
  69234.5954     0.18365E-01 
  69266.8575     0.18664E-01 
  69299.1197     0.18966E-01 
  69331.3818     0.19272E-01 
  69363.6440     0.19582E-01 
  69395.9062     0.19896E-01 
  69428.1683     0.20214E-01 
  69460.4305     0.20536E-01 
  69492.6926     0.20862E-01 
  69524.9548     0.21193E-01 
  69557.2170     0.21527E-01 
  69589.4791     0.21866E-01 
  69621.7413     0.22208E-01 
  69654.0034     0.22555E-01 
  69686.2656     0.22906E-01 
  69718.5278     0.23262E-01 
  69750.7899     0.23622E-01 
  69783.0521     0.23986E-01 
  69815.3142     0.24355E-01 
  69847.5764     0.24728E-01 
  69879.8386     0.25105E-01 
  69912.1007     0.25487E-01 
  69944.3629     0.25874E-01 
  69976.6250     0.26265E-01 
  70008.8872     0.26661E-01 
  70041.1494     0.27062E-01 
  70073.4115     0.27467E-01 
  70105.6737     0.27876E-01 
  70137.9358     0.28291E-01 
  70170.1980     0.28710E-01 
  70202.4602     0.29135E-01 
  70234.7223     0.29564E-01 
  70266.9845     0.29998E-01 
  70299.2466     0.30436E-01 
  70331.5088     0.30880E-01 
  70363.7710     0.31329E-01 
  70396.0331     0.31783E-01 
  70428.2953     0.32241E-01 
  70460.5574     0.32705E-01 
  70492.8196     0.33174E-01 
  70525.0818     0.33648E-01 
  70557.3439     0.34128E-01 
  70589.6061     0.34612E-01 
  70621.8682     0.35102E-01 
  70654.1304     0.35597E-01 
  70686.3926     0.36097E-01 
  70718.6547     0.36603E-01 
  70750.9169     0.37113E-01 
  70783.1790     0.37630E-01 
  70815.4412     0.38152E-01 
  70847.7034     0.38679E-01 
  70879.9655     0.39211E-01 
  70912.2277     0.39749E-01 
  70944.4898     0.40293E-01 
  70976.7520     0.40842E-01 
  71009.0142     0.41397E-01 
  71041.2763     0.41958E-01 
  71073.5385     0.42524E-01 
  71105.8006     0.43095E-01 
  71138.0628     0.43673E-01 
  71170.3250     0.44256E-01 
  71202.5871     0.44845E-01 
  71234.8493     0.45439E-01 
  71267.1114     0.46040E-01 
  71299.3736     0.46646E-01 
  71331.6358     0.47258E-01 
  71363.8979     0.47876E-01 
  71396.1601     0.48500E-01 
  71428.4222     0.49130E-01 
  71460.6844     0.49765E-01 
  71492.9466     0.50407E-01 
  71525.2087     0.51055E-01 
  71557.4709     0.51708E-01 
  71589.7330     0.52368E-01 
  71621.9952     0.53034E-01 
  71654.2574     0.53705E-01 
  71686.5195     0.54383E-01 
  71718.7817     0.55067E-01 
  71751.0438     0.55757E-01 
  71783.3060     0.56454E-01 
  71815.5682     0.57156E-01 
  71847.8303     0.57865E-01 
  71880.0925     0.58579E-01 
  71912.3546     0.59300E-01 
  71944.6168     0.60027E-01 
  71976.8790     0.60761E-01 
  72009.1411     0.61500E-01 
  72041.4033     0.62246E-01 
  72073.6654     0.62999E-01 
  72105.9276     0.63757E-01 
  72138.1898     0.64522E-01 
  72170.4519     0.65293E-01 
  72202.7141     0.66071E-01 
  72234.9762     0.66854E-01 
  72267.2384     0.67644E-01 
  72299.5006     0.68441E-01 
  72331.7627     0.69244E-01 
  72364.0249     0.70053E-01 
  72396.2870     0.70869E-01 
  72428.5492     0.71691E-01 
  72460.8114     0.72519E-01 
  72493.0735     0.73354E-01 
  72525.3357     0.74195E-01 
  72557.5978     0.75043E-01 
  72589.8600     0.75897E-01 
